 VARIABLES="X" "Y" "Z" "abs(eta) (m)" "angle(phi) (rad)" "PRE1" "PRE2"
ZONE N=   3200 ,E =    3136 ,F=FEPOINT,ET=QUADRILATERAL
  0.1672760E+02  0.0000000E+00  0.0000000E+00  0.1912966E+02 -0.4832762E+00 -0.1693888E+02  0.8889222E+01
  0.1664710E+02  0.1639590E+01  0.0000000E+00  0.1909203E+02 -0.4854988E+00 -0.1688580E+02  0.8909286E+01
  0.1640620E+02  0.3263390E+01  0.0000000E+00  0.1896552E+02 -0.4911088E+00 -0.1672400E+02  0.8944217E+01
  0.1600730E+02  0.4855770E+01  0.0000000E+00  0.1875125E+02 -0.4999694E+00 -0.1645604E+02  0.8989323E+01
  0.1545430E+02  0.6401380E+01  0.0000000E+00  0.1844944E+02 -0.5119666E+00 -0.1608390E+02  0.9038243E+01
  0.1475240E+02  0.7885340E+01  0.0000000E+00  0.1810903E+02 -0.5293764E+00 -0.1563030E+02  0.9144972E+01
  0.1390850E+02  0.9293360E+01  0.0000000E+00  0.1772153E+02 -0.5520825E+00 -0.1508871E+02  0.9294260E+01
  0.1293060E+02  0.1061190E+02  0.0000000E+00  0.1728884E+02 -0.5800543E+00 -0.1446095E+02  0.9475482E+01
  0.1182820E+02  0.1182820E+02  0.0000000E+00  0.1675034E+02 -0.6118142E+00 -0.1371195E+02  0.9620618E+01
  0.1061190E+02  0.1293060E+02  0.0000000E+00  0.1603611E+02 -0.6447877E+00 -0.1281650E+02  0.9638165E+01
  0.9293360E+01  0.1390850E+02  0.0000000E+00  0.1523711E+02 -0.6826673E+00 -0.1182236E+02  0.9612555E+01
  0.7885330E+01  0.1475240E+02  0.0000000E+00  0.1414215E+02 -0.7202332E+00 -0.1062998E+02  0.9327600E+01
  0.6401380E+01  0.1545430E+02  0.0000000E+00  0.1283824E+02 -0.7624143E+00 -0.9284238E+01  0.8866979E+01
  0.4855770E+01  0.1600730E+02  0.0000000E+00  0.1103955E+02 -0.8043406E+00 -0.7656882E+01  0.7952600E+01
  0.3263390E+01  0.1640620E+02  0.0000000E+00  0.8213942E+01 -0.8348942E+00 -0.5513659E+01  0.6088383E+01
  0.1639590E+01  0.1664710E+02  0.0000000E+00  0.4194232E+01 -0.8403156E+00 -0.2798508E+01  0.3124089E+01
 -0.7311870E-06  0.1672760E+02  0.0000000E+00  0.7443126E-05  0.9313985E+00 -0.4441406E-05 -0.5972775E-05
 -0.1639590E+01  0.1664710E+02  0.0000000E+00  0.4194242E+01  0.2301271E+01  0.2798495E+01 -0.3124115E+01
 -0.3263390E+01  0.1640620E+02  0.0000000E+00  0.8213981E+01  0.2306704E+01  0.5513719E+01 -0.6088381E+01
 -0.4855770E+01  0.1600730E+02  0.0000000E+00  0.1103956E+02  0.2337253E+01  0.7656890E+01 -0.7952600E+01
 -0.6401380E+01  0.1545430E+02  0.0000000E+00  0.1283825E+02  0.2379179E+01  0.9284258E+01 -0.8866981E+01
 -0.7885340E+01  0.1475240E+02  0.0000000E+00  0.1414212E+02  0.2421358E+01  0.1062994E+02 -0.9327587E+01
 -0.9293360E+01  0.1390850E+02  0.0000000E+00  0.1523711E+02  0.2458926E+01  0.1182237E+02 -0.9612555E+01
 -0.1061190E+02  0.1293060E+02  0.0000000E+00  0.1603609E+02  0.2496804E+01  0.1281648E+02 -0.9638166E+01
 -0.1182820E+02  0.1182820E+02  0.0000000E+00  0.1675031E+02  0.2529781E+01  0.1371196E+02 -0.9620562E+01
 -0.1293060E+02  0.1061190E+02  0.0000000E+00  0.1728884E+02  0.2561542E+01  0.1446099E+02 -0.9475436E+01
 -0.1390850E+02  0.9293360E+01  0.0000000E+00  0.1772157E+02  0.2589510E+01  0.1508875E+02 -0.9294277E+01
 -0.1475240E+02  0.7885330E+01  0.0000000E+00  0.1810900E+02  0.2612217E+01  0.1563029E+02 -0.9144941E+01
 -0.1545430E+02  0.6401370E+01  0.0000000E+00  0.1844948E+02  0.2629623E+01  0.1608391E+02 -0.9038308E+01
 -0.1600730E+02  0.4855770E+01  0.0000000E+00  0.1875124E+02  0.2641622E+01  0.1645602E+02 -0.8989345E+01
 -0.1640620E+02  0.3263390E+01  0.0000000E+00  0.1896546E+02  0.2650479E+01  0.1672390E+02 -0.8944269E+01
 -0.1664710E+02  0.1639590E+01  0.0000000E+00  0.1909208E+02  0.2656092E+01  0.1688582E+02 -0.8909342E+01
 -0.1672760E+02 -0.1462370E-05  0.0000000E+00  0.1912965E+02  0.2658318E+01  0.1693888E+02 -0.8889196E+01
 -0.1664710E+02 -0.1639590E+01  0.0000000E+00  0.1909208E+02  0.2656091E+01  0.1688582E+02 -0.8909354E+01
 -0.1640620E+02 -0.3263400E+01  0.0000000E+00  0.1896547E+02  0.2650481E+01  0.1672392E+02 -0.8944248E+01
 -0.1600730E+02 -0.4855770E+01  0.0000000E+00  0.1875122E+02  0.2641622E+01  0.1645601E+02 -0.8989339E+01
 -0.1545430E+02 -0.6401380E+01  0.0000000E+00  0.1844948E+02  0.2629624E+01  0.1608392E+02 -0.9038291E+01
 -0.1475240E+02 -0.7885340E+01  0.0000000E+00  0.1810899E+02  0.2612217E+01  0.1563028E+02 -0.9144946E+01
 -0.1390850E+02 -0.9293360E+01  0.0000000E+00  0.1772157E+02  0.2589511E+01  0.1508875E+02 -0.9294272E+01
 -0.1293060E+02 -0.1061190E+02  0.0000000E+00  0.1728884E+02  0.2561541E+01  0.1446098E+02 -0.9475446E+01
 -0.1182820E+02 -0.1182820E+02  0.0000000E+00  0.1675030E+02  0.2529781E+01  0.1371194E+02 -0.9620557E+01
 -0.1061190E+02 -0.1293060E+02  0.0000000E+00  0.1603607E+02  0.2496804E+01  0.1281646E+02 -0.9638155E+01
 -0.9293350E+01 -0.1390850E+02  0.0000000E+00  0.1523711E+02  0.2458925E+01  0.1182236E+02 -0.9612568E+01
 -0.7885340E+01 -0.1475240E+02  0.0000000E+00  0.1414213E+02  0.2421360E+01  0.1062996E+02 -0.9327573E+01
 -0.6401370E+01 -0.1545430E+02  0.0000000E+00  0.1283825E+02  0.2379180E+01  0.9284260E+01 -0.8866967E+01
 -0.4855760E+01 -0.1600730E+02  0.0000000E+00  0.1103953E+02  0.2337254E+01  0.7656886E+01 -0.7952569E+01
 -0.3263390E+01 -0.1640620E+02  0.0000000E+00  0.8213983E+01  0.2306707E+01  0.5513737E+01 -0.6088367E+01
 -0.1639590E+01 -0.1664710E+02  0.0000000E+00  0.4194240E+01  0.2301272E+01  0.2798499E+01 -0.3124109E+01
  0.1994750E-06 -0.1672760E+02  0.0000000E+00  0.4441724E-04 -0.8578887E-01 -0.4425389E-04  0.3805832E-05
  0.1639600E+01 -0.1664710E+02  0.0000000E+00  0.4194287E+01 -0.8403118E+00 -0.2798557E+01  0.3124120E+01
  0.3263390E+01 -0.1640620E+02  0.0000000E+00  0.8213972E+01 -0.8348913E+00 -0.5513697E+01  0.6088389E+01
  0.4855770E+01 -0.1600730E+02  0.0000000E+00  0.1103956E+02 -0.8043396E+00 -0.7656895E+01  0.7952596E+01
  0.6401380E+01 -0.1545430E+02  0.0000000E+00  0.1283824E+02 -0.7624143E+00 -0.9284241E+01  0.8866982E+01
  0.7885340E+01 -0.1475240E+02  0.0000000E+00  0.1414217E+02 -0.7202311E+00 -0.1063001E+02  0.9327585E+01
  0.9293360E+01 -0.1390850E+02  0.0000000E+00  0.1523714E+02 -0.6826677E+00 -0.1182238E+02  0.9612579E+01
  0.1061190E+02 -0.1293060E+02  0.0000000E+00  0.1603609E+02 -0.6447873E+00 -0.1281649E+02  0.9638150E+01
  0.1182820E+02 -0.1182820E+02  0.0000000E+00  0.1675036E+02 -0.6118123E+00 -0.1371199E+02  0.9620605E+01
  0.1293060E+02 -0.1061190E+02  0.0000000E+00  0.1728885E+02 -0.5800544E+00 -0.1446096E+02  0.9475489E+01
  0.1390850E+02 -0.9293360E+01  0.0000000E+00  0.1772156E+02 -0.5520823E+00 -0.1508874E+02  0.9294271E+01
  0.1475240E+02 -0.7885330E+01  0.0000000E+00  0.1810905E+02 -0.5293759E+00 -0.1563033E+02  0.9144974E+01
  0.1545430E+02 -0.6401380E+01  0.0000000E+00  0.1844946E+02 -0.5119665E+00 -0.1608392E+02  0.9038252E+01
  0.1600730E+02 -0.4855760E+01  0.0000000E+00  0.1875128E+02 -0.4999692E+00 -0.1645607E+02  0.8989334E+01
  0.1640620E+02 -0.3263390E+01  0.0000000E+00  0.1896550E+02 -0.4911107E+00 -0.1672396E+02  0.8944235E+01
  0.1664710E+02 -0.1639590E+01  0.0000000E+00  0.1909202E+02 -0.4854990E+00 -0.1688579E+02  0.8909288E+01
  0.1672760E+02  0.0000000E+00 -0.2568960E-01  0.1909930E+02 -0.4832945E+00 -0.1691184E+02  0.8875425E+01
  0.1664710E+02  0.1639590E+01 -0.2568960E-01  0.1906171E+02 -0.4855193E+00 -0.1685880E+02  0.8895483E+01
  0.1640620E+02  0.3263390E+01 -0.2568960E-01  0.1893545E+02 -0.4911354E+00 -0.1669724E+02  0.8930475E+01
  0.1600730E+02  0.4855770E+01 -0.2568960E-01  0.1872176E+02 -0.5000082E+00 -0.1642981E+02  0.8975822E+01
  0.1545430E+02  0.6401380E+01 -0.2568960E-01  0.1842090E+02 -0.5120109E+00 -0.1605862E+02  0.9024973E+01
  0.1475240E+02  0.7885340E+01 -0.2568960E-01  0.1808104E+02 -0.5294240E+00 -0.1560571E+02  0.9131578E+01
  0.1390850E+02  0.9293360E+01 -0.2568960E-01  0.1769401E+02 -0.5521200E+00 -0.1506494E+02  0.9280390E+01
  0.1293060E+02  0.1061190E+02 -0.2568960E-01  0.1726145E+02 -0.5800716E+00 -0.1443788E+02  0.9460722E+01
  0.1182820E+02  0.1182820E+02 -0.2568960E-01  0.1672362E+02 -0.6118256E+00 -0.1368997E+02  0.9605424E+01
  0.1061190E+02  0.1293060E+02 -0.2568960E-01  0.1601085E+02 -0.6448101E+00 -0.1279609E+02  0.9623266E+01
  0.9293360E+01  0.1390850E+02 -0.2568960E-01  0.1521273E+02 -0.6826724E+00 -0.1180340E+02  0.9597235E+01
  0.7885330E+01  0.1475240E+02 -0.2568960E-01  0.1412032E+02 -0.7202652E+00 -0.1061327E+02  0.9313536E+01
  0.6401380E+01  0.1545430E+02 -0.2568960E-01  0.1281809E+02 -0.7624322E+00 -0.9269506E+01  0.8853226E+01
  0.4855770E+01  0.1600730E+02 -0.2568960E-01  0.1102242E+02 -0.8043643E+00 -0.7644814E+01  0.7940441E+01
  0.3263390E+01  0.1640620E+02 -0.2568960E-01  0.8201912E+01 -0.8349401E+00 -0.5505304E+01  0.6079719E+01
  0.1639590E+01  0.1664710E+02 -0.2568960E-01  0.4188320E+01 -0.8403649E+00 -0.2794410E+01  0.3119824E+01
 -0.7311870E-06  0.1672760E+02 -0.2568960E-01  0.8427415E-05 -0.1646587E+01  0.6381081E-06  0.8403223E-05
 -0.1639590E+01  0.1664710E+02 -0.2568960E-01  0.4188277E+01  0.2301213E+01  0.2794335E+01 -0.3119832E+01
 -0.3263390E+01  0.1640620E+02 -0.2568960E-01  0.8201979E+01  0.2306657E+01  0.5505374E+01 -0.6079746E+01
 -0.4855770E+01  0.1600730E+02 -0.2568960E-01  0.1102246E+02  0.2337231E+01  0.7644857E+01 -0.7940445E+01
 -0.6401380E+01  0.1545430E+02 -0.2568960E-01  0.1281810E+02  0.2379164E+01  0.9269551E+01 -0.8853199E+01
 -0.7885340E+01  0.1475240E+02 -0.2568960E-01  0.1412031E+02  0.2421327E+01  0.1061326E+02 -0.9313540E+01
 -0.9293360E+01  0.1390850E+02 -0.2568960E-01  0.1521271E+02  0.2458918E+01  0.1180337E+02 -0.9597249E+01
 -0.1061190E+02  0.1293060E+02 -0.2568960E-01  0.1601086E+02  0.2496783E+01  0.1279611E+02 -0.9623269E+01
 -0.1182820E+02  0.1182820E+02 -0.2568960E-01  0.1672362E+02  0.2529767E+01  0.1368997E+02 -0.9605425E+01
 -0.1293060E+02  0.1061190E+02 -0.2568960E-01  0.1726146E+02  0.2561522E+01  0.1443790E+02 -0.9460717E+01
 -0.1390850E+02  0.9293360E+01 -0.2568960E-01  0.1769401E+02  0.2589472E+01  0.1506493E+02 -0.9280397E+01
 -0.1475240E+02  0.7885330E+01 -0.2568960E-01  0.1808102E+02  0.2612169E+01  0.1560569E+02 -0.9131569E+01
 -0.1545430E+02  0.6401370E+01 -0.2568960E-01  0.1842089E+02  0.2629580E+01  0.1605860E+02 -0.9025003E+01
 -0.1600730E+02  0.4855770E+01 -0.2568960E-01  0.1872181E+02  0.2641587E+01  0.1642989E+02 -0.8975803E+01
 -0.1640620E+02  0.3263390E+01 -0.2568960E-01  0.1893548E+02  0.2650456E+01  0.1669726E+02 -0.8930514E+01
 -0.1664710E+02  0.1639590E+01 -0.2568960E-01  0.1906173E+02  0.2656075E+01  0.1685883E+02 -0.8895475E+01
 -0.1672760E+02 -0.1462370E-05 -0.2568960E-01  0.1909924E+02  0.2658295E+01  0.1691176E+02 -0.8875443E+01
 -0.1664710E+02 -0.1639590E+01 -0.2568960E-01  0.1906175E+02  0.2656072E+01  0.1685883E+02 -0.8895526E+01
 -0.1640620E+02 -0.3263400E+01 -0.2568960E-01  0.1893547E+02  0.2650456E+01  0.1669725E+02 -0.8930513E+01
 -0.1600730E+02 -0.4855770E+01 -0.2568960E-01  0.1872181E+02  0.2641587E+01  0.1642988E+02 -0.8975807E+01
 -0.1545430E+02 -0.6401380E+01 -0.2568960E-01  0.1842089E+02  0.2629580E+01  0.1605861E+02 -0.9024992E+01
 -0.1475240E+02 -0.7885340E+01 -0.2568960E-01  0.1808101E+02  0.2612169E+01  0.1560569E+02 -0.9131559E+01
 -0.1390850E+02 -0.9293360E+01 -0.2568960E-01  0.1769398E+02  0.2589472E+01  0.1506491E+02 -0.9280384E+01
 -0.1293060E+02 -0.1061190E+02 -0.2568960E-01  0.1726145E+02  0.2561522E+01  0.1443789E+02 -0.9460707E+01
 -0.1182820E+02 -0.1182820E+02 -0.2568960E-01  0.1672362E+02  0.2529767E+01  0.1368997E+02 -0.9605423E+01
 -0.1061190E+02 -0.1293060E+02 -0.2568960E-01  0.1601084E+02  0.2496783E+01  0.1279609E+02 -0.9623251E+01
 -0.9293350E+01 -0.1390850E+02 -0.2568960E-01  0.1521269E+02  0.2458916E+01  0.1180333E+02 -0.9597256E+01
 -0.7885340E+01 -0.1475240E+02 -0.2568960E-01  0.1412031E+02  0.2421328E+01  0.1061327E+02 -0.9313527E+01
 -0.6401370E+01 -0.1545430E+02 -0.2568960E-01  0.1281813E+02  0.2379166E+01  0.9269586E+01 -0.8853204E+01
 -0.4855760E+01 -0.1600730E+02 -0.2568960E-01  0.1102243E+02  0.2337231E+01  0.7644841E+01 -0.7940423E+01
 -0.3263390E+01 -0.1640620E+02 -0.2568960E-01  0.8201944E+01  0.2306654E+01  0.5505333E+01 -0.6079737E+01
 -0.1639590E+01 -0.1664710E+02 -0.2568960E-01  0.4188278E+01  0.2301215E+01  0.2794341E+01 -0.3119828E+01
  0.1994750E-06 -0.1672760E+02 -0.2568960E-01  0.2953717E-04 -0.1850660E+00 -0.2903280E-04  0.5435178E-05
  0.1639600E+01 -0.1664710E+02 -0.2568960E-01  0.4188383E+01 -0.8403645E+00 -0.2794453E+01  0.3119869E+01
  0.3263390E+01 -0.1640620E+02 -0.2568960E-01  0.8201924E+01 -0.8349416E+00 -0.5505304E+01  0.6079736E+01
  0.4855770E+01 -0.1600730E+02 -0.2568960E-01  0.1102243E+02 -0.8043656E+00 -0.7644807E+01  0.7940455E+01
  0.6401380E+01 -0.1545430E+02 -0.2568960E-01  0.1281812E+02 -0.7624285E+00 -0.9269559E+01  0.8853211E+01
  0.7885340E+01 -0.1475240E+02 -0.2568960E-01  0.1412035E+02 -0.7202643E+00 -0.1061330E+02  0.9313550E+01
  0.9293360E+01 -0.1390850E+02 -0.2568960E-01  0.1521270E+02 -0.6826741E+00 -0.1180336E+02  0.9597238E+01
  0.1061190E+02 -0.1293060E+02 -0.2568960E-01  0.1601087E+02 -0.6448094E+00 -0.1279612E+02  0.9623272E+01
  0.1182820E+02 -0.1182820E+02 -0.2568960E-01  0.1672362E+02 -0.6118249E+00 -0.1368998E+02  0.9605418E+01
  0.1293060E+02 -0.1061190E+02 -0.2568960E-01  0.1726143E+02 -0.5800726E+00 -0.1443785E+02  0.9460722E+01
  0.1390850E+02 -0.9293360E+01 -0.2568960E-01  0.1769401E+02 -0.5521193E+00 -0.1506494E+02  0.9280381E+01
  0.1475240E+02 -0.7885330E+01 -0.2568960E-01  0.1808105E+02 -0.5294229E+00 -0.1560573E+02  0.9131571E+01
  0.1545430E+02 -0.6401380E+01 -0.2568960E-01  0.1842087E+02 -0.5120109E+00 -0.1605860E+02  0.9024961E+01
  0.1600730E+02 -0.4855760E+01 -0.2568960E-01  0.1872177E+02 -0.5000072E+00 -0.1642984E+02  0.8975814E+01
  0.1640620E+02 -0.3263390E+01 -0.2568960E-01  0.1893548E+02 -0.4911340E+00 -0.1669728E+02  0.8930469E+01
  0.1664710E+02 -0.1639590E+01 -0.2568960E-01  0.1906167E+02 -0.4855204E+00 -0.1685876E+02  0.8895485E+01
  0.1672760E+02  0.0000000E+00 -0.1027320E+00  0.1900922E+02 -0.4833875E+00 -0.1683125E+02  0.8835128E+01
  0.1664710E+02  0.1639590E+01 -0.1027320E+00  0.1897188E+02 -0.4856156E+00 -0.1677850E+02  0.8855181E+01
  0.1640620E+02  0.3263390E+01 -0.1027320E+00  0.1884666E+02 -0.4912480E+00 -0.1661794E+02  0.8890471E+01
  0.1600730E+02  0.4855770E+01 -0.1027320E+00  0.1863476E+02 -0.5001406E+00 -0.1635229E+02  0.8936281E+01
  0.1545430E+02  0.6401380E+01 -0.1027320E+00  0.1833622E+02 -0.5121782E+00 -0.1598330E+02  0.8986164E+01
  0.1475240E+02  0.7885340E+01 -0.1027320E+00  0.1799807E+02 -0.5295891E+00 -0.1553260E+02  0.9092240E+01
  0.1390850E+02  0.9293360E+01 -0.1027320E+00  0.1761217E+02 -0.5522607E+00 -0.1499396E+02  0.9239577E+01
  0.1293060E+02  0.1061190E+02 -0.1027320E+00  0.1718009E+02 -0.5801512E+00 -0.1436908E+02  0.9417274E+01
  0.1182820E+02  0.1182820E+02 -0.1027320E+00  0.1664439E+02 -0.6118799E+00 -0.1362459E+02  0.9560660E+01
  0.1061190E+02  0.1293060E+02 -0.1027320E+00  0.1593583E+02 -0.6448926E+00 -0.1273534E+02  0.9579226E+01
  0.9293360E+01  0.1390850E+02 -0.1027320E+00  0.1514006E+02 -0.6827049E+00 -0.1174670E+02  0.9551773E+01
  0.7885330E+01  0.1475240E+02 -0.1027320E+00  0.1405541E+02 -0.7203665E+00 -0.1056354E+02  0.9271793E+01
  0.6401380E+01  0.1545430E+02 -0.1027320E+00  0.1275806E+02 -0.7624868E+00 -0.9225615E+01  0.8812269E+01
  0.4855770E+01  0.1600730E+02 -0.1027320E+00  0.1097140E+02 -0.8044288E+00 -0.7608918E+01  0.7904177E+01
  0.3263390E+01  0.1640620E+02 -0.1027320E+00  0.8166718E+01 -0.8350931E+00 -0.5480755E+01  0.6054470E+01
  0.1639590E+01  0.1664710E+02 -0.1027320E+00  0.4170255E+01 -0.8405148E+00 -0.2781891E+01  0.3106784E+01
 -0.7311870E-06  0.1672760E+02 -0.1027320E+00  0.5103995E-04  0.3946610E+00 -0.4711635E-04 -0.1962462E-04
 -0.1639590E+01  0.1664710E+02 -0.1027320E+00  0.4170274E+01  0.2301076E+01  0.2781898E+01 -0.3106804E+01
 -0.3263390E+01  0.1640620E+02 -0.1027320E+00  0.8166735E+01  0.2306500E+01  0.5480768E+01 -0.6054482E+01
 -0.4855770E+01  0.1600730E+02 -0.1027320E+00  0.1097142E+02  0.2337160E+01  0.7608899E+01 -0.7904215E+01
 -0.6401380E+01  0.1545430E+02 -0.1027320E+00  0.1275806E+02  0.2379106E+01  0.9225611E+01 -0.8812269E+01
 -0.7885340E+01  0.1475240E+02 -0.1027320E+00  0.1405542E+02  0.2421228E+01  0.1056357E+02 -0.9271782E+01
 -0.9293360E+01  0.1390850E+02 -0.1027320E+00  0.1514000E+02  0.2458890E+01  0.1174668E+02 -0.9551706E+01
 -0.1061190E+02  0.1293060E+02 -0.1027320E+00  0.1593583E+02  0.2496700E+01  0.1273534E+02 -0.9579226E+01
 -0.1182820E+02  0.1182820E+02 -0.1027320E+00  0.1664435E+02  0.2529711E+01  0.1362454E+02 -0.9560658E+01
 -0.1293060E+02  0.1061190E+02 -0.1027320E+00  0.1718015E+02  0.2561443E+01  0.1436915E+02 -0.9417282E+01
 -0.1390850E+02  0.9293360E+01 -0.1027320E+00  0.1761224E+02  0.2589334E+01  0.1499404E+02 -0.9239581E+01
 -0.1475240E+02  0.7885330E+01 -0.1027320E+00  0.1799801E+02  0.2612001E+01  0.1553253E+02 -0.9092251E+01
 -0.1545430E+02  0.6401370E+01 -0.1027320E+00  0.1833617E+02  0.2629414E+01  0.1598325E+02 -0.8986154E+01
 -0.1600730E+02  0.4855770E+01 -0.1027320E+00  0.1863477E+02  0.2641453E+01  0.1635229E+02 -0.8936274E+01
 -0.1640620E+02  0.3263390E+01 -0.1027320E+00  0.1884670E+02  0.2650345E+01  0.1661798E+02 -0.8890479E+01
 -0.1664710E+02  0.1639590E+01 -0.1027320E+00  0.1897190E+02  0.2655977E+01  0.1677851E+02 -0.8855193E+01
 -0.1672760E+02 -0.1462370E-05 -0.1027320E+00  0.1900923E+02  0.2658200E+01  0.1683121E+02 -0.8835226E+01
 -0.1664710E+02 -0.1639590E+01 -0.1027320E+00  0.1897190E+02  0.2655977E+01  0.1677852E+02 -0.8855190E+01
 -0.1640620E+02 -0.3263400E+01 -0.1027320E+00  0.1884668E+02  0.2650346E+01  0.1661798E+02 -0.8890451E+01
 -0.1600730E+02 -0.4855770E+01 -0.1027320E+00  0.1863477E+02  0.2641453E+01  0.1635230E+02 -0.8936264E+01
 -0.1545430E+02 -0.6401380E+01 -0.1027320E+00  0.1833618E+02  0.2629414E+01  0.1598326E+02 -0.8986150E+01
 -0.1475240E+02 -0.7885340E+01 -0.1027320E+00  0.1799803E+02  0.2612002E+01  0.1553255E+02 -0.9092251E+01
 -0.1390850E+02 -0.9293360E+01 -0.1027320E+00  0.1761222E+02  0.2589334E+01  0.1499402E+02 -0.9239567E+01
 -0.1293060E+02 -0.1061190E+02 -0.1027320E+00  0.1718014E+02  0.2561444E+01  0.1436915E+02 -0.9417263E+01
 -0.1182820E+02 -0.1182820E+02 -0.1027320E+00  0.1664436E+02  0.2529712E+01  0.1362456E+02 -0.9560654E+01
 -0.1061190E+02 -0.1293060E+02 -0.1027320E+00  0.1593583E+02  0.2496701E+01  0.1273535E+02 -0.9579221E+01
 -0.9293350E+01 -0.1390850E+02 -0.1027320E+00  0.1513997E+02  0.2458887E+01  0.1174663E+02 -0.9551722E+01
 -0.7885340E+01 -0.1475240E+02 -0.1027320E+00  0.1405540E+02  0.2421227E+01  0.1056354E+02 -0.9271788E+01
 -0.6401370E+01 -0.1545430E+02 -0.1027320E+00  0.1275803E+02  0.2379104E+01  0.9225582E+01 -0.8812263E+01
 -0.4855760E+01 -0.1600730E+02 -0.1027320E+00  0.1097139E+02  0.2337158E+01  0.7608862E+01 -0.7904215E+01
 -0.3263390E+01 -0.1640620E+02 -0.1027320E+00  0.8166714E+01  0.2306501E+01  0.5480763E+01 -0.6054457E+01
 -0.1639590E+01 -0.1664710E+02 -0.1027320E+00  0.4170262E+01  0.2301079E+01  0.2781900E+01 -0.3106786E+01
  0.1994750E-06 -0.1672760E+02 -0.1027320E+00  0.4367900E-04  0.2776722E-01 -0.4366216E-04 -0.1212689E-05
  0.1639600E+01 -0.1664710E+02 -0.1027320E+00  0.4170301E+01 -0.8405179E+00 -0.2781913E+01  0.3106827E+01
  0.3263390E+01 -0.1640620E+02 -0.1027320E+00  0.8166715E+01 -0.8350928E+00 -0.5480755E+01  0.6054466E+01
  0.4855770E+01 -0.1600730E+02 -0.1027320E+00  0.1097139E+02 -0.8044310E+00 -0.7608889E+01  0.7904182E+01
  0.6401380E+01 -0.1545430E+02 -0.1027320E+00  0.1275808E+02 -0.7624873E+00 -0.9225623E+01  0.8812286E+01
  0.7885340E+01 -0.1475240E+02 -0.1027320E+00  0.1405541E+02 -0.7203668E+00 -0.1056354E+02  0.9271799E+01
  0.9293360E+01 -0.1390850E+02 -0.1027320E+00  0.1514004E+02 -0.6827062E+00 -0.1174668E+02  0.9551777E+01
  0.1061190E+02 -0.1293060E+02 -0.1027320E+00  0.1593589E+02 -0.6448903E+00 -0.1273542E+02  0.9579235E+01
  0.1182820E+02 -0.1182820E+02 -0.1027320E+00  0.1664437E+02 -0.6118814E+00 -0.1362456E+02  0.9560667E+01
  0.1293060E+02 -0.1061190E+02 -0.1027320E+00  0.1718009E+02 -0.5801523E+00 -0.1436907E+02  0.9417288E+01
  0.1390850E+02 -0.9293360E+01 -0.1027320E+00  0.1761217E+02 -0.5522599E+00 -0.1499397E+02  0.9239565E+01
