 VARIABLES="X" "Y" "Z" "abs(eta) (m)" "angle(phi) (rad)" "PRE1" "PRE2"
ZONE N=   3200 ,E =    3136 ,F=FEPOINT,ET=QUADRILATERAL
  0.1672760E+02  0.0000000E+00  0.0000000E+00  0.5893859E-01 -0.2738726E+01  0.5422002E-01  0.2310729E-01
  0.1664710E+02  0.1639590E+01  0.0000000E+00  0.5506925E-01 -0.2659586E+01  0.4879501E-01  0.2552781E-01
  0.1640620E+02  0.3263390E+01  0.0000000E+00  0.5168433E-01 -0.2568935E+01  0.4343881E-01  0.2800608E-01
  0.1600730E+02  0.4855770E+01  0.0000000E+00  0.4910685E-01 -0.2466753E+01  0.3834299E-01  0.3068059E-01
  0.1545430E+02  0.6401380E+01  0.0000000E+00  0.4780200E-01 -0.2357152E+01  0.3383349E-01  0.3376873E-01
  0.1475240E+02  0.7885340E+01  0.0000000E+00  0.4707766E-01 -0.2244965E+01  0.2938815E-01  0.3677829E-01
  0.1390850E+02  0.9293360E+01  0.0000000E+00  0.4711322E-01 -0.2131557E+01  0.2505626E-01  0.3989786E-01
  0.1293060E+02  0.1061190E+02  0.0000000E+00  0.4817861E-01 -0.2023973E+01  0.2109375E-01  0.4331550E-01
  0.1182820E+02  0.1182820E+02  0.0000000E+00  0.5145013E-01 -0.1936580E+01  0.1840275E-01  0.4804638E-01
  0.1061190E+02  0.1293060E+02  0.0000000E+00  0.5653764E-01 -0.1865507E+01  0.1642211E-01  0.5410008E-01
  0.9293360E+01  0.1390850E+02  0.0000000E+00  0.6272674E-01 -0.1810943E+01  0.1491923E-01  0.6092668E-01
  0.7885330E+01  0.1475240E+02  0.0000000E+00  0.7213318E-01 -0.1781231E+01  0.1506753E-01  0.7054193E-01
  0.6401380E+01  0.1545430E+02  0.0000000E+00  0.8476251E-01 -0.1777057E+01  0.1735949E-01  0.8296584E-01
  0.4855770E+01  0.1600730E+02  0.0000000E+00  0.1040840E+00 -0.1804338E+01  0.2408754E-01  0.1012584E+00
  0.3263390E+01  0.1640620E+02  0.0000000E+00  0.1350887E+00 -0.1853703E+01  0.3770977E-01  0.1297187E+00
  0.1639590E+01  0.1664710E+02  0.0000000E+00  0.1755545E+00 -0.1893241E+01  0.5563073E-01  0.1665071E+00
 -0.7311870E-06  0.1672760E+02  0.0000000E+00  0.1993693E+00 -0.1862547E+01  0.5734442E-01  0.1909443E+00
 -0.1639590E+01  0.1664710E+02  0.0000000E+00  0.2029975E+00 -0.1759835E+01  0.3814619E-01  0.1993812E+00
 -0.3263390E+01  0.1640620E+02  0.0000000E+00  0.1946402E+00 -0.1580146E+01  0.1819875E-02  0.1946317E+00
 -0.4855770E+01  0.1600730E+02  0.0000000E+00  0.1899179E+00 -0.1411072E+01 -0.3020560E-01  0.1875005E+00
 -0.6401380E+01  0.1545430E+02  0.0000000E+00  0.1886379E+00 -0.1278847E+01 -0.5429375E-01  0.1806556E+00
 -0.7885340E+01  0.1475240E+02  0.0000000E+00  0.1892722E+00 -0.1175816E+01 -0.7283001E-01  0.1746990E+00
 -0.9293360E+01  0.1390850E+02  0.0000000E+00  0.1908190E+00 -0.1091459E+01 -0.8800413E-01  0.1693138E+00
 -0.1061190E+02  0.1293060E+02  0.0000000E+00  0.1920798E+00 -0.1020810E+01 -0.1003953E+00  0.1637541E+00
 -0.1182820E+02  0.1182820E+02  0.0000000E+00  0.1934130E+00 -0.9579743E+00 -0.1112470E+00  0.1582173E+00
 -0.1293060E+02  0.1061190E+02  0.0000000E+00  0.1942397E+00 -0.9027361E+00 -0.1203246E+00  0.1524830E+00
 -0.1390850E+02  0.9293360E+01  0.0000000E+00  0.1945917E+00 -0.8596935E+00 -0.1270041E+00  0.1474309E+00
 -0.1475240E+02  0.7885330E+01  0.0000000E+00  0.1946237E+00 -0.8237171E+00 -0.1322466E+00  0.1427909E+00
 -0.1545430E+02  0.6401370E+01  0.0000000E+00  0.1943673E+00 -0.7935210E+00 -0.1363175E+00  0.1385503E+00
 -0.1600730E+02  0.4855770E+01  0.0000000E+00  0.1937786E+00 -0.7686830E+00 -0.1392933E+00  0.1347128E+00
 -0.1640620E+02  0.3263390E+01  0.0000000E+00  0.1923823E+00 -0.7509022E+00 -0.1406456E+00  0.1312622E+00
 -0.1664710E+02  0.1639590E+01  0.0000000E+00  0.1901638E+00 -0.7385516E+00 -0.1406155E+00  0.1280216E+00
 -0.1672760E+02 -0.1462370E-05  0.0000000E+00  0.1870848E+00 -0.7309868E+00 -0.1392876E+00  0.1248987E+00
 -0.1664710E+02 -0.1639590E+01  0.0000000E+00  0.1834442E+00 -0.7287099E+00 -0.1368556E+00  0.1221569E+00
 -0.1640620E+02 -0.3263400E+01  0.0000000E+00  0.1789229E+00 -0.7320896E+00 -0.1330791E+00  0.1195966E+00
 -0.1600730E+02 -0.4855770E+01  0.0000000E+00  0.1733631E+00 -0.7409958E+00 -0.1279068E+00  0.1170241E+00
 -0.1545430E+02 -0.6401380E+01  0.0000000E+00  0.1664636E+00 -0.7553636E+00 -0.1211892E+00  0.1141197E+00
 -0.1475240E+02 -0.7885340E+01  0.0000000E+00  0.1593408E+00 -0.7758080E+00 -0.1137463E+00  0.1115853E+00
 -0.1390850E+02 -0.9293360E+01  0.0000000E+00  0.1518724E+00 -0.8026993E+00 -0.1055161E+00  0.1092318E+00
 -0.1293060E+02 -0.1061190E+02  0.0000000E+00  0.1436860E+00 -0.8370138E+00 -0.9622414E-01  0.1067079E+00
 -0.1182820E+02 -0.1182820E+02  0.0000000E+00  0.1331758E+00 -0.8820608E+00 -0.8464140E-01  0.1028184E+00
 -0.1061190E+02 -0.1293060E+02  0.0000000E+00  0.1206928E+00 -0.9409253E+00 -0.7109293E-01  0.9753225E-01
 -0.9293350E+01 -0.1390850E+02  0.0000000E+00  0.1074017E+00 -0.1017933E+01 -0.5639941E-01  0.9140145E-01
 -0.7885340E+01 -0.1475240E+02  0.0000000E+00  0.9073873E-01 -0.1136112E+01 -0.3821227E-01  0.8230030E-01
 -0.6401370E+01 -0.1545430E+02  0.0000000E+00  0.7204345E-01 -0.1338645E+01 -0.1657517E-01  0.7011078E-01
 -0.4855760E+01 -0.1600730E+02  0.0000000E+00  0.5308867E-01 -0.1806474E+01  0.1239632E-01  0.5162109E-01
 -0.3263390E+01 -0.1640620E+02  0.0000000E+00  0.5847765E-01 -0.2748192E+01  0.5401058E-01  0.2241634E-01
 -0.1639590E+01 -0.1664710E+02  0.0000000E+00  0.1071817E+00  0.2997890E+01  0.1060769E+00 -0.1534938E-01
  0.1994750E-06 -0.1672760E+02  0.0000000E+00  0.1463955E+00  0.2866864E+01  0.1409055E+00 -0.3971505E-01
  0.1639600E+01 -0.1664710E+02  0.0000000E+00  0.1595565E+00  0.2843506E+01  0.1525201E+00 -0.4686041E-01
  0.3263390E+01 -0.1640620E+02  0.0000000E+00  0.1494879E+00  0.2871650E+01  0.1440743E+00 -0.3986492E-01
  0.4855770E+01 -0.1600730E+02  0.0000000E+00  0.1365808E+00  0.2912668E+01  0.1330175E+00 -0.3099426E-01
  0.6401380E+01 -0.1545430E+02  0.0000000E+00  0.1260200E+00  0.2956404E+01  0.1238653E+00 -0.2320436E-01
  0.7885340E+01 -0.1475240E+02  0.0000000E+00  0.1179538E+00  0.2997458E+01  0.1167307E+00 -0.1694236E-01
  0.9293360E+01 -0.1390850E+02  0.0000000E+00  0.1113842E+00  0.3036341E+01  0.1107678E+00 -0.1170174E-01
  0.1061190E+02 -0.1293060E+02  0.0000000E+00  0.1051096E+00  0.3078291E+01  0.1048991E+00 -0.6649114E-02
  0.1182820E+02 -0.1182820E+02  0.0000000E+00  0.9899920E-01  0.3122824E+01  0.9898177E-01 -0.1857943E-02
  0.1293060E+02 -0.1061190E+02  0.0000000E+00  0.9278457E-01 -0.3110218E+01  0.9273890E-01  0.2910585E-02
  0.1390850E+02 -0.9293360E+01  0.0000000E+00  0.8740368E-01 -0.3065102E+01  0.8714812E-01  0.6679011E-02
  0.1475240E+02 -0.7885330E+01  0.0000000E+00  0.8232553E-01 -0.3020199E+01  0.8171967E-01  0.9969303E-02
  0.1545430E+02 -0.6401380E+01  0.0000000E+00  0.7724126E-01 -0.2972034E+01  0.7613357E-01  0.1303424E-01
  0.1600730E+02 -0.4855760E+01  0.0000000E+00  0.7220726E-01 -0.2919897E+01  0.7044005E-01  0.1587724E-01
  0.1640620E+02 -0.3263390E+01  0.0000000E+00  0.6748486E-01 -0.2866222E+01  0.6494232E-01  0.1834939E-01
  0.1664710E+02 -0.1639590E+01  0.0000000E+00  0.6303723E-01 -0.2806897E+01  0.5953931E-01  0.2070659E-01
  0.1672760E+02  0.0000000E+00 -0.2568960E-01  0.5884597E-01 -0.2738803E+01  0.5413659E-01  0.2306682E-01
  0.1664710E+02  0.1639590E+01 -0.2568960E-01  0.5498234E-01 -0.2659680E+01  0.4872041E-01  0.2548293E-01
  0.1640620E+02  0.3263390E+01 -0.2568960E-01  0.5160242E-01 -0.2569069E+01  0.4337371E-01  0.2795587E-01
  0.1600730E+02  0.4855770E+01 -0.2568960E-01  0.4902779E-01 -0.2466928E+01  0.3828662E-01  0.3062449E-01
  0.1545430E+02  0.6401380E+01 -0.2568960E-01  0.4772115E-01 -0.2357360E+01  0.3378325E-01  0.3370461E-01
  0.1475240E+02  0.7885340E+01 -0.2568960E-01  0.4699695E-01 -0.2245157E+01  0.2934482E-01  0.3670960E-01
  0.1390850E+02  0.9293360E+01 -0.2568960E-01  0.4703514E-01 -0.2131756E+01  0.2502264E-01  0.3982678E-01
  0.1293060E+02  0.1061190E+02 -0.2568960E-01  0.4810286E-01 -0.2024156E+01  0.2106847E-01  0.4324355E-01
  0.1182820E+02  0.1182820E+02 -0.2568960E-01  0.5136618E-01 -0.1936723E+01  0.1837957E-01  0.4796536E-01
  0.1061190E+02  0.1293060E+02 -0.2568960E-01  0.5644195E-01 -0.1865625E+01  0.1640065E-01  0.5400660E-01
  0.9293360E+01  0.1390850E+02 -0.2568960E-01  0.6262632E-01 -0.1811077E+01  0.1490350E-01  0.6082715E-01
  0.7885330E+01  0.1475240E+02 -0.2568960E-01  0.7201270E-01 -0.1781353E+01  0.1505095E-01  0.7042228E-01
  0.6401380E+01  0.1545430E+02 -0.2568960E-01  0.8462716E-01 -0.1777203E+01  0.1734382E-01  0.8283084E-01
  0.4855770E+01  0.1600730E+02 -0.2568960E-01  0.1039157E+00 -0.1804444E+01  0.2405933E-01  0.1010921E+00
  0.3263390E+01  0.1640620E+02 -0.2568960E-01  0.1348789E+00 -0.1853850E+01  0.3767020E-01  0.1295117E+00
  0.1639590E+01  0.1664710E+02 -0.2568960E-01  0.1752788E+00 -0.1893333E+01  0.5555879E-01  0.1662404E+00
 -0.7311870E-06  0.1672760E+02 -0.2568960E-01  0.1990682E+00 -0.1862665E+01  0.5728031E-01  0.1906492E+00
 -0.1639590E+01  0.1664710E+02 -0.2568960E-01  0.2026829E+00 -0.1759913E+01  0.3810271E-01  0.1990692E+00
 -0.3263390E+01  0.1640620E+02 -0.2568960E-01  0.1943400E+00 -0.1580256E+01  0.1838436E-02  0.1943313E+00
 -0.4855770E+01  0.1600730E+02 -0.2568960E-01  0.1896141E+00 -0.1411132E+01 -0.3014613E-01  0.1872023E+00
 -0.6401380E+01  0.1545430E+02 -0.2568960E-01  0.1883346E+00 -0.1278914E+01 -0.5419424E-01  0.1803688E+00
 -0.7885340E+01  0.1475240E+02 -0.2568960E-01  0.1889676E+00 -0.1175865E+01 -0.7270434E-01  0.1744214E+00
 -0.9293360E+01  0.1390850E+02 -0.2568960E-01  0.1905080E+00 -0.1091500E+01 -0.8785368E-01  0.1690415E+00
 -0.1061190E+02  0.1293060E+02 -0.2568960E-01  0.1917681E+00 -0.1020832E+01 -0.1002288E+00  0.1634906E+00
 -0.1182820E+02  0.1182820E+02 -0.2568960E-01  0.1930984E+00 -0.9580010E+00 -0.1110618E+00  0.1579629E+00
 -0.1293060E+02  0.1061190E+02 -0.2568960E-01  0.1939245E+00 -0.9027846E+00 -0.1201219E+00  0.1522414E+00
 -0.1390850E+02  0.9293360E+01 -0.2568960E-01  0.1942785E+00 -0.8597304E+00 -0.1267942E+00  0.1471983E+00
 -0.1475240E+02  0.7885330E+01 -0.2568960E-01  0.1943116E+00 -0.8237439E+00 -0.1320307E+00  0.1425655E+00
 -0.1545430E+02  0.6401370E+01 -0.2568960E-01  0.1940561E+00 -0.7935435E+00 -0.1360962E+00  0.1383315E+00
 -0.1600730E+02  0.4855770E+01 -0.2568960E-01  0.1934666E+00 -0.7687123E+00 -0.1390650E+00  0.1345000E+00
 -0.1640620E+02  0.3263390E+01 -0.2568960E-01  0.1920714E+00 -0.7509286E+00 -0.1404149E+00  0.1310538E+00
 -0.1664710E+02  0.1639590E+01 -0.2568960E-01  0.1898567E+00 -0.7385730E+00 -0.1403857E+00  0.1278179E+00
 -0.1672760E+02 -0.1462370E-05 -0.2568960E-01  0.1867833E+00 -0.7310078E+00 -0.1390605E+00  0.1247003E+00
 -0.1664710E+02 -0.1639590E+01 -0.2568960E-01  0.1831493E+00 -0.7287315E+00 -0.1366330E+00  0.1219635E+00
 -0.1640620E+02 -0.3263400E+01 -0.2568960E-01  0.1786361E+00 -0.7321142E+00 -0.1328629E+00  0.1194082E+00
 -0.1600730E+02 -0.4855770E+01 -0.2568960E-01  0.1730880E+00 -0.7410261E+00 -0.1277002E+00  0.1168422E+00
 -0.1545430E+02 -0.6401380E+01 -0.2568960E-01  0.1662040E+00 -0.7553911E+00 -0.1209971E+00  0.1139450E+00
 -0.1475240E+02 -0.7885340E+01 -0.2568960E-01  0.1590929E+00 -0.7758352E+00 -0.1135663E+00  0.1114147E+00
 -0.1390850E+02 -0.9293360E+01 -0.2568960E-01  0.1516318E+00 -0.8027288E+00 -0.1053457E+00  0.1090619E+00
 -0.1293060E+02 -0.1061190E+02 -0.2568960E-01  0.1434514E+00 -0.8370517E+00 -0.9606298E-01  0.1065373E+00
 -0.1182820E+02 -0.1182820E+02 -0.2568960E-01  0.1329612E+00 -0.8820956E+00 -0.8450146E-01  0.1026557E+00
 -0.1061190E+02 -0.1293060E+02 -0.2568960E-01  0.1205022E+00 -0.9409592E+00 -0.7097737E-01  0.9738065E-01
 -0.9293350E+01 -0.1390850E+02 -0.2568960E-01  0.1072252E+00 -0.1017993E+01 -0.5630127E-01  0.9125461E-01
 -0.7885340E+01 -0.1475240E+02 -0.2568960E-01  0.9059612E-01 -0.1136152E+01 -0.3814891E-01  0.8217248E-01
 -0.6401370E+01 -0.1545430E+02 -0.2568960E-01  0.7192527E-01 -0.1338768E+01 -0.1653937E-01  0.6999781E-01
 -0.4855760E+01 -0.1600730E+02 -0.2568960E-01  0.5300670E-01 -0.1806575E+01  0.1238240E-01  0.5154015E-01
 -0.3263390E+01 -0.1640620E+02 -0.2568960E-01  0.5839554E-01 -0.2748364E+01  0.5393861E-01  0.2237556E-01
 -0.1639590E+01 -0.1664710E+02 -0.2568960E-01  0.1070228E+00  0.2997873E+01  0.1059194E+00 -0.1532838E-01
  0.1994750E-06 -0.1672760E+02 -0.2568960E-01  0.1461913E+00  0.2866816E+01  0.1407070E+00 -0.3966637E-01
  0.1639600E+01 -0.1664710E+02 -0.2568960E-01  0.1593240E+00  0.2843480E+01  0.1522966E+00 -0.4679603E-01
  0.3263390E+01 -0.1640620E+02 -0.2568960E-01  0.1492781E+00  0.2871599E+01  0.1438702E+00 -0.3981621E-01
  0.4855770E+01 -0.1600730E+02 -0.2568960E-01  0.1363749E+00  0.2912657E+01  0.1328167E+00 -0.3094905E-01
  0.6401380E+01 -0.1545430E+02 -0.2568960E-01  0.1258317E+00  0.2956379E+01  0.1236796E+00 -0.2317270E-01
  0.7885340E+01 -0.1475240E+02 -0.2568960E-01  0.1177767E+00  0.2997435E+01  0.1165550E+00 -0.1691967E-01
  0.9293360E+01 -0.1390850E+02 -0.2568960E-01  0.1112129E+00  0.3036335E+01  0.1105974E+00 -0.1168446E-01
  0.1061190E+02 -0.1293060E+02 -0.2568960E-01  0.1049473E+00  0.3078285E+01  0.1047370E+00 -0.6639489E-02
  0.1182820E+02 -0.1182820E+02 -0.2568960E-01  0.9884621E-01  0.3122813E+01  0.9882879E-01 -0.1856220E-02
  0.1293060E+02 -0.1061190E+02 -0.2568960E-01  0.9264485E-01 -0.3110273E+01  0.9259941E-01  0.2901172E-02
  0.1390850E+02 -0.9293360E+01 -0.2568960E-01  0.8727233E-01 -0.3065173E+01  0.8701762E-01  0.6662832E-02
  0.1475240E+02 -0.7885330E+01 -0.2568960E-01  0.8220084E-01 -0.3020272E+01  0.8159664E-01  0.9948256E-02
  0.1545430E+02 -0.6401380E+01 -0.2568960E-01  0.7712411E-01 -0.2972114E+01  0.7601914E-01  0.1300842E-01
  0.1600730E+02 -0.4855760E+01 -0.2568960E-01  0.7209738E-01 -0.2919984E+01  0.7033424E-01  0.1584695E-01
  0.1640620E+02 -0.3263390E+01 -0.2568960E-01  0.6738164E-01 -0.2866302E+01  0.6484447E-01  0.1831610E-01
  0.1664710E+02 -0.1639590E+01 -0.2568960E-01  0.6293958E-01 -0.2806964E+01  0.5944847E-01  0.2067052E-01
  0.1672760E+02  0.0000000E+00 -0.1027320E+00  0.5856691E-01 -0.2739110E+01  0.5388689E-01  0.2294090E-01
  0.1664710E+02  0.1639590E+01 -0.1027320E+00  0.5472030E-01 -0.2660042E+01  0.4849738E-01  0.2534394E-01
  0.1640620E+02  0.3263390E+01 -0.1027320E+00  0.5135481E-01 -0.2569516E+01  0.4317803E-01  0.2780242E-01
  0.1600730E+02  0.4855770E+01 -0.1027320E+00  0.4878764E-01 -0.2467471E+01  0.3811561E-01  0.3045380E-01
  0.1545430E+02  0.6401380E+01 -0.1027320E+00  0.4747563E-01 -0.2357979E+01  0.3363018E-01  0.3351039E-01
  0.1475240E+02  0.7885340E+01 -0.1027320E+00  0.4675284E-01 -0.2245764E+01  0.2921453E-01  0.3650121E-01
  0.1390850E+02  0.9293360E+01 -0.1027320E+00  0.4679839E-01 -0.2132325E+01  0.2491922E-01  0.3961213E-01
  0.1293060E+02  0.1061190E+02 -0.1027320E+00  0.4787526E-01 -0.2024699E+01  0.2099216E-01  0.4302755E-01
  0.1182820E+02  0.1182820E+02 -0.1027320E+00  0.5111428E-01 -0.1937104E+01  0.1830765E-01  0.4772315E-01
  0.1061190E+02  0.1293060E+02 -0.1027320E+00  0.5615493E-01 -0.1865933E+01  0.1633384E-01  0.5372692E-01
  0.9293360E+01  0.1390850E+02 -0.1027320E+00  0.6232631E-01 -0.1811455E+01  0.1485498E-01  0.6053015E-01
  0.7885330E+01  0.1475240E+02 -0.1027320E+00  0.7165301E-01 -0.1781699E+01  0.1500003E-01  0.7006534E-01
  0.6401380E+01  0.1545430E+02 -0.1027320E+00  0.8422321E-01 -0.1777608E+01  0.1729440E-01  0.8242847E-01
  0.4855770E+01  0.1600730E+02 -0.1027320E+00  0.1034137E+00 -0.1804744E+01  0.2397327E-01  0.1005966E+00
  0.3263390E+01  0.1640620E+02 -0.1027320E+00  0.1342464E+00 -0.1854245E+01  0.3754442E-01  0.1288895E+00
  0.1639590E+01  0.1664710E+02 -0.1027320E+00  0.1744604E+00 -0.1893610E+01  0.5534521E-01  0.1654489E+00
 -0.7311870E-06  0.1672760E+02 -0.1027320E+00  0.1981678E+00 -0.1862991E+01  0.5708316E-01  0.1897683E+00
 -0.1639590E+01  0.1664710E+02 -0.1027320E+00  0.2017449E+00 -0.1760155E+01  0.3797431E-01  0.1981387E+00
 -0.3263390E+01  0.1640620E+02 -0.1027320E+00  0.1934450E+00 -0.1580549E+01  0.1886678E-02  0.1934358E+00
 -0.4855770E+01  0.1600730E+02 -0.1027320E+00  0.1887075E+00 -0.1411294E+01 -0.2997190E-01  0.1863122E+00
 -0.6401380E+01  0.1545430E+02 -0.1027320E+00  0.1874330E+00 -0.1279100E+01 -0.5390143E-01  0.1795154E+00
 -0.7885340E+01  0.1475240E+02 -0.1027320E+00  0.1880620E+00 -0.1175997E+01 -0.7233290E-01  0.1735951E+00
 -0.9293360E+01  0.1390850E+02 -0.1027320E+00  0.1895845E+00 -0.1091617E+01 -0.8740808E-01  0.1682323E+00
 -0.1061190E+02  0.1293060E+02 -0.1027320E+00  0.1908430E+00 -0.1020894E+01 -0.9973533E-01  0.1627080E+00
 -0.1182820E+02  0.1182820E+02 -0.1027320E+00  0.1921650E+00 -0.9580801E+00 -0.1105125E+00  0.1572081E+00
 -0.1293060E+02  0.1061190E+02 -0.1027320E+00  0.1929903E+00 -0.9029213E+00 -0.1195225E+00  0.1515243E+00
 -0.1390850E+02  0.9293360E+01 -0.1027320E+00  0.1933508E+00 -0.8598409E+00 -0.1261726E+00  0.1465094E+00
 -0.1475240E+02  0.7885330E+01 -0.1027320E+00  0.1933883E+00 -0.8238253E+00 -0.1313918E+00  0.1418987E+00
 -0.1545430E+02  0.6401370E+01 -0.1027320E+00  0.1931349E+00 -0.7936175E+00 -0.1354399E+00  0.1376849E+00
 -0.1600730E+02  0.4855770E+01 -0.1027320E+00  0.1925442E+00 -0.7687977E+00 -0.1383906E+00  0.1338705E+00
 -0.1640620E+02  0.3263390E+01 -0.1027320E+00  0.1911536E+00 -0.7510030E+00 -0.1397342E+00  0.1304379E+00
 -0.1664710E+02  0.1639590E+01 -0.1027320E+00  0.1889486E+00 -0.7386358E+00 -0.1397063E+00  0.1272153E+00
 -0.1672760E+02 -0.1462370E-05 -0.1027320E+00  0.1858923E+00 -0.7310650E+00 -0.1383901E+00  0.1241134E+00
 -0.1664710E+02 -0.1639590E+01 -0.1027320E+00  0.1822771E+00 -0.7287959E+00 -0.1359745E+00  0.1213914E+00
 -0.1640620E+02 -0.3263400E+01 -0.1027320E+00  0.1777879E+00 -0.7321835E+00 -0.1322238E+00  0.1188504E+00
 -0.1600730E+02 -0.4855770E+01 -0.1027320E+00  0.1722722E+00 -0.7410980E+00 -0.1270900E+00  0.1163006E+00
 -0.1545430E+02 -0.6401380E+01 -0.1027320E+00  0.1654355E+00 -0.7554612E+00 -0.1204297E+00  0.1134266E+00
 -0.1475240E+02 -0.7885340E+01 -0.1027320E+00  0.1583576E+00 -0.7759033E+00 -0.1130338E+00  0.1109075E+00
 -0.1390850E+02 -0.9293360E+01 -0.1027320E+00  0.1509185E+00 -0.8028099E+00 -0.1048413E+00  0.1085573E+00
 -0.1293060E+02 -0.1061190E+02 -0.1027320E+00  0.1427541E+00 -0.8371534E+00 -0.9558529E-01  0.1060292E+00
 -0.1182820E+02 -0.1182820E+02 -0.1027320E+00  0.1323221E+00 -0.8821905E+00 -0.8408558E-01  0.1021702E+00
 -0.1061190E+02 -0.1293060E+02 -0.1027320E+00  0.1199361E+00 -0.9410306E+00 -0.7063700E-01  0.9692819E-01
 -0.9293350E+01 -0.1390850E+02 -0.1027320E+00  0.1066992E+00 -0.1018146E+01 -0.5601118E-01  0.9081560E-01
 -0.7885340E+01 -0.1475240E+02 -0.1027320E+00  0.9017145E-01 -0.1136249E+01 -0.3796218E-01  0.8179098E-01
 -0.6401370E+01 -0.1545430E+02 -0.1027320E+00  0.7157252E-01 -0.1339085E+01 -0.1643618E-01  0.6965972E-01
 -0.4855760E+01 -0.1600730E+02 -0.1027320E+00  0.5275906E-01 -0.1806872E+01  0.1233975E-01  0.5129571E-01
 -0.3263390E+01 -0.1640620E+02 -0.1027320E+00  0.5814082E-01 -0.2748713E+01  0.5371110E-01  0.2225922E-01
 -0.1639590E+01 -0.1664710E+02 -0.1027320E+00  0.1065507E+00  0.2997778E+01  0.1054508E+00 -0.1527074E-01
  0.1994750E-06 -0.1672760E+02 -0.1027320E+00  0.1455762E+00  0.2866661E+01  0.1401089E+00 -0.3952119E-01
  0.1639600E+01 -0.1664710E+02 -0.1027320E+00  0.1586287E+00  0.2843386E+01  0.1516277E+00 -0.4660609E-01
  0.3263390E+01 -0.1640620E+02 -0.1027320E+00  0.1486466E+00  0.2871434E+01  0.1432550E+00 -0.3967147E-01
  0.4855770E+01 -0.1600730E+02 -0.1027320E+00  0.1357568E+00  0.2912599E+01  0.1322129E+00 -0.3081643E-01
  0.6401380E+01 -0.1545430E+02 -0.1027320E+00  0.1252658E+00  0.2956284E+01  0.1231212E+00 -0.2308024E-01
  0.7885340E+01 -0.1475240E+02 -0.1027320E+00  0.1172457E+00  0.2997332E+01  0.1160278E+00 -0.1685528E-01
  0.9293360E+01 -0.1390850E+02 -0.1027320E+00  0.1107004E+00  0.3036283E+01  0.1100871E+00 -0.1163629E-01
  0.1061190E+02 -0.1293060E+02 -0.1027320E+00  0.1044600E+00  0.3078224E+01  0.1042503E+00 -0.6615063E-02
  0.1182820E+02 -0.1182820E+02 -0.1027320E+00  0.9838799E-01  0.3122733E+01  0.9837049E-01 -0.1855417E-02
  0.1293060E+02 -0.1061190E+02 -0.1027320E+00  0.9222659E-01 -0.3110488E+01  0.9218197E-01  0.2868232E-02
  0.1390850E+02 -0.9293360E+01 -0.1027320E+00  0.8687846E-01 -0.3065448E+01  0.8662672E-01  0.6608934E-02
