 VARIABLES="X" "Y" "Z" "abs(eta) (m)" "angle(phi) (rad)" "PRE1" "PRE2"
ZONE N=   3200 ,E =    3136 ,F=FEPOINT,ET=QUADRILATERAL
  0.1530690E+02  0.0000000E+00  0.0000000E+00  0.1027326E+00 -0.1549852E+01 -0.2151452E-02  0.1027100E+00
  0.1523320E+02  0.1500340E+01  0.0000000E+00  0.1050960E+00 -0.1551704E+01 -0.2006366E-02  0.1050768E+00
  0.1501280E+02  0.2986230E+01  0.0000000E+00  0.1074257E+00 -0.1555145E+01 -0.1681247E-02  0.1074126E+00
  0.1464780E+02  0.4443360E+01  0.0000000E+00  0.1095652E+00 -0.1560709E+01 -0.1105237E-02  0.1095596E+00
  0.1414170E+02  0.5857700E+01  0.0000000E+00  0.1115732E+00 -0.1568383E+01 -0.2692600E-03  0.1115729E+00
  0.1349950E+02  0.7215620E+01  0.0000000E+00  0.1135436E+00 -0.1578182E+01  0.8386257E-03  0.1135405E+00
  0.1272720E+02  0.8504060E+01  0.0000000E+00  0.1157057E+00 -0.1590228E+01  0.2248198E-02  0.1156838E+00
  0.1183240E+02  0.9710600E+01  0.0000000E+00  0.1180338E+00 -0.1603747E+01  0.3888610E-02  0.1179697E+00
  0.1082360E+02  0.1082360E+02  0.0000000E+00  0.1204507E+00 -0.1619008E+01  0.5804931E-02  0.1203108E+00
  0.9710590E+01  0.1183240E+02  0.0000000E+00  0.1230458E+00 -0.1637191E+01  0.8163539E-02  0.1227747E+00
  0.8504060E+01  0.1272720E+02  0.0000000E+00  0.1264847E+00 -0.1657777E+01  0.1098790E-01  0.1260066E+00
  0.7215620E+01  0.1349950E+02  0.0000000E+00  0.1302324E+00 -0.1680925E+01  0.1431339E-01  0.1294434E+00
  0.5857700E+01  0.1414170E+02  0.0000000E+00  0.1339208E+00 -0.1706886E+01  0.1816903E-01  0.1326826E+00
  0.4443360E+01  0.1464780E+02  0.0000000E+00  0.1395756E+00 -0.1739069E+01  0.2337607E-01  0.1376042E+00
  0.2986230E+01  0.1501280E+02  0.0000000E+00  0.1483632E+00 -0.1782762E+01  0.3121301E-01  0.1450428E+00
  0.1500340E+01  0.1523320E+02  0.0000000E+00  0.1583812E+00 -0.1855446E+01  0.4447675E-01  0.1520080E+00
 -0.6690860E-06  0.1530690E+02  0.0000000E+00  0.1474344E+00 -0.1890167E+01  0.4628988E-01  0.1399791E+00
 -0.1500340E+01  0.1523320E+02  0.0000000E+00  0.1186849E+00 -0.1925038E+01  0.4116938E-01  0.1113158E+00
 -0.2986230E+01  0.1501280E+02  0.0000000E+00  0.4901890E-01 -0.2059811E+01  0.2302693E-01  0.4327369E-01
 -0.4443360E+01  0.1464780E+02  0.0000000E+00  0.2703708E-01 -0.2306715E+01  0.1814913E-01  0.2004028E-01
 -0.5857700E+01  0.1414170E+02  0.0000000E+00  0.1823612E-01 -0.2702223E+01  0.1650405E-01  0.7757087E-02
 -0.7215620E+01  0.1349950E+02  0.0000000E+00  0.1604745E-01  0.3101934E+01  0.1603484E-01 -0.6362530E-03
 -0.8504060E+01  0.1272720E+02  0.0000000E+00  0.1745962E-01  0.2733322E+01  0.1602459E-01 -0.6931867E-02
 -0.9710590E+01  0.1183240E+02  0.0000000E+00  0.2018375E-01  0.2520655E+01  0.1641611E-01 -0.1174286E-01
 -0.1082360E+02  0.1082360E+02  0.0000000E+00  0.2357877E-01  0.2370083E+01  0.1690266E-01 -0.1643955E-01
 -0.1183240E+02  0.9710590E+01  0.0000000E+00  0.2660166E-01  0.2300537E+01  0.1773471E-01 -0.1982747E-01
 -0.1272720E+02  0.8504060E+01  0.0000000E+00  0.2960694E-01  0.2249987E+01  0.1859801E-01 -0.2303660E-01
 -0.1349950E+02  0.7215620E+01  0.0000000E+00  0.3285318E-01  0.2202411E+01  0.1939811E-01 -0.2651499E-01
 -0.1414170E+02  0.5857690E+01  0.0000000E+00  0.3597752E-01  0.2171427E+01  0.2033316E-01 -0.2968071E-01
 -0.1464780E+02  0.4443360E+01  0.0000000E+00  0.3879317E-01  0.2155954E+01  0.2142665E-01 -0.3233896E-01
 -0.1501280E+02  0.2986230E+01  0.0000000E+00  0.4131078E-01  0.2150821E+01  0.2264014E-01 -0.3455437E-01
 -0.1523320E+02  0.1500340E+01  0.0000000E+00  0.4367175E-01  0.2149877E+01  0.2389956E-01 -0.3655178E-01
 -0.1530690E+02 -0.1338170E-05  0.0000000E+00  0.4609706E-01  0.2147664E+01  0.2514138E-01 -0.3863742E-01
 -0.1523320E+02 -0.1500340E+01  0.0000000E+00  0.4868936E-01  0.2140814E+01  0.2627507E-01 -0.4099115E-01
 -0.1501280E+02 -0.2986230E+01  0.0000000E+00  0.5125890E-01  0.2134979E+01  0.2740945E-01 -0.4331509E-01
 -0.1464780E+02 -0.4443360E+01  0.0000000E+00  0.5369560E-01  0.2132133E+01  0.2858312E-01 -0.4545572E-01
 -0.1414170E+02 -0.5857700E+01  0.0000000E+00  0.5604320E-01  0.2131245E+01  0.2979065E-01 -0.4746954E-01
 -0.1349950E+02 -0.7215620E+01  0.0000000E+00  0.5838487E-01  0.2131444E+01  0.3104527E-01 -0.4944678E-01
 -0.1272720E+02 -0.8504060E+01  0.0000000E+00  0.6093743E-01  0.2131433E+01  0.3240197E-01 -0.5160894E-01
 -0.1183240E+02 -0.9710600E+01  0.0000000E+00  0.6364740E-01  0.2130992E+01  0.3381919E-01 -0.5391896E-01
 -0.1082360E+02 -0.1082360E+02  0.0000000E+00  0.6645221E-01  0.2131066E+01  0.3531368E-01 -0.5629245E-01
 -0.9710600E+01 -0.1183240E+02  0.0000000E+00  0.6947336E-01  0.2132381E+01  0.3699653E-01 -0.5880310E-01
 -0.8504050E+01 -0.1272720E+02  0.0000000E+00  0.7333276E-01  0.2131731E+01  0.3901138E-01 -0.6209514E-01
 -0.7215620E+01 -0.1349950E+02  0.0000000E+00  0.7752096E-01  0.2132455E+01  0.4128695E-01 -0.6561164E-01
 -0.5857690E+01 -0.1414170E+02  0.0000000E+00  0.8168598E-01  0.2136703E+01  0.4379847E-01 -0.6895138E-01
 -0.4443360E+01 -0.1464780E+02  0.0000000E+00  0.8790969E-01  0.2140666E+01  0.4742920E-01 -0.7401746E-01
 -0.2986230E+01 -0.1501280E+02  0.0000000E+00  0.9746981E-01  0.2147636E+01  0.5315786E-01 -0.8169826E-01
 -0.1500340E+01 -0.1523320E+02  0.0000000E+00  0.1084460E+00  0.2176277E+01  0.6172280E-01 -0.8916743E-01
  0.1825330E-06 -0.1530690E+02  0.0000000E+00  0.9740585E-01  0.2225616E+01  0.5932171E-01 -0.7725823E-01
  0.1500340E+01 -0.1523320E+02  0.0000000E+00  0.6928369E-01  0.2366176E+01  0.4947755E-01 -0.4849951E-01
  0.2986230E+01 -0.1501280E+02  0.0000000E+00  0.3162836E-01 -0.2456292E+01  0.2448758E-01  0.2001778E-01
  0.4443360E+01 -0.1464780E+02  0.0000000E+00  0.4641760E-01 -0.1928482E+01  0.1625113E-01  0.4347982E-01
  0.5857700E+01 -0.1414170E+02  0.0000000E+00  0.5715291E-01 -0.1780823E+01  0.1191560E-01  0.5589699E-01
  0.7215620E+01 -0.1349950E+02  0.0000000E+00  0.6500005E-01 -0.1708760E+01  0.8939216E-02  0.6438243E-01
  0.8504060E+01 -0.1272720E+02  0.0000000E+00  0.7105759E-01 -0.1663614E+01  0.6585901E-02  0.7075173E-01
  0.9710600E+01 -0.1183240E+02  0.0000000E+00  0.7576807E-01 -0.1633554E+01  0.4751914E-02  0.7561891E-01
  0.1082360E+02 -0.1082360E+02  0.0000000E+00  0.8041831E-01 -0.1608266E+01  0.3012562E-02  0.8036187E-01
  0.1183240E+02 -0.9710590E+01  0.0000000E+00  0.8380415E-01 -0.1591882E+01  0.1766971E-02  0.8378553E-01
  0.1272720E+02 -0.8504060E+01  0.0000000E+00  0.8702748E-01 -0.1578086E+01  0.6344407E-03  0.8702517E-01
  0.1349950E+02 -0.7215620E+01  0.0000000E+00  0.9053337E-01 -0.1565267E+01 -0.5005506E-03  0.9053198E-01
  0.1414170E+02 -0.5857700E+01  0.0000000E+00  0.9372886E-01 -0.1556053E+01 -0.1381840E-02  0.9371868E-01
  0.1464780E+02 -0.4443350E+01  0.0000000E+00  0.9641084E-01 -0.1550624E+01 -0.1944719E-02  0.9639122E-01
  0.1501280E+02 -0.2986230E+01  0.0000000E+00  0.9863939E-01 -0.1548355E+01 -0.2213455E-02  0.9861455E-01
  0.1523320E+02 -0.1500330E+01  0.0000000E+00  0.1006430E+00 -0.1548377E+01 -0.2256130E-02  0.1006177E+00
  0.1530690E+02  0.0000000E+00 -0.2568960E-01  0.1026540E+00 -0.1549850E+01 -0.2150041E-02  0.1026315E+00
  0.1523320E+02  0.1500340E+01 -0.2568960E-01  0.1050153E+00 -0.1551706E+01 -0.2004677E-02  0.1049961E+00
  0.1501280E+02  0.2986230E+01 -0.2568960E-01  0.1073435E+00 -0.1555150E+01 -0.1679422E-02  0.1073303E+00
  0.1464780E+02  0.4443360E+01 -0.2568960E-01  0.1094823E+00 -0.1560722E+01 -0.1102897E-02  0.1094767E+00
  0.1414170E+02  0.5857700E+01 -0.2568960E-01  0.1114903E+00 -0.1568392E+01 -0.2680341E-03  0.1114900E+00
  0.1349950E+02  0.7215620E+01 -0.2568960E-01  0.1134618E+00 -0.1578191E+01  0.8389941E-03  0.1134587E+00
  0.1272720E+02  0.8504060E+01 -0.2568960E-01  0.1156238E+00 -0.1590235E+01  0.2247487E-02  0.1156020E+00
  0.1183240E+02  0.9710600E+01 -0.2568960E-01  0.1179503E+00 -0.1603758E+01  0.3887099E-02  0.1178862E+00
  0.1082360E+02  0.1082360E+02 -0.2568960E-01  0.1203659E+00 -0.1619023E+01  0.5802556E-02  0.1202260E+00
  0.9710590E+01  0.1183240E+02 -0.2568960E-01  0.1229622E+00 -0.1637203E+01  0.8159472E-02  0.1226912E+00
  0.8504060E+01  0.1272720E+02 -0.2568960E-01  0.1263967E+00 -0.1657782E+01  0.1098090E-01  0.1259189E+00
  0.7215620E+01  0.1349950E+02 -0.2568960E-01  0.1301422E+00 -0.1680930E+01  0.1430403E-01  0.1293537E+00
  0.5857700E+01  0.1414170E+02 -0.2568960E-01  0.1338340E+00 -0.1706903E+01  0.1815950E-01  0.1325963E+00
  0.4443360E+01  0.1464780E+02 -0.2568960E-01  0.1394848E+00 -0.1739081E+01  0.2336247E-01  0.1375143E+00
  0.2986230E+01  0.1501280E+02 -0.2568960E-01  0.1482777E+00 -0.1782786E+01  0.3119847E-01  0.1449584E+00
  0.1500340E+01  0.1523320E+02 -0.2568960E-01  0.1582752E+00 -0.1855439E+01  0.4444592E-01  0.1519066E+00
 -0.6690860E-06  0.1530690E+02 -0.2568960E-01  0.1473266E+00 -0.1890174E+01  0.4625699E-01  0.1398764E+00
 -0.1500340E+01  0.1523320E+02 -0.2568960E-01  0.1185846E+00 -0.1925064E+01  0.4113742E-01  0.1112206E+00
 -0.2986230E+01  0.1501280E+02 -0.2568960E-01  0.4899168E-01 -0.2059837E+01  0.2301527E-01  0.4324907E-01
 -0.4443360E+01  0.1464780E+02 -0.2568960E-01  0.2701296E-01 -0.2306897E+01  0.1813659E-01  0.2001910E-01
 -0.5857700E+01  0.1414170E+02 -0.2568960E-01  0.1822462E-01 -0.2702296E+01  0.1649421E-01  0.7750979E-02
 -0.7215620E+01  0.1349950E+02 -0.2568960E-01  0.1603501E-01  0.3101411E+01  0.1602206E-01 -0.6441373E-03
 -0.8504060E+01  0.1272720E+02 -0.2568960E-01  0.1744928E-01  0.2733122E+01  0.1601372E-01 -0.6930965E-02
 -0.9710590E+01  0.1183240E+02 -0.2568960E-01  0.2017342E-01  0.2520361E+01  0.1640426E-01 -0.1174168E-01
 -0.1082360E+02  0.1082360E+02 -0.2568960E-01  0.2356364E-01  0.2370103E+01  0.1689214E-01 -0.1642865E-01
 -0.1183240E+02  0.9710590E+01 -0.2568960E-01  0.2658611E-01  0.2300430E+01  0.1772221E-01 -0.1981778E-01
 -0.1272720E+02  0.8504060E+01 -0.2568960E-01  0.2959019E-01  0.2249867E+01  0.1858471E-01 -0.2302581E-01
 -0.1349950E+02  0.7215620E+01 -0.2568960E-01  0.3283168E-01  0.2202394E+01  0.1938496E-01 -0.2649797E-01
 -0.1414170E+02  0.5857690E+01 -0.2568960E-01  0.3595055E-01  0.2171490E+01  0.2031978E-01 -0.2965718E-01
 -0.1464780E+02  0.4443360E+01 -0.2568960E-01  0.3876252E-01  0.2156042E+01  0.2141258E-01 -0.3231152E-01
 -0.1501280E+02  0.2986230E+01 -0.2568960E-01  0.4127761E-01  0.2150895E+01  0.2262451E-01 -0.3452496E-01
 -0.1523320E+02  0.1500340E+01 -0.2568960E-01  0.4363751E-01  0.2149939E+01  0.2388310E-01 -0.3652164E-01
 -0.1530690E+02 -0.1338170E-05 -0.2568960E-01  0.4606096E-01  0.2147704E+01  0.2512323E-01 -0.3860615E-01
 -0.1523320E+02 -0.1500340E+01 -0.2568960E-01  0.4865086E-01  0.2140866E+01  0.2625640E-01 -0.4095738E-01
 -0.1501280E+02 -0.2986230E+01 -0.2568960E-01  0.5121797E-01  0.2135027E+01  0.2738962E-01 -0.4327919E-01
 -0.1464780E+02 -0.4443360E+01 -0.2568960E-01  0.5365407E-01  0.2132176E+01  0.2856298E-01 -0.4541934E-01
 -0.1414170E+02 -0.5857700E+01 -0.2568960E-01  0.5600197E-01  0.2131278E+01  0.2977032E-01 -0.4743363E-01
 -0.1349950E+02 -0.7215620E+01 -0.2568960E-01  0.5834411E-01  0.2131458E+01  0.3102427E-01 -0.4941184E-01
 -0.1272720E+02 -0.8504060E+01 -0.2568960E-01  0.6089601E-01  0.2131435E+01  0.3238007E-01 -0.5157378E-01
 -0.1183240E+02 -0.9710600E+01 -0.2568960E-01  0.6360412E-01  0.2130988E+01  0.3379598E-01 -0.5388243E-01
 -0.1082360E+02 -0.1082360E+02 -0.2568960E-01  0.6640735E-01  0.2131073E+01  0.3529023E-01 -0.5625421E-01
 -0.9710600E+01 -0.1183240E+02 -0.2568960E-01  0.6942923E-01  0.2132366E+01  0.3697217E-01 -0.5876629E-01
 -0.8504050E+01 -0.1272720E+02 -0.2568960E-01  0.7328436E-01  0.2131723E+01  0.3898514E-01 -0.6205446E-01
 -0.7215620E+01 -0.1349950E+02 -0.2568960E-01  0.7746950E-01  0.2132446E+01  0.4125896E-01 -0.6556845E-01
 -0.5857690E+01 -0.1414170E+02 -0.2568960E-01  0.8163770E-01  0.2136681E+01  0.4377109E-01 -0.6891158E-01
 -0.4443360E+01 -0.1464780E+02 -0.2568960E-01  0.8785727E-01  0.2140641E+01  0.4739910E-01 -0.7397449E-01
 -0.2986230E+01 -0.1501280E+02 -0.2568960E-01  0.9742263E-01  0.2147602E+01  0.5312936E-01 -0.8166052E-01
 -0.1500340E+01 -0.1523320E+02 -0.2568960E-01  0.1083764E+00  0.2176247E+01  0.6168051E-01 -0.8911200E-01
  0.1825330E-06 -0.1530690E+02 -0.2568960E-01  0.9733498E-01  0.2225626E+01  0.5927932E-01 -0.7720143E-01
  0.1500340E+01 -0.1523320E+02 -0.2568960E-01  0.6922096E-01  0.2366279E+01  0.4943774E-01 -0.4845051E-01
  0.2986230E+01 -0.1501280E+02 -0.2568960E-01  0.3160450E-01 -0.2456559E+01  0.2447446E-01  0.1999614E-01
  0.4443360E+01 -0.1464780E+02 -0.2568960E-01  0.4638916E-01 -0.1928418E+01  0.1623842E-01  0.4345420E-01
  0.5857700E+01 -0.1414170E+02 -0.2568960E-01  0.5711204E-01 -0.1780852E+01  0.1190870E-01  0.5585667E-01
  0.7215620E+01 -0.1349950E+02 -0.2568960E-01  0.6496090E-01 -0.1708724E+01  0.8931502E-02  0.6434397E-01
  0.8504060E+01 -0.1272720E+02 -0.2568960E-01  0.7100969E-01 -0.1663612E+01  0.6581343E-02  0.7070404E-01
  0.9710600E+01 -0.1183240E+02 -0.2568960E-01  0.7572044E-01 -0.1633532E+01  0.4747236E-02  0.7557148E-01
  0.1082360E+02 -0.1082360E+02 -0.2568960E-01  0.8036071E-01 -0.1608279E+01  0.3011444E-02  0.8030427E-01
  0.1183240E+02 -0.9710590E+01 -0.2568960E-01  0.8374793E-01 -0.1591875E+01  0.1765133E-02  0.8372933E-01
  0.1272720E+02 -0.8504060E+01 -0.2568960E-01  0.8697017E-01 -0.1578075E+01  0.6330467E-03  0.8696787E-01
  0.1349950E+02 -0.7215620E+01 -0.2568960E-01  0.9046961E-01 -0.1565279E+01 -0.4991399E-03  0.9046823E-01
  0.1414170E+02 -0.5857700E+01 -0.2568960E-01  0.9365857E-01 -0.1556074E+01 -0.1378859E-02  0.9364842E-01
  0.1464780E+02 -0.4443350E+01 -0.2568960E-01  0.9633656E-01 -0.1550639E+01 -0.1941744E-02  0.9631699E-01
  0.1501280E+02 -0.2986230E+01 -0.2568960E-01  0.9856318E-01 -0.1548362E+01 -0.2210962E-02  0.9853838E-01
  0.1523320E+02 -0.1500330E+01 -0.2568960E-01  0.1005658E+00 -0.1548383E+01 -0.2253832E-02  0.1005405E+00
  0.1530690E+02  0.0000000E+00 -0.1027320E+00  0.1024255E+00 -0.1549844E+01 -0.2145938E-02  0.1024030E+00
  0.1523320E+02  0.1500340E+01 -0.1027320E+00  0.1047794E+00 -0.1551702E+01 -0.2000513E-02  0.1047603E+00
  0.1501280E+02  0.2986230E+01 -0.1027320E+00  0.1071010E+00 -0.1555159E+01 -0.1674680E-02  0.1070879E+00
  0.1464780E+02  0.4443360E+01 -0.1027320E+00  0.1092382E+00 -0.1560735E+01 -0.1099091E-02  0.1092327E+00
  0.1414170E+02  0.5857700E+01 -0.1027320E+00  0.1112477E+00 -0.1568413E+01 -0.2650955E-03  0.1112474E+00
  0.1349950E+02  0.7215620E+01 -0.1027320E+00  0.1132218E+00 -0.1578214E+01  0.8398280E-03  0.1132187E+00
  0.1272720E+02  0.8504060E+01 -0.1027320E+00  0.1153822E+00 -0.1590257E+01  0.2245220E-02  0.1153603E+00
  0.1183240E+02  0.9710600E+01 -0.1027320E+00  0.1177045E+00 -0.1603782E+01  0.3881819E-02  0.1176405E+00
  0.1082360E+02  0.1082360E+02 -0.1027320E+00  0.1201157E+00 -0.1619058E+01  0.5794747E-02  0.1199758E+00
  0.9710590E+01  0.1183240E+02 -0.1027320E+00  0.1227156E+00 -0.1637226E+01  0.8145996E-02  0.1224449E+00
  0.8504060E+01  0.1272720E+02 -0.1027320E+00  0.1261368E+00 -0.1657804E+01  0.1096102E-01  0.1256596E+00
  0.7215620E+01  0.1349950E+02 -0.1027320E+00  0.1298709E+00 -0.1680942E+01  0.1427585E-01  0.1290839E+00
  0.5857700E+01  0.1414170E+02 -0.1027320E+00  0.1335787E+00 -0.1706950E+01  0.1813105E-01  0.1323425E+00
  0.4443360E+01  0.1464780E+02 -0.1027320E+00  0.1392157E+00 -0.1739099E+01  0.2331988E-01  0.1372486E+00
  0.2986230E+01  0.1501280E+02 -0.1027320E+00  0.1480163E+00 -0.1782846E+01  0.3115210E-01  0.1447010E+00
  0.1500340E+01  0.1523320E+02 -0.1027320E+00  0.1579390E+00 -0.1855393E+01  0.4434454E-01  0.1515860E+00
 -0.6690860E-06  0.1530690E+02 -0.1027320E+00  0.1470203E+00 -0.1890190E+01  0.4616298E-01  0.1395849E+00
 -0.1500340E+01  0.1523320E+02 -0.1027320E+00  0.1182684E+00 -0.1925130E+01  0.4103510E-01  0.1109213E+00
 -0.2986230E+01  0.1501280E+02 -0.1027320E+00  0.4891646E-01 -0.2059891E+01  0.2298229E-01  0.4318141E-01
 -0.4443360E+01  0.1464780E+02 -0.1027320E+00  0.2694042E-01 -0.2307412E+01  0.1809818E-01  0.1995602E-01
 -0.5857700E+01  0.1414170E+02 -0.1027320E+00  0.1818950E-01 -0.2702592E+01  0.1646472E-01  0.7731174E-02
 -0.7215620E+01  0.1349950E+02 -0.1027320E+00  0.1600080E-01  0.3100371E+01  0.1598721E-01 -0.6593943E-03
 -0.8504060E+01  0.1272720E+02 -0.1027320E+00  0.1741766E-01  0.2732476E+01  0.1598022E-01 -0.6928734E-02
 -0.9710590E+01  0.1183240E+02 -0.1027320E+00  0.2014317E-01  0.2519412E+01  0.1636853E-01 -0.1173962E-01
 -0.1082360E+02  0.1082360E+02 -0.1027320E+00  0.2351826E-01  0.2370076E+01  0.1685916E-01 -0.1639748E-01
 -0.1183240E+02  0.9710590E+01 -0.1027320E+00  0.2654089E-01  0.2300041E+01  0.1768436E-01 -0.1979096E-01
 -0.1272720E+02  0.8504060E+01 -0.1027320E+00  0.2954144E-01  0.2249420E+01  0.1854383E-01 -0.2299616E-01
 -0.1349950E+02  0.7215620E+01 -0.1027320E+00  0.3276929E-01  0.2202291E+01  0.1934541E-01 -0.2644960E-01
 -0.1414170E+02  0.5857690E+01 -0.1027320E+00  0.3587300E-01  0.2171616E+01  0.2027968E-01 -0.2959065E-01
 -0.1464780E+02  0.4443360E+01 -0.1027320E+00  0.3867339E-01  0.2156244E+01  0.2136985E-01 -0.3223291E-01
 -0.1501280E+02  0.2986230E+01 -0.1027320E+00  0.4118167E-01  0.2151058E+01  0.2257757E-01 -0.3444102E-01
 -0.1523320E+02  0.1500340E+01 -0.1027320E+00  0.4353743E-01  0.2150017E+01  0.2383115E-01 -0.3643603E-01
 -0.1530690E+02 -0.1338170E-05 -0.1027320E+00  0.4595613E-01  0.2147741E+01  0.2506747E-01 -0.3851736E-01
 -0.1523320E+02 -0.1500340E+01 -0.1027320E+00  0.4853881E-01  0.2140928E+01  0.2619848E-01 -0.4086142E-01
 -0.1501280E+02 -0.2986230E+01 -0.1027320E+00  0.5109988E-01  0.2135116E+01  0.2733034E-01 -0.4317697E-01
 -0.1464780E+02 -0.4443360E+01 -0.1027320E+00  0.5353351E-01  0.2132250E+01  0.2850217E-01 -0.4531515E-01
 -0.1414170E+02 -0.5857700E+01 -0.1027320E+00  0.5588184E-01  0.2131307E+01  0.2970782E-01 -0.4733102E-01
 -0.1349950E+02 -0.7215620E+01 -0.1027320E+00  0.5822558E-01  0.2131449E+01  0.3096080E-01 -0.4931173E-01
 -0.1272720E+02 -0.8504060E+01 -0.1027320E+00  0.6077478E-01  0.2131407E+01  0.3231419E-01 -0.5147201E-01
 -0.1183240E+02 -0.9710600E+01 -0.1027320E+00  0.6347836E-01  0.2130970E+01  0.3372818E-01 -0.5377650E-01
 -0.1082360E+02 -0.1082360E+02 -0.1027320E+00  0.6627616E-01  0.2131055E+01  0.3521951E-01 -0.5614369E-01
 -0.9710600E+01 -0.1183240E+02 -0.1027320E+00  0.6930041E-01  0.2132303E+01  0.3689985E-01 -0.5865959E-01
 -0.8504050E+01 -0.1272720E+02 -0.1027320E+00  0.7314129E-01  0.2131687E+01  0.3890685E-01 -0.6193469E-01
 -0.7215620E+01 -0.1349950E+02 -0.1027320E+00  0.7731422E-01  0.2132417E+01  0.4117437E-01 -0.6543821E-01
 -0.5857690E+01 -0.1414170E+02 -0.1027320E+00  0.8149805E-01  0.2136595E+01  0.4369034E-01 -0.6879742E-01
 -0.4443360E+01 -0.1464780E+02 -0.1027320E+00  0.8770151E-01  0.2140550E+01  0.4730837E-01 -0.7384764E-01
 -0.2986230E+01 -0.1501280E+02 -0.1027320E+00  0.9727373E-01  0.2147485E+01  0.5303866E-01 -0.8154189E-01
 -0.1500340E+01 -0.1523320E+02 -0.1027320E+00  0.1081484E+00  0.2176192E+01  0.6154593E-01 -0.8892791E-01
  0.1825330E-06 -0.1530690E+02 -0.1027320E+00  0.9713857E-01  0.2225602E+01  0.5915785E-01 -0.7704706E-01
  0.1500340E+01 -0.1523320E+02 -0.1027320E+00  0.6901810E-01  0.2366692E+01  0.4931278E-01 -0.4828818E-01
  0.2986230E+01 -0.1501280E+02 -0.1027320E+00  0.3153050E-01 -0.2457555E+01  0.2443701E-01  0.1992498E-01
  0.4443360E+01 -0.1464780E+02 -0.1027320E+00  0.4630501E-01 -0.1928233E+01  0.1620094E-01  0.4337838E-01
  0.5857700E+01 -0.1414170E+02 -0.1027320E+00  0.5699036E-01 -0.1780922E+01  0.1188720E-01  0.5573684E-01
  0.7215620E+01 -0.1349950E+02 -0.1027320E+00  0.6483448E-01 -0.1708651E+01  0.8909471E-02  0.6421939E-01
  0.8504060E+01 -0.1272720E+02 -0.1027320E+00  0.7086756E-01 -0.1663597E+01  0.6567109E-02  0.7056262E-01
  0.9710600E+01 -0.1183240E+02 -0.1027320E+00  0.7557806E-01 -0.1633481E+01  0.4734515E-02  0.7542962E-01
  0.1082360E+02 -0.1082360E+02 -0.1027320E+00  0.8019027E-01 -0.1608314E+01  0.3007821E-02  0.8013384E-01
  0.1183240E+02 -0.9710590E+01 -0.1027320E+00  0.8358116E-01 -0.1591856E+01  0.1760048E-02  0.8356262E-01
  0.1272720E+02 -0.8504060E+01 -0.1027320E+00  0.8680084E-01 -0.1578047E+01  0.6293654E-03  0.8679856E-01
