 VARIABLES="X" "Y" "Z" "abs(eta) (m)" "angle(phi) (rad)" "PRE1" "PRE2"
ZONE N=   3200 ,E =    3136 ,F=FEPOINT,ET=QUADRILATERAL
  0.1530690E+02  0.0000000E+00  0.0000000E+00  0.6104414E-01 -0.2832046E+01  0.5814282E-01  0.1859568E-01
  0.1523320E+02  0.1500340E+01  0.0000000E+00  0.5691699E-01 -0.2761934E+01  0.5286400E-01  0.2109362E-01
  0.1501280E+02  0.2986230E+01  0.0000000E+00  0.5327861E-01 -0.2680309E+01  0.4771004E-01  0.2371418E-01
  0.1464780E+02  0.4443360E+01  0.0000000E+00  0.5048108E-01 -0.2589339E+01  0.4297680E-01  0.2648272E-01
  0.1414170E+02  0.5857700E+01  0.0000000E+00  0.4845423E-01 -0.2492038E+01  0.3858667E-01  0.2930668E-01
  0.1349950E+02  0.7215620E+01  0.0000000E+00  0.4668390E-01 -0.2389256E+01  0.3408366E-01  0.3190127E-01
  0.1272720E+02  0.8504060E+01  0.0000000E+00  0.4547822E-01 -0.2286540E+01  0.2984185E-01  0.3431810E-01
  0.1183240E+02  0.9710600E+01  0.0000000E+00  0.4600865E-01 -0.2177340E+01  0.2622637E-01  0.3780176E-01
  0.1082360E+02  0.1082360E+02  0.0000000E+00  0.4914127E-01 -0.2075841E+01  0.2377686E-01  0.4300611E-01
  0.9710590E+01  0.1183240E+02  0.0000000E+00  0.5267188E-01 -0.1989092E+01  0.2139549E-01  0.4813066E-01
  0.8504060E+01  0.1272720E+02  0.0000000E+00  0.5797432E-01 -0.1919417E+01  0.1980415E-01  0.5448685E-01
  0.7215620E+01  0.1349950E+02  0.0000000E+00  0.6628999E-01 -0.1871343E+01  0.1962463E-01  0.6331854E-01
  0.5857700E+01  0.1414170E+02  0.0000000E+00  0.7757942E-01 -0.1858140E+01  0.2198643E-01  0.7439867E-01
  0.4443360E+01  0.1464780E+02  0.0000000E+00  0.9433571E-01 -0.1868617E+01  0.2768164E-01  0.9018289E-01
  0.2986230E+01  0.1501280E+02  0.0000000E+00  0.1276627E+00 -0.1930622E+01  0.4495139E-01  0.1194870E+00
  0.1500340E+01  0.1523320E+02  0.0000000E+00  0.2241331E+00 -0.2042819E+01  0.1019108E+00  0.1996242E+00
 -0.6690860E-06  0.1530690E+02  0.0000000E+00  0.2532588E+00 -0.2012187E+01  0.1081914E+00  0.2289861E+00
 -0.1500340E+01  0.1523320E+02  0.0000000E+00  0.2515732E+00 -0.1918747E+01  0.8577936E-01  0.2364973E+00
 -0.2986230E+01  0.1501280E+02  0.0000000E+00  0.2155546E+00 -0.1611910E+01  0.8859776E-02  0.2153724E+00
 -0.4443360E+01  0.1464780E+02  0.0000000E+00  0.2049593E+00 -0.1432764E+01 -0.2820135E-01  0.2030099E+00
 -0.5857700E+01  0.1414170E+02  0.0000000E+00  0.2019642E+00 -0.1312838E+01 -0.5152246E-01  0.1952818E+00
 -0.7215620E+01  0.1349950E+02  0.0000000E+00  0.2007529E+00 -0.1214430E+01 -0.7003698E-01  0.1881398E+00
 -0.8504060E+01  0.1272720E+02  0.0000000E+00  0.2014062E+00 -0.1136365E+01 -0.8477072E-01  0.1826975E+00
 -0.9710590E+01  0.1183240E+02  0.0000000E+00  0.2018605E+00 -0.1070343E+01 -0.9685732E-01  0.1771054E+00
 -0.1082360E+02  0.1082360E+02  0.0000000E+00  0.2022179E+00 -0.1012865E+01 -0.1070607E+00  0.1715520E+00
 -0.1183240E+02  0.9710590E+01  0.0000000E+00  0.2027753E+00 -0.9605004E+00 -0.1162126E+00  0.1661700E+00
 -0.1272720E+02  0.8504060E+01  0.0000000E+00  0.2026221E+00 -0.9176979E+00 -0.1231234E+00  0.1609235E+00
 -0.1349950E+02  0.7215620E+01  0.0000000E+00  0.2018483E+00 -0.8828366E+00 -0.1281661E+00  0.1559365E+00
 -0.1414170E+02  0.5857690E+01  0.0000000E+00  0.2010603E+00 -0.8546760E+00 -0.1319887E+00  0.1516715E+00
 -0.1464780E+02  0.4443360E+01  0.0000000E+00  0.1999840E+00 -0.8304915E+00 -0.1348918E+00  0.1476408E+00
 -0.1501280E+02  0.2986230E+01  0.0000000E+00  0.1983244E+00 -0.8120618E+00 -0.1364479E+00  0.1439255E+00
 -0.1523320E+02  0.1500340E+01  0.0000000E+00  0.1958923E+00 -0.7994936E+00 -0.1365507E+00  0.1404554E+00
 -0.1530690E+02 -0.1338170E-05  0.0000000E+00  0.1929785E+00 -0.7923265E+00 -0.1355077E+00  0.1373986E+00
 -0.1523320E+02 -0.1500340E+01  0.0000000E+00  0.1894627E+00 -0.7901654E+00 -0.1333302E+00  0.1346075E+00
 -0.1501280E+02 -0.2986230E+01  0.0000000E+00  0.1852624E+00 -0.7927645E+00 -0.1300317E+00  0.1319617E+00
 -0.1464780E+02 -0.4443360E+01  0.0000000E+00  0.1800010E+00 -0.8005935E+00 -0.1253313E+00  0.1291992E+00
 -0.1414170E+02 -0.5857700E+01  0.0000000E+00  0.1739601E+00 -0.8137566E+00 -0.1194711E+00  0.1264468E+00
 -0.1349950E+02 -0.7215620E+01  0.0000000E+00  0.1679462E+00 -0.8321579E+00 -0.1130751E+00  0.1241771E+00
 -0.1272720E+02 -0.8504060E+01  0.0000000E+00  0.1618653E+00 -0.8564475E+00 -0.1060421E+00  0.1222925E+00
 -0.1183240E+02 -0.9710600E+01  0.0000000E+00  0.1540718E+00 -0.8873288E+00 -0.9729413E-01  0.1194654E+00
 -0.1082360E+02 -0.1082360E+02  0.0000000E+00  0.1434893E+00 -0.9279869E+00 -0.8601414E-01  0.1148509E+00
 -0.9710600E+01 -0.1183240E+02  0.0000000E+00  0.1330702E+00 -0.9769294E+00 -0.7446210E-01  0.1102863E+00
 -0.8504050E+01 -0.1272720E+02  0.0000000E+00  0.1209907E+00 -0.1040547E+01 -0.6119082E-01  0.1043764E+00
 -0.7215620E+01 -0.1349950E+02  0.0000000E+00  0.1058121E+00 -0.1132582E+01 -0.4489851E-01  0.9581400E-01
 -0.5857690E+01 -0.1414170E+02  0.0000000E+00  0.8848107E-01 -0.1276033E+01 -0.2570494E-01  0.8466496E-01
 -0.4443360E+01 -0.1464780E+02  0.0000000E+00  0.6837741E-01 -0.1557130E+01 -0.9344111E-03  0.6837103E-01
 -0.2986230E+01 -0.1501280E+02  0.0000000E+00  0.5534999E-01 -0.2396204E+01  0.4067253E-01  0.3754153E-01
 -0.1500340E+01 -0.1523320E+02  0.0000000E+00  0.1558760E+00  0.2841110E+01  0.1488918E+00 -0.4613645E-01
  0.1825330E-06 -0.1530690E+02  0.0000000E+00  0.2049102E+00  0.2763151E+01  0.1904110E+00 -0.7570874E-01
  0.1500340E+01 -0.1523320E+02  0.0000000E+00  0.2163819E+00  0.2754565E+01  0.2003772E+00 -0.8167066E-01
  0.2986230E+01 -0.1501280E+02  0.0000000E+00  0.1717850E+00  0.2812806E+01  0.1625833E+00 -0.5546853E-01
  0.4443360E+01 -0.1464780E+02  0.0000000E+00  0.1482823E+00  0.2862340E+01  0.1425381E+00 -0.4087214E-01
  0.5857700E+01 -0.1414170E+02  0.0000000E+00  0.1353890E+00  0.2902228E+01  0.1315289E+00 -0.3209879E-01
  0.7215620E+01 -0.1349950E+02  0.0000000E+00  0.1248301E+00  0.2944168E+01  0.1224052E+00 -0.2448477E-01
  0.8504060E+01 -0.1272720E+02  0.0000000E+00  0.1174925E+00  0.2978638E+01  0.1159360E+00 -0.1906130E-01
  0.9710600E+01 -0.1183240E+02  0.0000000E+00  0.1105598E+00  0.3016267E+01  0.1096927E+00 -0.1381977E-01
  0.1082360E+02 -0.1082360E+02  0.0000000E+00  0.1039733E+00  0.3056175E+01  0.1035942E+00 -0.8870302E-02
  0.1183240E+02 -0.9710590E+01  0.0000000E+00  0.9760682E-01  0.3097922E+01  0.9751377E-01 -0.4261218E-02
  0.1272720E+02 -0.8504060E+01  0.0000000E+00  0.9153236E-01 -0.3141024E+01  0.9153234E-01  0.5206889E-04
  0.1349950E+02 -0.7215620E+01  0.0000000E+00  0.8570193E-01 -0.3094269E+01  0.8560598E-01  0.4054199E-02
  0.1414170E+02 -0.5857700E+01  0.0000000E+00  0.8031556E-01 -0.3049627E+01  0.7997616E-01  0.7375855E-02
  0.1464780E+02 -0.4443350E+01  0.0000000E+00  0.7498670E-01 -0.2999886E+01  0.7423507E-01  0.1059057E-01
  0.1501280E+02 -0.2986230E+01  0.0000000E+00  0.7001735E-01 -0.2947824E+01  0.6870700E-01  0.1348243E-01
  0.1523320E+02 -0.1500330E+01  0.0000000E+00  0.6545323E-01 -0.2892911E+01  0.6343974E-01  0.1610976E-01
  0.1530690E+02  0.0000000E+00 -0.2568960E-01  0.6094935E-01 -0.2832217E+01  0.5805571E-01  0.1855688E-01
  0.1523320E+02  0.1500340E+01 -0.2568960E-01  0.5682814E-01 -0.2762124E+01  0.5278548E-01  0.2105067E-01
  0.1501280E+02  0.2986230E+01 -0.2568960E-01  0.5319455E-01 -0.2680528E+01  0.4763994E-01  0.2366634E-01
  0.1464780E+02  0.4443360E+01 -0.2568960E-01  0.5039921E-01 -0.2589589E+01  0.4291369E-01  0.2642907E-01
  0.1414170E+02  0.5857700E+01 -0.2568960E-01  0.4837299E-01 -0.2492287E+01  0.3852927E-01  0.2924793E-01
  0.1349950E+02  0.7215620E+01 -0.2568960E-01  0.4660720E-01 -0.2389483E+01  0.3403487E-01  0.3184114E-01
  0.1272720E+02  0.8504060E+01 -0.2568960E-01  0.4540867E-01 -0.2286696E+01  0.2980154E-01  0.3426099E-01
  0.1183240E+02  0.9710600E+01 -0.2568960E-01  0.4593900E-01 -0.2177505E+01  0.2619288E-01  0.3774023E-01
  0.1082360E+02  0.1082360E+02 -0.2568960E-01  0.4905723E-01 -0.2076012E+01  0.2374350E-01  0.4292852E-01
  0.9710590E+01  0.1183240E+02 -0.2568960E-01  0.5258519E-01 -0.1989240E+01  0.2136739E-01  0.4804828E-01
  0.8504060E+01  0.1272720E+02 -0.2568960E-01  0.5788171E-01 -0.1919573E+01  0.1978098E-01  0.5439674E-01
  0.7215620E+01  0.1349950E+02 -0.2568960E-01  0.6617448E-01 -0.1871521E+01  0.1960170E-01  0.6320471E-01
  0.5857700E+01  0.1414170E+02 -0.2568960E-01  0.7744215E-01 -0.1858237E+01  0.2195476E-01  0.7426489E-01
  0.4443360E+01  0.1464780E+02 -0.2568960E-01  0.9416938E-01 -0.1868729E+01  0.2764286E-01  0.9002080E-01
  0.2986230E+01  0.1501280E+02 -0.2568960E-01  0.1274602E+00 -0.1930761E+01  0.4489673E-01  0.1192912E+00
  0.1500340E+01  0.1523320E+02 -0.2568960E-01  0.2238144E+00 -0.2042980E+01  0.1017980E+00  0.1993240E+00
 -0.6690860E-06  0.1530690E+02 -0.2568960E-01  0.2528835E+00 -0.2012287E+01  0.1080541E+00  0.2286359E+00
 -0.1500340E+01  0.1523320E+02 -0.2568960E-01  0.2512236E+00 -0.1918895E+01  0.8569515E-01  0.2361559E+00
 -0.2986230E+01  0.1501280E+02 -0.2568960E-01  0.2152205E+00 -0.1611993E+01  0.8863842E-02  0.2150379E+00
 -0.4443360E+01  0.1464780E+02 -0.2568960E-01  0.2046365E+00 -0.1432796E+01 -0.2815032E-01  0.2026911E+00
 -0.5857700E+01  0.1414170E+02 -0.2568960E-01  0.2016407E+00 -0.1312856E+01 -0.5143639E-01  0.1949700E+00
 -0.7215620E+01  0.1349950E+02 -0.2568960E-01  0.2004354E+00 -0.1214482E+01 -0.6991631E-01  0.1878459E+00
 -0.8504060E+01  0.1272720E+02 -0.2568960E-01  0.2010794E+00 -0.1136409E+01 -0.8462524E-01  0.1824048E+00
 -0.9710590E+01  0.1183240E+02 -0.2568960E-01  0.2015330E+00 -0.1070373E+01 -0.9669494E-01  0.1768209E+00
 -0.1082360E+02  0.1082360E+02 -0.2568960E-01  0.2018915E+00 -0.1012883E+01 -0.1068848E+00  0.1712770E+00
 -0.1183240E+02  0.9710590E+01 -0.2568960E-01  0.2024456E+00 -0.9605370E+00 -0.1160175E+00  0.1659041E+00
 -0.1272720E+02  0.8504060E+01 -0.2568960E-01  0.2022935E+00 -0.9177331E+00 -0.1229180E+00  0.1606668E+00
 -0.1349950E+02  0.7215620E+01 -0.2568960E-01  0.2015258E+00 -0.8828675E+00 -0.1279565E+00  0.1556913E+00
 -0.1414170E+02  0.5857690E+01 -0.2568960E-01  0.2007408E+00 -0.8547007E+00 -0.1317751E+00  0.1514337E+00
 -0.1464780E+02  0.4443360E+01 -0.2568960E-01  0.1996667E+00 -0.8305222E+00 -0.1346733E+00  0.1474107E+00
 -0.1501280E+02  0.2986230E+01 -0.2568960E-01  0.1980102E+00 -0.8120944E+00 -0.1362270E+00  0.1437019E+00
 -0.1523320E+02  0.1500340E+01 -0.2568960E-01  0.1955830E+00 -0.7995228E+00 -0.1363309E+00  0.1402376E+00
 -0.1530690E+02 -0.1338170E-05 -0.2568960E-01  0.1926740E+00 -0.7923545E+00 -0.1352900E+00  0.1371855E+00
 -0.1523320E+02 -0.1500340E+01 -0.2568960E-01  0.1891638E+00 -0.7901936E+00 -0.1331161E+00  0.1343989E+00
 -0.1501280E+02 -0.2986230E+01 -0.2568960E-01  0.1849716E+00 -0.7927953E+00 -0.1298236E+00  0.1317586E+00
 -0.1464780E+02 -0.4443360E+01 -0.2568960E-01  0.1797204E+00 -0.8006220E+00 -0.1251322E+00  0.1290014E+00
 -0.1414170E+02 -0.5857700E+01 -0.2568960E-01  0.1736910E+00 -0.8137828E+00 -0.1192830E+00  0.1262543E+00
 -0.1349950E+02 -0.7215620E+01 -0.2568960E-01  0.1676821E+00 -0.8321854E+00 -0.1128939E+00  0.1239849E+00
 -0.1272720E+02 -0.8504060E+01 -0.2568960E-01  0.1616016E+00 -0.8564794E+00 -0.1058655E+00  0.1220966E+00
 -0.1183240E+02 -0.9710600E+01 -0.2568960E-01  0.1538188E+00 -0.8873656E+00 -0.9712998E-01  0.1192728E+00
 -0.1082360E+02 -0.1082360E+02 -0.2568960E-01  0.1432649E+00 -0.9280110E+00 -0.8587687E-01  0.1146734E+00
 -0.9710600E+01 -0.1183240E+02 -0.2568960E-01  0.1328572E+00 -0.9769681E+00 -0.7433865E-01  0.1101127E+00
 -0.8504050E+01 -0.1272720E+02 -0.2568960E-01  0.1207936E+00 -0.1040603E+01 -0.6108535E-01  0.1042097E+00
 -0.7215620E+01 -0.1349950E+02 -0.2568960E-01  0.1056528E+00 -0.1132592E+01 -0.4483000E-01  0.9567017E-01
 -0.5857690E+01 -0.1414170E+02 -0.2568960E-01  0.8835258E-01 -0.1276008E+01 -0.2566971E-01  0.8454138E-01
 -0.4443360E+01 -0.1464780E+02 -0.2568960E-01  0.6828271E-01 -0.1556990E+01 -0.9426810E-03  0.6827620E-01
 -0.2986230E+01 -0.1501280E+02 -0.2568960E-01  0.5526710E-01 -0.2396292E+01  0.4061492E-01  0.3748173E-01
 -0.1500340E+01 -0.1523320E+02 -0.2568960E-01  0.1556735E+00  0.2841030E+01  0.1486947E+00 -0.4608841E-01
  0.1825330E-06 -0.1530690E+02 -0.2568960E-01  0.2046236E+00  0.2763118E+01  0.1901423E+00 -0.7560908E-01
  0.1500340E+01 -0.1523320E+02 -0.2568960E-01  0.2161119E+00  0.2754493E+01  0.2001213E+00 -0.8158321E-01
  0.2986230E+01 -0.1501280E+02 -0.2568960E-01  0.1715379E+00  0.2812777E+01  0.1623479E+00 -0.5539350E-01
  0.4443360E+01 -0.1464780E+02 -0.2568960E-01  0.1480628E+00  0.2862310E+01  0.1423259E+00 -0.4081588E-01
  0.5857700E+01 -0.1414170E+02 -0.2568960E-01  0.1351816E+00  0.2902220E+01  0.1313272E+00 -0.3205057E-01
  0.7215620E+01 -0.1349950E+02 -0.2568960E-01  0.1246486E+00  0.2944115E+01  0.1222260E+00 -0.2445568E-01
  0.8504060E+01 -0.1272720E+02 -0.2568960E-01  0.1173136E+00  0.2978627E+01  0.1157592E+00 -0.1903353E-01
  0.9710600E+01 -0.1183240E+02 -0.2568960E-01  0.1103899E+00  0.3016258E+01  0.1095240E+00 -0.1379954E-01
  0.1082360E+02 -0.1082360E+02 -0.2568960E-01  0.1038132E+00  0.3056158E+01  0.1034345E+00 -0.8858465E-02
  0.1183240E+02 -0.9710590E+01 -0.2568960E-01  0.9745715E-01  0.3097899E+01  0.9736414E-01 -0.4256878E-02
  0.1272720E+02 -0.8504060E+01 -0.2568960E-01  0.9139276E-01 -0.3141062E+01  0.9139275E-01  0.4844540E-04
  0.1349950E+02 -0.7215620E+01 -0.2568960E-01  0.8557273E-01 -0.3094349E+01  0.8547725E-01  0.4041253E-02
  0.1414170E+02 -0.5857700E+01 -0.2568960E-01  0.8019409E-01 -0.3049722E+01  0.7985590E-01  0.7357091E-02
  0.1464780E+02 -0.4443350E+01 -0.2568960E-01  0.7487383E-01 -0.3000011E+01  0.7412464E-01  0.1056540E-01
  0.1501280E+02 -0.2986230E+01 -0.2568960E-01  0.6991126E-01 -0.2947969E+01  0.6860486E-01  0.1345205E-01
  0.1523320E+02 -0.1500330E+01 -0.2568960E-01  0.6535286E-01 -0.2893070E+01  0.6334502E-01  0.1607498E-01
  0.1530690E+02  0.0000000E+00 -0.1027320E+00  0.6066517E-01 -0.2832802E+01  0.5779582E-01  0.1843654E-01
  0.1523320E+02  0.1500340E+01 -0.1027320E+00  0.5656093E-01 -0.2762764E+01  0.5255067E-01  0.2091808E-01
  0.1501280E+02  0.2986230E+01 -0.1027320E+00  0.5294132E-01 -0.2681243E+01  0.4742998E-01  0.2351979E-01
  0.1464780E+02  0.4443360E+01 -0.1027320E+00  0.5015156E-01 -0.2590371E+01  0.4272338E-01  0.2626579E-01
  0.1414170E+02  0.5857700E+01 -0.1027320E+00  0.4812771E-01 -0.2493071E+01  0.3835672E-01  0.2906955E-01
  0.1349950E+02  0.7215620E+01 -0.1027320E+00  0.4637605E-01 -0.2390173E+01  0.3388792E-01  0.3165986E-01
  0.1272720E+02  0.8504060E+01 -0.1027320E+00  0.4519932E-01 -0.2287164E+01  0.2968012E-01  0.3408913E-01
  0.1183240E+02  0.9710600E+01 -0.1027320E+00  0.4572869E-01 -0.2177958E+01  0.2608997E-01  0.3755564E-01
  0.1082360E+02  0.1082360E+02 -0.1027320E+00  0.4880401E-01 -0.2076451E+01  0.2363970E-01  0.4269657E-01
  0.9710590E+01  0.1183240E+02 -0.1027320E+00  0.5232636E-01 -0.1989661E+01  0.2128238E-01  0.4780281E-01
  0.8504060E+01  0.1272720E+02 -0.1027320E+00  0.5760583E-01 -0.1920028E+01  0.1971131E-01  0.5412851E-01
  0.7215620E+01  0.1349950E+02 -0.1027320E+00  0.6583990E-01 -0.1872059E+01  0.1953641E-01  0.6287464E-01
  0.5857700E+01  0.1414170E+02 -0.1027320E+00  0.7703345E-01 -0.1858511E+01  0.2185913E-01  0.7386698E-01
  0.4443360E+01  0.1464780E+02 -0.1027320E+00  0.9367084E-01 -0.1869020E+01  0.2752261E-01  0.8953620E-01
  0.2986230E+01  0.1501280E+02 -0.1027320E+00  0.1268610E+00 -0.1931161E+01  0.4473320E-01  0.1187125E+00
  0.1500340E+01  0.1523320E+02 -0.1027320E+00  0.2228356E+00 -0.2043388E+01  0.1014337E+00  0.1984110E+00
 -0.6690860E-06  0.1530690E+02 -0.1027320E+00  0.2518260E+00 -0.2012709E+01  0.1076983E+00  0.2276345E+00
 -0.1500340E+01  0.1523320E+02 -0.1027320E+00  0.2501506E+00 -0.1919253E+01  0.8541340E-01  0.2351167E+00
 -0.2986230E+01  0.1501280E+02 -0.1027320E+00  0.2142245E+00 -0.1612233E+01  0.8874277E-02  0.2140406E+00
 -0.4443360E+01  0.1464780E+02 -0.1027320E+00  0.2036743E+00 -0.1432868E+01 -0.2800351E-01  0.2017400E+00
 -0.5857700E+01  0.1414170E+02 -0.1027320E+00  0.2006795E+00 -0.1312904E+01 -0.5118195E-01  0.1940429E+00
 -0.7215620E+01  0.1349950E+02 -0.1027320E+00  0.1994879E+00 -0.1214650E+01 -0.6955446E-01  0.1869695E+00
 -0.8504060E+01  0.1272720E+02 -0.1027320E+00  0.2001088E+00 -0.1136531E+01 -0.8419455E-01  0.1815346E+00
 -0.9710590E+01  0.1183240E+02 -0.1027320E+00  0.2005606E+00 -0.1070451E+01 -0.9621461E-01  0.1759753E+00
 -0.1082360E+02  0.1082360E+02 -0.1027320E+00  0.2009230E+00 -0.1012931E+01 -0.1063639E+00  0.1704604E+00
 -0.1183240E+02  0.9710590E+01 -0.1027320E+00  0.2014668E+00 -0.9606406E+00 -0.1154395E+00  0.1651139E+00
 -0.1272720E+02  0.8504060E+01 -0.1027320E+00  0.2013192E+00 -0.9178371E+00 -0.1223093E+00  0.1599057E+00
 -0.1349950E+02  0.7215620E+01 -0.1027320E+00  0.2005693E+00 -0.8829591E+00 -0.1273350E+00  0.1549641E+00
 -0.1414170E+02  0.5857690E+01 -0.1027320E+00  0.1997938E+00 -0.8547711E+00 -0.1311429E+00  0.1507286E+00
 -0.1464780E+02  0.4443360E+01 -0.1027320E+00  0.1987273E+00 -0.8306094E+00 -0.1340268E+00  0.1467288E+00
 -0.1501280E+02  0.2986230E+01 -0.1027320E+00  0.1970794E+00 -0.8121886E+00 -0.1355732E+00  0.1430391E+00
 -0.1523320E+02  0.1500340E+01 -0.1027320E+00  0.1946667E+00 -0.7996098E+00 -0.1356800E+00  0.1395924E+00
 -0.1530690E+02 -0.1338170E-05 -0.1027320E+00  0.1917725E+00 -0.7924341E+00 -0.1346462E+00  0.1365544E+00
 -0.1523320E+02 -0.1500340E+01 -0.1027320E+00  0.1882803E+00 -0.7902694E+00 -0.1324841E+00  0.1337812E+00
 -0.1501280E+02 -0.2986230E+01 -0.1027320E+00  0.1841093E+00 -0.7928763E+00 -0.1292078E+00  0.1311548E+00
 -0.1464780E+02 -0.4443360E+01 -0.1027320E+00  0.1788892E+00 -0.8006983E+00 -0.1245437E+00  0.1284143E+00
 -0.1414170E+02 -0.5857700E+01 -0.1027320E+00  0.1728929E+00 -0.8138493E+00 -0.1187265E+00  0.1256820E+00
 -0.1349950E+02 -0.7215620E+01 -0.1027320E+00  0.1668995E+00 -0.8322554E+00 -0.1123584E+00  0.1234141E+00
 -0.1272720E+02 -0.8504060E+01 -0.1027320E+00  0.1608175E+00 -0.8565639E+00 -0.1053415E+00  0.1215131E+00
 -0.1183240E+02 -0.9710600E+01 -0.1027320E+00  0.1530655E+00 -0.8874658E+00 -0.9664238E-01  0.1186984E+00
 -0.1082360E+02 -0.1082360E+02 -0.1027320E+00  0.1425972E+00 -0.9280654E+00 -0.8547042E-01  0.1141436E+00
 -0.9710600E+01 -0.1183240E+02 -0.1027320E+00  0.1322219E+00 -0.9770600E+00 -0.7397311E-01  0.1095929E+00
 -0.8504050E+01 -0.1272720E+02 -0.1027320E+00  0.1202050E+00 -0.1040741E+01 -0.6077334E-01  0.1037104E+00
 -0.7215620E+01 -0.1349950E+02 -0.1027320E+00  0.1051636E+00 -0.1132668E+01 -0.4461518E-01  0.9523065E-01
 -0.5857690E+01 -0.1414170E+02 -0.1027320E+00  0.8796815E-01 -0.1275889E+01 -0.2556802E-01  0.8417049E-01
 -0.4443360E+01 -0.1464780E+02 -0.1027320E+00  0.6800047E-01 -0.1556508E+01 -0.9716052E-03  0.6799353E-01
 -0.2986230E+01 -0.1501280E+02 -0.1027320E+00  0.5501930E-01 -0.2396684E+01  0.4044744E-01  0.3729784E-01
 -0.1500340E+01 -0.1523320E+02 -0.1027320E+00  0.1550368E+00  0.2840847E+01  0.1480781E+00 -0.4592696E-01
  0.1825330E-06 -0.1530690E+02 -0.1027320E+00  0.2038394E+00  0.2762907E+01  0.1893976E+00 -0.7535928E-01
  0.1500340E+01 -0.1523320E+02 -0.1027320E+00  0.2152672E+00  0.2754310E+01  0.1993242E+00 -0.8130078E-01
  0.2986230E+01 -0.1501280E+02 -0.1027320E+00  0.1707986E+00  0.2812668E+01  0.1616421E+00 -0.5517224E-01
  0.4443360E+01 -0.1464780E+02 -0.1027320E+00  0.1474049E+00  0.2862213E+01  0.1416895E+00 -0.4064824E-01
  0.5857700E+01 -0.1414170E+02 -0.1027320E+00  0.1345631E+00  0.2902163E+01  0.1307245E+00 -0.3191141E-01
  0.7215620E+01 -0.1349950E+02 -0.1027320E+00  0.1241042E+00  0.2943942E+01  0.1216879E+00 -0.2436993E-01
  0.8504060E+01 -0.1272720E+02 -0.1027320E+00  0.1167765E+00  0.2978566E+01  0.1152281E+00 -0.1895346E-01
  0.9710600E+01 -0.1183240E+02 -0.1027320E+00  0.1098792E+00  0.3016195E+01  0.1090164E+00 -0.1374250E-01
  0.1082360E+02 -0.1082360E+02 -0.1027320E+00  0.1033323E+00  0.3056069E+01  0.1029547E+00 -0.8826556E-02
  0.1183240E+02 -0.9710590E+01 -0.1027320E+00  0.9700820E-01  0.3097787E+01  0.9691514E-01 -0.4248122E-02
  0.1272720E+02 -0.8504060E+01 -0.1027320E+00  0.9097459E-01 -0.3141227E+01  0.9097458E-01  0.3321495E-04
