 VARIABLES="X" "Y" "Z" "abs(eta) (m)" "angle(phi) (rad)" "PRE1" "PRE2"
ZONE N=   3200 ,E =    3136 ,F=FEPOINT,ET=QUADRILATERAL
  0.1672760E+02  0.0000000E+00  0.0000000E+00  0.4828609E+00 -0.1144668E+01 -0.1995897E+00  0.4396801E+00
  0.1664710E+02  0.1639590E+01  0.0000000E+00  0.4828352E+00 -0.1144993E+01 -0.1994364E+00  0.4397215E+00
  0.1640620E+02  0.3263390E+01  0.0000000E+00  0.4823289E+00 -0.1148326E+01 -0.1977621E+00  0.4399220E+00
  0.1600730E+02  0.4855770E+01  0.0000000E+00  0.4793058E+00 -0.1153321E+01 -0.1943362E+00  0.4381409E+00
  0.1545430E+02  0.6401380E+01  0.0000000E+00  0.4733171E+00 -0.1159796E+01 -0.1891027E+00  0.4339000E+00
  0.1475240E+02  0.7885340E+01  0.0000000E+00  0.4646354E+00 -0.1167935E+01 -0.1821611E+00  0.4274382E+00
  0.1390850E+02  0.9293360E+01  0.0000000E+00  0.4553631E+00 -0.1178872E+01 -0.1739339E+00  0.4208355E+00
  0.1293060E+02  0.1061190E+02  0.0000000E+00  0.4462714E+00 -0.1193071E+01 -0.1645883E+00  0.4148118E+00
  0.1182820E+02  0.1182820E+02  0.0000000E+00  0.4357759E+00 -0.1209828E+01 -0.1539076E+00  0.4076924E+00
  0.1061190E+02  0.1293060E+02  0.0000000E+00  0.4224424E+00 -0.1228287E+01 -0.1418782E+00  0.3979047E+00
  0.9293360E+01  0.1390850E+02  0.0000000E+00  0.4072228E+00 -0.1249511E+01 -0.1285954E+00  0.3863854E+00
  0.7885330E+01  0.1475240E+02  0.0000000E+00  0.3871465E+00 -0.1273162E+01 -0.1135345E+00  0.3701248E+00
  0.6401380E+01  0.1545430E+02  0.0000000E+00  0.3563646E+00 -0.1299130E+01 -0.9562567E-01  0.3432950E+00
  0.4855770E+01  0.1600730E+02  0.0000000E+00  0.3148593E+00 -0.1328760E+01 -0.7546547E-01  0.3056817E+00
  0.3263390E+01  0.1640620E+02  0.0000000E+00  0.2449953E+00 -0.1367430E+01 -0.4948108E-01  0.2399465E+00
  0.1639590E+01  0.1664710E+02  0.0000000E+00  0.1420568E+00 -0.1455841E+01 -0.1629424E-01  0.1411192E+00
 -0.7311870E-06  0.1672760E+02  0.0000000E+00  0.4452373E-01 -0.2023429E+01  0.1947178E-01  0.4004013E-01
 -0.1639590E+01  0.1664710E+02  0.0000000E+00  0.8089741E-01  0.2350406E+01  0.5687103E-01 -0.5753327E-01
 -0.3263390E+01  0.1640620E+02  0.0000000E+00  0.1746203E+00  0.2136636E+01  0.9361827E-01 -0.1474038E+00
 -0.4855770E+01  0.1600730E+02  0.0000000E+00  0.2382897E+00  0.2102627E+01  0.1208395E+00 -0.2053772E+00
 -0.6401380E+01  0.1545430E+02  0.0000000E+00  0.2760348E+00  0.2103383E+01  0.1401603E+00 -0.2378031E+00
 -0.7885340E+01  0.1475240E+02  0.0000000E+00  0.3042212E+00  0.2109760E+01  0.1561406E+00 -0.2610951E+00
 -0.9293360E+01  0.1390850E+02  0.0000000E+00  0.3223424E+00  0.2122654E+01  0.1689945E+00 -0.2744914E+00
 -0.1061190E+02  0.1293060E+02  0.0000000E+00  0.3360118E+00  0.2136524E+01  0.1801126E+00 -0.2836607E+00
 -0.1182820E+02  0.1182820E+02  0.0000000E+00  0.3478724E+00  0.2148784E+01  0.1900564E+00 -0.2913654E+00
 -0.1293060E+02  0.1061190E+02  0.0000000E+00  0.3570697E+00  0.2159716E+01  0.1983390E+00 -0.2969182E+00
 -0.1390850E+02  0.9293360E+01  0.0000000E+00  0.3649084E+00  0.2169070E+01  0.2055226E+00 -0.3015271E+00
 -0.1475240E+02  0.7885330E+01  0.0000000E+00  0.3727973E+00  0.2175601E+01  0.2119731E+00 -0.3066680E+00
 -0.1545430E+02  0.6401370E+01  0.0000000E+00  0.3800766E+00  0.2179728E+01  0.2174004E+00 -0.3117615E+00
 -0.1600730E+02  0.4855770E+01  0.0000000E+00  0.3847816E+00  0.2183393E+01  0.2212471E+00 -0.3148120E+00
 -0.1640620E+02  0.3263390E+01  0.0000000E+00  0.3866147E+00  0.2186983E+01  0.2234351E+00 -0.3155118E+00
 -0.1664710E+02  0.1639590E+01  0.0000000E+00  0.3859722E+00  0.2190061E+01  0.2240323E+00 -0.3142993E+00
 -0.1672760E+02 -0.1462370E-05  0.0000000E+00  0.3848214E+00  0.2190134E+01  0.2233871E+00 -0.3133460E+00
 -0.1664710E+02 -0.1639590E+01  0.0000000E+00  0.3839155E+00  0.2186349E+01  0.2216767E+00 -0.3134495E+00
 -0.1640620E+02 -0.3263400E+01  0.0000000E+00  0.3824803E+00  0.2179736E+01  0.2187780E+00 -0.3137313E+00
 -0.1600730E+02 -0.4855770E+01  0.0000000E+00  0.3785905E+00  0.2172727E+01  0.2143711E+00 -0.3120510E+00
 -0.1545430E+02 -0.6401380E+01  0.0000000E+00  0.3718641E+00  0.2165902E+01  0.2084657E+00 -0.3079366E+00
 -0.1475240E+02 -0.7885340E+01  0.0000000E+00  0.3625539E+00  0.2158970E+01  0.2011603E+00 -0.3016287E+00
 -0.1390850E+02 -0.9293360E+01  0.0000000E+00  0.3526054E+00  0.2149437E+01  0.1928352E+00 -0.2952036E+00
 -0.1293060E+02 -0.1061190E+02  0.0000000E+00  0.3427343E+00  0.2136354E+01  0.1836668E+00 -0.2893671E+00
 -0.1182820E+02 -0.1182820E+02  0.0000000E+00  0.3314486E+00  0.2121409E+01  0.1734171E+00 -0.2824618E+00
 -0.1061190E+02 -0.1293060E+02  0.0000000E+00  0.3171922E+00  0.2105434E+01  0.1616188E+00 -0.2729290E+00
 -0.9293350E+01 -0.1390850E+02  0.0000000E+00  0.3010006E+00  0.2087556E+01  0.1487141E+00 -0.2616973E+00
 -0.7885340E+01 -0.1475240E+02  0.0000000E+00  0.2801041E+00  0.2070941E+01  0.1343247E+00 -0.2457950E+00
 -0.6401370E+01 -0.1545430E+02  0.0000000E+00  0.2489089E+00  0.2062740E+01  0.1175697E+00 -0.2193924E+00
 -0.4855760E+01 -0.1600730E+02  0.0000000E+00  0.2070844E+00  0.2064441E+01  0.9812456E-01 -0.1823609E+00
 -0.3263390E+01 -0.1640620E+02  0.0000000E+00  0.1383890E+00  0.2128339E+01  0.7322196E-01 -0.1174311E+00
 -0.1639590E+01 -0.1664710E+02  0.0000000E+00  0.4663022E-01  0.2711333E+01  0.4238022E-01 -0.1944979E-01
  0.1994750E-06 -0.1672760E+02  0.0000000E+00  0.8226588E-01 -0.1719425E+01  0.1218207E-01  0.8135890E-01
  0.1639600E+01 -0.1664710E+02  0.0000000E+00  0.1800904E+00 -0.1480854E+01 -0.1617586E-01  0.1793624E+00
  0.3263390E+01 -0.1640620E+02  0.0000000E+00  0.2736086E+00 -0.1413393E+01 -0.4288915E-01  0.2702262E+00
  0.4855770E+01 -0.1600730E+02  0.0000000E+00  0.3356561E+00 -0.1373112E+01 -0.6592265E-01  0.3291188E+00
  0.6401380E+01 -0.1545430E+02  0.0000000E+00  0.3721811E+00 -0.1338814E+01 -0.8556698E-01  0.3622114E+00
  0.7885340E+01 -0.1475240E+02  0.0000000E+00  0.3996484E+00 -0.1308640E+01 -0.1035746E+00  0.3859937E+00
  0.9293360E+01 -0.1390850E+02  0.0000000E+00  0.4172428E+00 -0.1280522E+01 -0.1194214E+00  0.3997875E+00
  0.1061190E+02 -0.1293060E+02  0.0000000E+00  0.4305414E+00 -0.1255142E+01 -0.1336568E+00  0.4092698E+00
  0.1182820E+02 -0.1182820E+02  0.0000000E+00  0.4422421E+00 -0.1232887E+01 -0.1466099E+00  0.4172333E+00
  0.1293060E+02 -0.1061190E+02  0.0000000E+00  0.4516128E+00 -0.1212753E+01 -0.1582641E+00  0.4229735E+00
  0.1390850E+02 -0.9293360E+01  0.0000000E+00  0.4597265E+00 -0.1195458E+01 -0.1685298E+00  0.4277220E+00
  0.1475240E+02 -0.7885330E+01  0.0000000E+00  0.4679454E+00 -0.1181721E+01 -0.1775070E+00  0.4329714E+00
  0.1545430E+02 -0.6401380E+01  0.0000000E+00  0.4756498E+00 -0.1170964E+01 -0.1851534E+00  0.4381335E+00
  0.1600730E+02 -0.4855760E+01  0.0000000E+00  0.4808765E+00 -0.1161806E+01 -0.1912365E+00  0.4412151E+00
  0.1640620E+02 -0.3263390E+01  0.0000000E+00  0.4832871E+00 -0.1154021E+01 -0.1956414E+00  0.4419172E+00
  0.1664710E+02 -0.1639590E+01  0.0000000E+00  0.4832650E+00 -0.1147838E+01 -0.1983609E+00  0.4406791E+00
  0.1672760E+02  0.0000000E+00 -0.2568960E-01  0.4822966E+00 -0.1144656E+01 -0.1993620E+00  0.4391637E+00
  0.1664710E+02  0.1639590E+01 -0.2568960E-01  0.4822674E+00 -0.1144981E+01 -0.1992071E+00  0.4392020E+00
  0.1640620E+02  0.3263390E+01 -0.2568960E-01  0.4817546E+00 -0.1148316E+01 -0.1975311E+00  0.4393961E+00
  0.1600730E+02  0.4855770E+01 -0.2568960E-01  0.4787398E+00 -0.1153315E+01 -0.1941097E+00  0.4376222E+00
  0.1545430E+02  0.6401380E+01 -0.2568960E-01  0.4727737E+00 -0.1159798E+01 -0.1888847E+00  0.4334023E+00
  0.1475240E+02  0.7885340E+01 -0.2568960E-01  0.4641254E+00 -0.1167946E+01 -0.1819568E+00  0.4269709E+00
  0.1390850E+02  0.9293360E+01 -0.2568960E-01  0.4548797E+00 -0.1178883E+01 -0.1737448E+00  0.4203907E+00
  0.1293060E+02  0.1061190E+02 -0.2568960E-01  0.4457977E+00 -0.1193085E+01 -0.1644074E+00  0.4143740E+00
  0.1182820E+02  0.1182820E+02 -0.2568960E-01  0.4353090E+00 -0.1209834E+01 -0.1537402E+00  0.4072565E+00
  0.1061190E+02  0.1293060E+02 -0.2568960E-01  0.4219984E+00 -0.1228303E+01 -0.1417226E+00  0.3974888E+00
  0.9293360E+01  0.1390850E+02 -0.2568960E-01  0.4067886E+00 -0.1249521E+01 -0.1284544E+00  0.3859746E+00
  0.7885330E+01  0.1475240E+02 -0.2568960E-01  0.3867244E+00 -0.1273168E+01 -0.1134085E+00  0.3697219E+00
  0.6401380E+01  0.1545430E+02 -0.2568960E-01  0.3559986E+00 -0.1299137E+01 -0.9552519E-01  0.3429431E+00
  0.4855770E+01  0.1600730E+02 -0.2568960E-01  0.3145278E+00 -0.1328768E+01 -0.7538357E-01  0.3053606E+00
  0.3263390E+01  0.1640620E+02 -0.2568960E-01  0.2447402E+00 -0.1367437E+01 -0.4942785E-01  0.2396970E+00
  0.1639590E+01  0.1664710E+02 -0.2568960E-01  0.1418823E+00 -0.1455840E+01 -0.1627444E-01  0.1409458E+00
 -0.7311870E-06  0.1672760E+02 -0.2568960E-01  0.4446673E-01 -0.2023476E+01  0.1944873E-01  0.3998796E-01
 -0.1639590E+01  0.1664710E+02 -0.2568960E-01  0.8080219E-01  0.2350439E+01  0.5680598E-01 -0.5746367E-01
 -0.3263390E+01  0.1640620E+02 -0.2568960E-01  0.1744506E+00  0.2136592E+01  0.9352084E-01 -0.1472646E+00
 -0.4855770E+01  0.1600730E+02 -0.2568960E-01  0.2380479E+00  0.2102593E+01  0.1207101E+00 -0.2051729E+00
 -0.6401380E+01  0.1545430E+02 -0.2568960E-01  0.2757622E+00  0.2103346E+01  0.1400131E+00 -0.2375734E+00
 -0.7885340E+01  0.1475240E+02 -0.2568960E-01  0.3038940E+00  0.2109749E+01  0.1559696E+00 -0.2608160E+00
 -0.9293360E+01  0.1390850E+02 -0.2568960E-01  0.3220057E+00  0.2122634E+01  0.1688125E+00 -0.2742080E+00
 -0.1061190E+02  0.1293060E+02 -0.2568960E-01  0.3356652E+00  0.2136496E+01  0.1799187E+00 -0.2833732E+00
 -0.1182820E+02  0.1182820E+02 -0.2568960E-01  0.3475071E+00  0.2148765E+01  0.1898514E+00 -0.2910629E+00
 -0.1293060E+02  0.1061190E+02 -0.2568960E-01  0.3566965E+00  0.2159689E+01  0.1981236E+00 -0.2966133E+00
 -0.1390850E+02  0.9293360E+01 -0.2568960E-01  0.3645251E+00  0.2169041E+01  0.2052979E+00 -0.3012164E+00
 -0.1475240E+02  0.7885330E+01 -0.2568960E-01  0.3723933E+00  0.2175592E+01  0.2117406E+00 -0.3063376E+00
 -0.1545430E+02  0.6401370E+01 -0.2568960E-01  0.3796410E+00  0.2179737E+01  0.2171541E+00 -0.3114023E+00
 -0.1600730E+02  0.4855770E+01 -0.2568960E-01  0.3843266E+00  0.2183420E+01  0.2209940E+00 -0.3144338E+00
 -0.1640620E+02  0.3263390E+01 -0.2568960E-01  0.3861535E+00  0.2187013E+01  0.2231782E+00 -0.3151285E+00
 -0.1664710E+02  0.1639590E+01 -0.2568960E-01  0.3855157E+00  0.2190086E+01  0.2237753E+00 -0.3139220E+00
 -0.1672760E+02 -0.1462370E-05 -0.2568960E-01  0.3843713E+00  0.2190162E+01  0.2231349E+00 -0.3129730E+00
 -0.1664710E+02 -0.1639590E+01 -0.2568960E-01  0.3834628E+00  0.2186383E+01  0.2214257E+00 -0.3130725E+00
 -0.1640620E+02 -0.3263400E+01 -0.2568960E-01  0.3820253E+00  0.2179776E+01  0.2185302E+00 -0.3133494E+00
 -0.1600730E+02 -0.4855770E+01 -0.2568960E-01  0.3781426E+00  0.2172757E+01  0.2141268E+00 -0.3116753E+00
 -0.1545430E+02 -0.6401380E+01 -0.2568960E-01  0.3714381E+00  0.2165917E+01  0.2082316E+00 -0.3075807E+00
 -0.1475240E+02 -0.7885340E+01 -0.2568960E-01  0.3621613E+00  0.2158959E+01  0.2009393E+00 -0.3013042E+00
 -0.1390850E+02 -0.9293360E+01 -0.2568960E-01  0.3522382E+00  0.2149411E+01  0.1926266E+00 -0.2949012E+00
 -0.1293060E+02 -0.1061190E+02 -0.2568960E-01  0.3423775E+00  0.2136328E+01  0.1834679E+00 -0.2890707E+00
 -0.1182820E+02 -0.1182820E+02 -0.2568960E-01  0.3310986E+00  0.2121385E+01  0.1732272E+00 -0.2821678E+00
 -0.1061190E+02 -0.1293060E+02 -0.2568960E-01  0.3168671E+00  0.2105402E+01  0.1614445E+00 -0.2726544E+00
 -0.9293350E+01 -0.1390850E+02 -0.2568960E-01  0.3006879E+00  0.2087535E+01  0.1485541E+00 -0.2614285E+00
 -0.7885340E+01 -0.1475240E+02 -0.2568960E-01  0.2798040E+00  0.2070934E+01  0.1341789E+00 -0.2455326E+00
 -0.6401370E+01 -0.1545430E+02 -0.2568960E-01  0.2486636E+00  0.2062697E+01  0.1174444E+00 -0.2191812E+00
 -0.4855760E+01 -0.1600730E+02 -0.2568960E-01  0.2068759E+00  0.2064407E+01  0.9801964E-01 -0.1821807E+00
 -0.3263390E+01 -0.1640620E+02 -0.2568960E-01  0.1382540E+00  0.2128278E+01  0.7314340E-01 -0.1173209E+00
 -0.1639590E+01 -0.1664710E+02 -0.2568960E-01  0.4657470E-01  0.2711605E+01  0.4233505E-01 -0.1941510E-01
  0.1994750E-06 -0.1672760E+02 -0.2568960E-01  0.8217806E-01 -0.1719400E+01  0.1216706E-01  0.8127236E-01
  0.1639600E+01 -0.1664710E+02 -0.2568960E-01  0.1798805E+00 -0.1480861E+01 -0.1615585E-01  0.1791535E+00
  0.3263390E+01 -0.1640620E+02 -0.2568960E-01  0.2733250E+00 -0.1413400E+01 -0.4284282E-01  0.2699463E+00
  0.4855770E+01 -0.1600730E+02 -0.2568960E-01  0.3353029E+00 -0.1373123E+01 -0.6584955E-01  0.3287733E+00
  0.6401380E+01 -0.1545430E+02 -0.2568960E-01  0.3717988E+00 -0.1338819E+01 -0.8547742E-01  0.3618397E+00
  0.7885340E+01 -0.1475240E+02 -0.2568960E-01  0.3992113E+00 -0.1308650E+01 -0.1034574E+00  0.3855726E+00
  0.9293360E+01 -0.1390850E+02 -0.2568960E-01  0.4167958E+00 -0.1280535E+01 -0.1192882E+00  0.3993608E+00
  0.1061190E+02 -0.1293060E+02 -0.2568960E-01  0.4300871E+00 -0.1255162E+01 -0.1335076E+00  0.4088406E+00
  0.1182820E+02 -0.1182820E+02 -0.2568960E-01  0.4417671E+00 -0.1232899E+01 -0.1464476E+00  0.4167868E+00
  0.1293060E+02 -0.1061190E+02 -0.2568960E-01  0.4511319E+00 -0.1212775E+01 -0.1580865E+00  0.4225265E+00
  0.1390850E+02 -0.9293360E+01 -0.2568960E-01  0.4592353E+00 -0.1195480E+01 -0.1683404E+00  0.4272687E+00
  0.1475240E+02 -0.7885330E+01 -0.2568960E-01  0.4674316E+00 -0.1181730E+01 -0.1773085E+00  0.4324974E+00
  0.1545430E+02 -0.6401380E+01 -0.2568960E-01  0.4751055E+00 -0.1170960E+01 -0.1849432E+00  0.4376314E+00
  0.1600730E+02 -0.4855760E+01 -0.2568960E-01  0.4803112E+00 -0.1161794E+01 -0.1910168E+00  0.4406942E+00
  0.1640620E+02 -0.3263390E+01 -0.2568960E-01  0.4827145E+00 -0.1154005E+01 -0.1954167E+00  0.4413905E+00
  0.1664710E+02 -0.1639590E+01 -0.2568960E-01  0.4826966E+00 -0.1147827E+01 -0.1981322E+00  0.4401586E+00
  0.1672760E+02  0.0000000E+00 -0.1027320E+00  0.4805953E+00 -0.1144629E+01 -0.1986703E+00  0.4376093E+00
  0.1664710E+02  0.1639590E+01 -0.1027320E+00  0.4805548E+00 -0.1144951E+01 -0.1985125E+00  0.4376364E+00
  0.1640620E+02  0.3263390E+01 -0.1027320E+00  0.4800304E+00 -0.1148278E+01 -0.1968408E+00  0.4378160E+00
  0.1600730E+02  0.4855770E+01 -0.1027320E+00  0.4770374E+00 -0.1153286E+01 -0.1934319E+00  0.4360605E+00
  0.1545430E+02  0.6401380E+01 -0.1027320E+00  0.4711380E+00 -0.1159788E+01 -0.1882354E+00  0.4319010E+00
  0.1475240E+02  0.7885340E+01 -0.1027320E+00  0.4625868E+00 -0.1167971E+01 -0.1813430E+00  0.4255600E+00
  0.1390850E+02  0.9293360E+01 -0.1027320E+00  0.4534174E+00 -0.1178931E+01 -0.1731661E+00  0.4190475E+00
  0.1293060E+02  0.1061190E+02 -0.1027320E+00  0.4443659E+00 -0.1193123E+01 -0.1638637E+00  0.4130494E+00
  0.1182820E+02  0.1182820E+02 -0.1027320E+00  0.4338936E+00 -0.1209861E+01 -0.1532292E+00  0.4059365E+00
  0.1061190E+02  0.1293060E+02 -0.1027320E+00  0.4206572E+00 -0.1228336E+01 -0.1412589E+00  0.3962303E+00
  0.9293360E+01  0.1390850E+02 -0.1027320E+00  0.4054795E+00 -0.1249553E+01 -0.1280288E+00  0.3847366E+00
  0.7885330E+01  0.1475240E+02 -0.1027320E+00  0.3854497E+00 -0.1273197E+01 -0.1130239E+00  0.3685066E+00
  0.6401380E+01  0.1545430E+02 -0.1027320E+00  0.3548927E+00 -0.1299171E+01 -0.9521668E-01  0.3418810E+00
  0.4855770E+01  0.1600730E+02 -0.1027320E+00  0.3135250E+00 -0.1328793E+01 -0.7513575E-01  0.3043888E+00
  0.3263390E+01  0.1640620E+02 -0.1027320E+00  0.2439920E+00 -0.1367446E+01 -0.4927464E-01  0.2389647E+00
  0.1639590E+01  0.1664710E+02 -0.1027320E+00  0.1413565E+00 -0.1455884E+01 -0.1620787E-01  0.1404242E+00
 -0.7311870E-06  0.1672760E+02 -0.1027320E+00  0.4430048E-01 -0.2023714E+01  0.1938547E-01  0.3983386E-01
 -0.1639590E+01  0.1664710E+02 -0.1027320E+00  0.8051386E-01  0.2350562E+01  0.5661030E-01 -0.5725168E-01
 -0.3263390E+01  0.1640620E+02 -0.1027320E+00  0.1739551E+00  0.2136455E+01  0.9323504E-01 -0.1468591E+00
 -0.4855770E+01  0.1600730E+02 -0.1027320E+00  0.2373162E+00  0.2102539E+01  0.1203278E+00 -0.2045487E+00
 -0.6401380E+01  0.1545430E+02 -0.1027320E+00  0.2749375E+00  0.2103252E+01  0.1395723E+00 -0.2368760E+00
 -0.7885340E+01  0.1475240E+02 -0.1027320E+00  0.3029073E+00  0.2109736E+01  0.1554600E+00 -0.2599712E+00
 -0.9293360E+01  0.1390850E+02 -0.1027320E+00  0.3209894E+00  0.2122591E+01  0.1682680E+00 -0.2733497E+00
 -0.1061190E+02  0.1293060E+02 -0.1027320E+00  0.3346194E+00  0.2136432E+01  0.1793402E+00 -0.2825017E+00
 -0.1182820E+02  0.1182820E+02 -0.1027320E+00  0.3463943E+00  0.2148715E+01  0.1892288E+00 -0.2901404E+00
 -0.1293060E+02  0.1061190E+02 -0.1027320E+00  0.3555708E+00  0.2159635E+01  0.1974825E+00 -0.2956878E+00
 -0.1390850E+02  0.9293360E+01 -0.1027320E+00  0.3633722E+00  0.2168989E+01  0.2046329E+00 -0.3002744E+00
 -0.1475240E+02  0.7885330E+01 -0.1027320E+00  0.3711699E+00  0.2175574E+01  0.2110395E+00 -0.3053350E+00
 -0.1545430E+02  0.6401370E+01 -0.1027320E+00  0.3783307E+00  0.2179789E+01  0.2164208E+00 -0.3103163E+00
 -0.1600730E+02  0.4855770E+01 -0.1027320E+00  0.3829567E+00  0.2183514E+01  0.2202358E+00 -0.3132923E+00
 -0.1640620E+02  0.3263390E+01 -0.1027320E+00  0.3847664E+00  0.2187131E+01  0.2224134E+00 -0.3139705E+00
 -0.1664710E+02  0.1639590E+01 -0.1027320E+00  0.3841446E+00  0.2190188E+01  0.2230113E+00 -0.3127827E+00
 -0.1672760E+02 -0.1462370E-05 -0.1027320E+00  0.3830121E+00  0.2190253E+01  0.2223742E+00 -0.3118461E+00
 -0.1664710E+02 -0.1639590E+01 -0.1027320E+00  0.3820985E+00  0.2186489E+01  0.2206711E+00 -0.3119352E+00
 -0.1640620E+02 -0.3263400E+01 -0.1027320E+00  0.3806518E+00  0.2179900E+01  0.2177833E+00 -0.3121958E+00
 -0.1600730E+02 -0.4855770E+01 -0.1027320E+00  0.3767951E+00  0.2172863E+01  0.2133967E+00 -0.3105421E+00
 -0.1545430E+02 -0.6401380E+01 -0.1027320E+00  0.3701576E+00  0.2165982E+01  0.2075335E+00 -0.3065069E+00
 -0.1475240E+02 -0.7885340E+01 -0.1027320E+00  0.3609745E+00  0.2158942E+01  0.2002757E+00 -0.3003202E+00
 -0.1390850E+02 -0.9293360E+01 -0.1027320E+00  0.3511254E+00  0.2149340E+01  0.1919971E+00 -0.2939833E+00
 -0.1293060E+02 -0.1061190E+02 -0.1027320E+00  0.3412990E+00  0.2136264E+01  0.1828716E+00 -0.2881718E+00
 -0.1182820E+02 -0.1182820E+02 -0.1027320E+00  0.3300390E+00  0.2121335E+01  0.1726587E+00 -0.2812734E+00
 -0.1061190E+02 -0.1293060E+02 -0.1027320E+00  0.3158824E+00  0.2105325E+01  0.1609216E+00 -0.2718197E+00
 -0.9293350E+01 -0.1390850E+02 -0.1027320E+00  0.2997414E+00  0.2087483E+01  0.1480729E+00 -0.2606133E+00
 -0.7885340E+01 -0.1475240E+02 -0.1027320E+00  0.2788982E+00  0.2070928E+01  0.1337430E+00 -0.2447387E+00
 -0.6401370E+01 -0.1545430E+02 -0.1027320E+00  0.2479228E+00  0.2062596E+01  0.1170725E+00 -0.2185401E+00
 -0.4855760E+01 -0.1600730E+02 -0.1027320E+00  0.2062413E+00  0.2064343E+01  0.9770732E-01 -0.1816281E+00
 -0.3263390E+01 -0.1640620E+02 -0.1027320E+00  0.1378683E+00  0.2128105E+01  0.7291915E-01 -0.1170063E+00
 -0.1639590E+01 -0.1664710E+02 -0.1027320E+00  0.4639854E-01  0.2712384E+01  0.4218998E-01 -0.1930881E-01
  0.1994750E-06 -0.1672760E+02 -0.1027320E+00  0.8191298E-01 -0.1719382E+01  0.1212633E-01  0.8101042E-01
  0.1639600E+01 -0.1664710E+02 -0.1027320E+00  0.1792498E+00 -0.1480894E+01 -0.1609323E-01  0.1785259E+00
  0.3263390E+01 -0.1640620E+02 -0.1027320E+00  0.2724894E+00 -0.1413434E+01 -0.4270282E-01  0.2691225E+00
  0.4855770E+01 -0.1600730E+02 -0.1027320E+00  0.3342353E+00 -0.1373154E+01 -0.6562990E-01  0.3277285E+00
  0.6401380E+01 -0.1545430E+02 -0.1027320E+00  0.3706443E+00 -0.1338870E+01 -0.8519367E-01  0.3607205E+00
  0.7885340E+01 -0.1475240E+02 -0.1027320E+00  0.3978952E+00 -0.1308675E+01 -0.1031065E+00  0.3843041E+00
  0.9293360E+01 -0.1390850E+02 -0.1027320E+00  0.4154522E+00 -0.1280573E+01 -0.1188884E+00  0.3980780E+00
  0.1061190E+02 -0.1293060E+02 -0.1027320E+00  0.4287167E+00 -0.1255203E+01 -0.1330653E+00  0.4075434E+00
  0.1182820E+02 -0.1182820E+02 -0.1027320E+00  0.4403335E+00 -0.1232930E+01 -0.1459596E+00  0.4154387E+00
  0.1293060E+02 -0.1061190E+02 -0.1027320E+00  0.4496798E+00 -0.1212821E+01 -0.1575582E+00  0.4211737E+00
  0.1390850E+02 -0.9293360E+01 -0.1027320E+00  0.4577560E+00 -0.1195524E+01 -0.1677793E+00  0.4258998E+00
