 VARIABLES="X" "Y" "Z" "abs(eta) (m)" "angle(phi) (rad)" "PRE1" "PRE2"
ZONE N=   3200 ,E =    3136 ,F=FEPOINT,ET=QUADRILATERAL
  0.1672760E+02  0.0000000E+00  0.0000000E+00  0.1805012E+00 -0.1201848E+01 -0.6509497E-01  0.1683548E+00
  0.1664710E+02  0.1639590E+01  0.0000000E+00  0.1778640E+00 -0.1198632E+01 -0.6467707E-01  0.1656879E+00
  0.1640620E+02  0.3263390E+01  0.0000000E+00  0.1748857E+00 -0.1198028E+01 -0.6369257E-01  0.1628750E+00
  0.1600730E+02  0.4855770E+01  0.0000000E+00  0.1708983E+00 -0.1200838E+01 -0.6179282E-01  0.1593357E+00
  0.1545430E+02  0.6401380E+01  0.0000000E+00  0.1656796E+00 -0.1207395E+01 -0.5889170E-01  0.1548596E+00
  0.1475240E+02  0.7885340E+01  0.0000000E+00  0.1591733E+00 -0.1218300E+01 -0.5495320E-01  0.1493863E+00
  0.1390850E+02  0.9293360E+01  0.0000000E+00  0.1522856E+00 -0.1233305E+01 -0.5042497E-01  0.1436949E+00
  0.1293060E+02  0.1061190E+02  0.0000000E+00  0.1456196E+00 -0.1251540E+01 -0.4570419E-01  0.1382613E+00
  0.1182820E+02  0.1182820E+02  0.0000000E+00  0.1382006E+00 -0.1274408E+01 -0.4036393E-01  0.1321747E+00
  0.1061190E+02  0.1293060E+02  0.0000000E+00  0.1287602E+00 -0.1305458E+01 -0.3376550E-01  0.1242540E+00
  0.9293360E+01  0.1390850E+02  0.0000000E+00  0.1182371E+00 -0.1345215E+01 -0.2644650E-01  0.1152415E+00
  0.7885330E+01  0.1475240E+02  0.0000000E+00  0.1052292E+00 -0.1401631E+01 -0.1771632E-01  0.1037271E+00
  0.6401380E+01  0.1545430E+02  0.0000000E+00  0.8795682E-01 -0.1496380E+01 -0.6539421E-02  0.8771339E-01
  0.4855770E+01  0.1600730E+02  0.0000000E+00  0.6567699E-01 -0.1699106E+01  0.8403908E-02  0.6513710E-01
  0.3263390E+01  0.1640620E+02  0.0000000E+00  0.4266652E-01 -0.2385871E+01  0.3105170E-01  0.2926131E-01
  0.1639590E+01  0.1664710E+02  0.0000000E+00  0.6303307E-01  0.2850116E+01  0.6037437E-01 -0.1811364E-01
 -0.7311870E-06  0.1672760E+02  0.0000000E+00  0.9869588E-01  0.2556740E+01  0.8229195E-01 -0.5448771E-01
 -0.1639590E+01  0.1664710E+02  0.0000000E+00  0.1198563E+00  0.2461586E+01  0.9319650E-01 -0.7536536E-01
 -0.3263390E+01  0.1640620E+02  0.0000000E+00  0.1254612E+00  0.2419438E+01  0.9414393E-01 -0.8293025E-01
 -0.4855770E+01  0.1600730E+02  0.0000000E+00  0.1239637E+00  0.2400092E+01  0.9141780E-01 -0.8372449E-01
 -0.6401380E+01  0.1545430E+02  0.0000000E+00  0.1209415E+00  0.2392514E+01  0.8856750E-01 -0.8235687E-01
 -0.7885340E+01  0.1475240E+02  0.0000000E+00  0.1191850E+00  0.2387002E+01  0.8683248E-01 -0.8164054E-01
 -0.9293360E+01  0.1390850E+02  0.0000000E+00  0.1160504E+00  0.2388089E+01  0.8463510E-01 -0.7940145E-01
 -0.1061190E+02  0.1293060E+02  0.0000000E+00  0.1127955E+00  0.2390786E+01  0.8246920E-01 -0.7695234E-01
 -0.1182820E+02  0.1182820E+02  0.0000000E+00  0.1095829E+00  0.2392798E+01  0.8027053E-01 -0.7459922E-01
 -0.1293060E+02  0.1061190E+02  0.0000000E+00  0.1067918E+00  0.2393800E+01  0.7829890E-01 -0.7262081E-01
 -0.1390850E+02  0.9293360E+01  0.0000000E+00  0.1039402E+00  0.2394359E+01  0.7624760E-01 -0.7063908E-01
 -0.1475240E+02  0.7885330E+01  0.0000000E+00  0.1009938E+00  0.2393821E+01  0.7404928E-01 -0.6867643E-01
 -0.1545430E+02  0.6401370E+01  0.0000000E+00  0.9810394E-01  0.2391707E+01  0.7178921E-01 -0.6686324E-01
 -0.1600730E+02  0.4855770E+01  0.0000000E+00  0.9490196E-01  0.2390063E+01  0.6933966E-01 -0.6479500E-01
 -0.1640620E+02  0.3263390E+01  0.0000000E+00  0.9116518E-01  0.2390350E+01  0.6662729E-01 -0.6222456E-01
 -0.1664710E+02  0.1639590E+01  0.0000000E+00  0.8696389E-01  0.2393086E+01  0.6371897E-01 -0.5918286E-01
 -0.1672760E+02 -0.1462370E-05  0.0000000E+00  0.8266138E-01  0.2391731E+01  0.6049021E-01 -0.5633682E-01
 -0.1664710E+02 -0.1639590E+01  0.0000000E+00  0.7833701E-01  0.2385601E+01  0.5699734E-01 -0.5374002E-01
 -0.1640620E+02 -0.3263400E+01  0.0000000E+00  0.7374486E-01  0.2378797E+01  0.5331067E-01 -0.5095368E-01
 -0.1600730E+02 -0.4855770E+01  0.0000000E+00  0.6865583E-01  0.2378541E+01  0.4961964E-01 -0.4745012E-01
 -0.1545430E+02 -0.6401380E+01  0.0000000E+00  0.6300466E-01  0.2389898E+01  0.4602696E-01 -0.4302448E-01
 -0.1475240E+02 -0.7885340E+01  0.0000000E+00  0.5687048E-01  0.2418757E+01  0.4264904E-01 -0.3762062E-01
 -0.1390850E+02 -0.9293360E+01  0.0000000E+00  0.5068528E-01  0.2458300E+01  0.3930633E-01 -0.3200017E-01
 -0.1293060E+02 -0.1061190E+02  0.0000000E+00  0.4455329E-01  0.2501369E+01  0.3573007E-01 -0.2661500E-01
 -0.1182820E+02 -0.1182820E+02  0.0000000E+00  0.3824117E-01  0.2573520E+01  0.3223499E-01 -0.2057408E-01
 -0.1061190E+02 -0.1293060E+02  0.0000000E+00  0.3195722E-01  0.2732327E+01  0.2931798E-01 -0.1271694E-01
 -0.9293350E+01 -0.1390850E+02  0.0000000E+00  0.2692510E-01  0.3000753E+01  0.2665850E-01 -0.3779591E-02
 -0.7885340E+01 -0.1475240E+02  0.0000000E+00  0.2581414E-01 -0.2842216E+01  0.2466594E-01  0.7613230E-02
 -0.6401370E+01 -0.1545430E+02  0.0000000E+00  0.3337430E-01 -0.2363115E+01  0.2376196E-01  0.2343530E-01
 -0.4855760E+01 -0.1600730E+02  0.0000000E+00  0.5219597E-01 -0.2076052E+01  0.2526446E-01  0.4567413E-01
 -0.3263390E+01 -0.1640620E+02  0.0000000E+00  0.8679088E-01 -0.1937717E+01  0.3113558E-01  0.8101378E-01
 -0.1639590E+01 -0.1664710E+02  0.0000000E+00  0.1339094E+00 -0.1873829E+01  0.3996079E-01  0.1278079E+00
  0.1994750E-06 -0.1672760E+02  0.0000000E+00  0.1692804E+00 -0.1819927E+01  0.4173800E-01  0.1640542E+00
  0.1639600E+01 -0.1664710E+02  0.0000000E+00  0.1883856E+00 -0.1750503E+01  0.3367215E-01  0.1853519E+00
  0.3263390E+01 -0.1640620E+02  0.0000000E+00  0.1945363E+00 -0.1659649E+01  0.1726231E-01  0.1937689E+00
  0.4855770E+01 -0.1600730E+02  0.0000000E+00  0.1953131E+00 -0.1577364E+01  0.1282754E-02  0.1953089E+00
  0.6401380E+01 -0.1545430E+02  0.0000000E+00  0.1947725E+00 -0.1511949E+01 -0.1145517E-01  0.1944353E+00
  0.7885340E+01 -0.1475240E+02  0.0000000E+00  0.1952128E+00 -0.1460467E+01 -0.2149399E-01  0.1940259E+00
  0.9293360E+01 -0.1390850E+02  0.0000000E+00  0.1943460E+00 -0.1414603E+01 -0.3023236E-01  0.1919801E+00
  0.1061190E+02 -0.1293060E+02  0.0000000E+00  0.1933690E+00 -0.1374458E+01 -0.3772232E-01  0.1896539E+00
  0.1182820E+02 -0.1182820E+02  0.0000000E+00  0.1925326E+00 -0.1338732E+01 -0.4428003E-01  0.1873716E+00
  0.1293060E+02 -0.1061190E+02  0.0000000E+00  0.1918984E+00 -0.1309616E+01 -0.4955224E-01  0.1853903E+00
  0.1390850E+02 -0.9293360E+01  0.0000000E+00  0.1911528E+00 -0.1284459E+01 -0.5398939E-01  0.1833699E+00
  0.1475240E+02 -0.7885330E+01  0.0000000E+00  0.1903430E+00 -0.1262176E+01 -0.5781554E-01  0.1813500E+00
  0.1545430E+02 -0.6401380E+01  0.0000000E+00  0.1894914E+00 -0.1243758E+01 -0.6087217E-01  0.1794479E+00
  0.1600730E+02 -0.4855760E+01  0.0000000E+00  0.1881471E+00 -0.1228903E+01 -0.6308034E-01  0.1772575E+00
  0.1640620E+02 -0.3263390E+01  0.0000000E+00  0.1860687E+00 -0.1216918E+01 -0.6448002E-01  0.1745391E+00
  0.1664710E+02 -0.1639590E+01  0.0000000E+00  0.1832614E+00 -0.1207914E+01 -0.6505236E-01  0.1713270E+00
  0.1672760E+02  0.0000000E+00 -0.2568960E-01  0.1802910E+00 -0.1201840E+01 -0.6502048E-01  0.1681582E+00
  0.1664710E+02  0.1639590E+01 -0.2568960E-01  0.1776550E+00 -0.1198626E+01 -0.6460214E-01  0.1654928E+00
  0.1640620E+02  0.3263390E+01 -0.2568960E-01  0.1746776E+00 -0.1198031E+01 -0.6361614E-01  0.1626814E+00
  0.1600730E+02  0.4855770E+01 -0.2568960E-01  0.1706961E+00 -0.1200843E+01 -0.6171892E-01  0.1591475E+00
  0.1545430E+02  0.6401380E+01 -0.2568960E-01  0.1654883E+00 -0.1207408E+01 -0.5882172E-01  0.1546816E+00
  0.1475240E+02  0.7885340E+01 -0.2568960E-01  0.1589989E+00 -0.1218308E+01 -0.5489189E-01  0.1492231E+00
  0.1390850E+02  0.9293360E+01 -0.2568960E-01  0.1521248E+00 -0.1233313E+01 -0.5037061E-01  0.1435436E+00
  0.1293060E+02  0.1061190E+02 -0.2568960E-01  0.1454644E+00 -0.1251547E+01 -0.4565459E-01  0.1381143E+00
  0.1182820E+02  0.1182820E+02 -0.2568960E-01  0.1380493E+00 -0.1274418E+01 -0.4031841E-01  0.1320304E+00
  0.1061190E+02  0.1293060E+02 -0.2568960E-01  0.1286249E+00 -0.1305462E+01 -0.3372961E-01  0.1241236E+00
  0.9293360E+01  0.1390850E+02 -0.2568960E-01  0.1181107E+00 -0.1345223E+01 -0.2641720E-01  0.1151185E+00
  0.7885330E+01  0.1475240E+02 -0.2568960E-01  0.1051138E+00 -0.1401649E+01 -0.1769503E-01  0.1036137E+00
  0.6401380E+01  0.1545430E+02 -0.2568960E-01  0.8786249E-01 -0.1496401E+01 -0.6530516E-02  0.8761946E-01
  0.4855770E+01  0.1600730E+02 -0.2568960E-01  0.6560482E-01 -0.1699164E+01  0.8398435E-02  0.6506503E-01
  0.3263390E+01  0.1640620E+02 -0.2568960E-01  0.4261982E-01 -0.2386088E+01  0.3102407E-01  0.2922253E-01
  0.1639590E+01  0.1664710E+02 -0.2568960E-01  0.6298707E-01  0.2849834E+01  0.6032521E-01 -0.1811739E-01
 -0.7311870E-06  0.1672760E+02 -0.2568960E-01  0.9862126E-01  0.2556609E+01  0.8222263E-01 -0.5445726E-01
 -0.1639590E+01  0.1664710E+02 -0.2568960E-01  0.1197461E+00  0.2461555E+01  0.9310851E-01 -0.7529899E-01
 -0.3263390E+01  0.1640620E+02 -0.2568960E-01  0.1253435E+00  0.2419405E+01  0.9405293E-01 -0.8285553E-01
 -0.4855770E+01  0.1600730E+02 -0.2568960E-01  0.1238407E+00  0.2400072E+01  0.9132542E-01 -0.8364326E-01
 -0.6401380E+01  0.1545430E+02 -0.2568960E-01  0.1208249E+00  0.2392483E+01  0.8847960E-01 -0.8228017E-01
 -0.7885340E+01  0.1475240E+02 -0.2568960E-01  0.1190576E+00  0.2386998E+01  0.8673935E-01 -0.8155366E-01
 -0.9293360E+01  0.1390850E+02 -0.2568960E-01  0.1159300E+00  0.2388075E+01  0.8454617E-01 -0.7932024E-01
 -0.1061190E+02  0.1293060E+02 -0.2568960E-01  0.1126790E+00  0.2390762E+01  0.8238211E-01 -0.7687487E-01
 -0.1182820E+02  0.1182820E+02 -0.2568960E-01  0.1094710E+00  0.2392776E+01  0.8018693E-01 -0.7452480E-01
 -0.1293060E+02  0.1061190E+02 -0.2568960E-01  0.1066814E+00  0.2393778E+01  0.7821634E-01 -0.7254743E-01
 -0.1390850E+02  0.9293360E+01 -0.2568960E-01  0.1038309E+00  0.2394339E+01  0.7616602E-01 -0.7056627E-01
 -0.1475240E+02  0.7885330E+01 -0.2568960E-01  0.1008847E+00  0.2393813E+01  0.7396877E-01 -0.6860285E-01
 -0.1545430E+02  0.6401370E+01 -0.2568960E-01  0.9799290E-01  0.2391725E+01  0.7170916E-01 -0.6678626E-01
 -0.1600730E+02  0.4855770E+01 -0.2568960E-01  0.9479004E-01  0.2390097E+01  0.6926011E-01 -0.6471621E-01
 -0.1640620E+02  0.3263390E+01 -0.2568960E-01  0.9105644E-01  0.2390398E+01  0.6655080E-01 -0.6214714E-01
 -0.1664710E+02  0.1639590E+01 -0.2568960E-01  0.8686046E-01  0.2393128E+01  0.6364567E-01 -0.5910979E-01
 -0.1672760E+02 -0.1462370E-05 -0.2568960E-01  0.8256343E-01  0.2391781E+01  0.6042133E-01 -0.5626707E-01
 -0.1664710E+02 -0.1639590E+01 -0.2568960E-01  0.7824281E-01  0.2385668E+01  0.5693241E-01 -0.5367157E-01
 -0.1640620E+02 -0.3263400E+01 -0.2568960E-01  0.7365567E-01  0.2378889E+01  0.5325092E-01 -0.5088711E-01
 -0.1600730E+02 -0.4855770E+01 -0.2568960E-01  0.6857426E-01  0.2378642E+01  0.4956547E-01 -0.4738875E-01
 -0.1545430E+02 -0.6401380E+01 -0.2568960E-01  0.6293381E-01  0.2389955E+01  0.4597765E-01 -0.4297348E-01
 -0.1475240E+02 -0.7885340E+01 -0.2568960E-01  0.5681110E-01  0.2418696E+01  0.4260223E-01 -0.3758392E-01
 -0.1390850E+02 -0.9293360E+01 -0.2568960E-01  0.5063565E-01  0.2458132E+01  0.3926249E-01 -0.3197540E-01
 -0.1293060E+02 -0.1061190E+02 -0.2568960E-01  0.4451036E-01  0.2501226E+01  0.3569182E-01 -0.2659447E-01
 -0.1182820E+02 -0.1182820E+02 -0.2568960E-01  0.3820404E-01  0.2573439E+01  0.3220204E-01 -0.2055670E-01
 -0.1061190E+02 -0.1293060E+02 -0.2568960E-01  0.3192689E-01  0.2732039E+01  0.2928649E-01 -0.1271328E-01
 -0.9293350E+01 -0.1390850E+02 -0.2568960E-01  0.2689827E-01  0.3000478E+01  0.2663089E-01 -0.3783169E-02
 -0.7885340E+01 -0.1475240E+02 -0.2568960E-01  0.2578624E-01 -0.2842400E+01  0.2464068E-01  0.7600454E-02
 -0.6401370E+01 -0.1545430E+02 -0.2568960E-01  0.3333615E-01 -0.2363345E+01  0.2374016E-01  0.2340307E-01
 -0.4855760E+01 -0.1600730E+02 -0.2568960E-01  0.5213788E-01 -0.2076175E+01  0.2524199E-01  0.4562017E-01
 -0.3263390E+01 -0.1640620E+02 -0.2568960E-01  0.8670026E-01 -0.1937798E+01  0.3110962E-01  0.8092667E-01
 -0.1639590E+01 -0.1664710E+02 -0.2568960E-01  0.1337852E+00 -0.1873903E+01  0.3993308E-01  0.1276865E+00
  0.1994750E-06 -0.1672760E+02 -0.2568960E-01  0.1691229E+00 -0.1820013E+01  0.4171337E-01  0.1638980E+00
  0.1639600E+01 -0.1664710E+02 -0.2568960E-01  0.1881925E+00 -0.1750572E+01  0.3365058E-01  0.1851596E+00
  0.3263390E+01 -0.1640620E+02 -0.2568960E-01  0.1943357E+00 -0.1659701E+01  0.1725468E-01  0.1935682E+00
  0.4855770E+01 -0.1600730E+02 -0.2568960E-01  0.1951050E+00 -0.1577403E+01  0.1288966E-02  0.1951008E+00
  0.6401380E+01 -0.1545430E+02 -0.2568960E-01  0.1945675E+00 -0.1511989E+01 -0.1143548E-01  0.1942312E+00
  0.7885340E+01 -0.1475240E+02 -0.2568960E-01  0.1949967E+00 -0.1460483E+01 -0.2146714E-01  0.1938115E+00
  0.9293360E+01 -0.1390850E+02 -0.2568960E-01  0.1941341E+00 -0.1414624E+01 -0.3019531E-01  0.1917715E+00
  0.1061190E+02 -0.1293060E+02 -0.2568960E-01  0.1931591E+00 -0.1374476E+01 -0.3767785E-01  0.1894488E+00
  0.1182820E+02 -0.1182820E+02 -0.2568960E-01  0.1923234E+00 -0.1338760E+01 -0.4422662E-01  0.1871691E+00
  0.1293060E+02 -0.1061190E+02 -0.2568960E-01  0.1916891E+00 -0.1309639E+01 -0.4949382E-01  0.1851893E+00
  0.1390850E+02 -0.9293360E+01 -0.2568960E-01  0.1909429E+00 -0.1284472E+01 -0.5392773E-01  0.1831693E+00
  0.1475240E+02 -0.7885330E+01 -0.2568960E-01  0.1901307E+00 -0.1262188E+01 -0.5774900E-01  0.1811484E+00
  0.1545430E+02 -0.6401380E+01 -0.2568960E-01  0.1892752E+00 -0.1243760E+01 -0.6080243E-01  0.1792434E+00
  0.1600730E+02 -0.4855760E+01 -0.2568960E-01  0.1879282E+00 -0.1228899E+01 -0.6300773E-01  0.1770510E+00
  0.1640620E+02 -0.3263390E+01 -0.2568960E-01  0.1858510E+00 -0.1216909E+01 -0.6440607E-01  0.1743343E+00
  0.1664710E+02 -0.1639590E+01 -0.2568960E-01  0.1830482E+00 -0.1207902E+01 -0.6497867E-01  0.1711269E+00
  0.1672760E+02  0.0000000E+00 -0.1027320E+00  0.1796588E+00 -0.1201822E+01 -0.6479552E-01  0.1675674E+00
  0.1664710E+02  0.1639590E+01 -0.1027320E+00  0.1770246E+00 -0.1198618E+01 -0.6437419E-01  0.1649050E+00
  0.1640620E+02  0.3263390E+01 -0.1027320E+00  0.1740510E+00 -0.1198041E+01 -0.6338643E-01  0.1620985E+00
  0.1600730E+02  0.4855770E+01 -0.1027320E+00  0.1700865E+00 -0.1200871E+01 -0.6149407E-01  0.1585809E+00
  0.1545430E+02  0.6401380E+01 -0.1027320E+00  0.1649118E+00 -0.1207446E+01 -0.5861097E-01  0.1541449E+00
  0.1475240E+02  0.7885340E+01 -0.1027320E+00  0.1584714E+00 -0.1218334E+01 -0.5470587E-01  0.1487294E+00
  0.1390850E+02  0.9293360E+01 -0.1027320E+00  0.1516387E+00 -0.1233320E+01 -0.5020864E-01  0.1430853E+00
  0.1293060E+02  0.1061190E+02 -0.1027320E+00  0.1449943E+00 -0.1251570E+01 -0.4550387E-01  0.1376689E+00
  0.1182820E+02  0.1182820E+02 -0.1027320E+00  0.1375902E+00 -0.1274473E+01 -0.4017719E-01  0.1315936E+00
  0.1061190E+02  0.1293060E+02 -0.1027320E+00  0.1282156E+00 -0.1305472E+01 -0.3362097E-01  0.1237290E+00
  0.9293360E+01  0.1390850E+02 -0.1027320E+00  0.1177277E+00 -0.1345254E+01 -0.2632803E-01  0.1147460E+00
  0.7885330E+01  0.1475240E+02 -0.1027320E+00  0.1047649E+00 -0.1401706E+01 -0.1763042E-01  0.1032707E+00
  0.6401380E+01  0.1545430E+02 -0.1027320E+00  0.8757677E-01 -0.1496457E+01 -0.6504363E-02  0.8733489E-01
  0.4855770E+01  0.1600730E+02 -0.1027320E+00  0.6538457E-01 -0.1699318E+01  0.8380199E-02  0.6484531E-01
  0.3263390E+01  0.1640620E+02 -0.1027320E+00  0.4248223E-01 -0.2386457E+01  0.3093466E-01  0.2911678E-01
  0.1639590E+01  0.1664710E+02 -0.1027320E+00  0.6284446E-01  0.2849041E+01  0.6017427E-01 -0.1812409E-01
 -0.7311870E-06  0.1672760E+02 -0.1027320E+00  0.9838694E-01  0.2556289E+01  0.8200990E-01 -0.5435407E-01
 -0.1639590E+01  0.1664710E+02 -0.1027320E+00  0.1194065E+00  0.2461465E+01  0.9283763E-01 -0.7509379E-01
 -0.3263390E+01  0.1640620E+02 -0.1027320E+00  0.1249876E+00  0.2419300E+01  0.9377724E-01 -0.8263011E-01
 -0.4855770E+01  0.1600730E+02 -0.1027320E+00  0.1234683E+00  0.2400007E+01  0.9104536E-01 -0.8339769E-01
 -0.6401380E+01  0.1545430E+02 -0.1027320E+00  0.1204732E+00  0.2392390E+01  0.8821438E-01 -0.8204891E-01
 -0.7885340E+01  0.1475240E+02 -0.1027320E+00  0.1186734E+00  0.2386985E+01  0.8645837E-01 -0.8129165E-01
 -0.9293360E+01  0.1390850E+02 -0.1027320E+00  0.1155656E+00  0.2388026E+01  0.8427656E-01 -0.7907502E-01
 -0.1061190E+02  0.1293060E+02 -0.1027320E+00  0.1123276E+00  0.2390698E+01  0.8212037E-01 -0.7664034E-01
 -0.1182820E+02  0.1182820E+02 -0.1027320E+00  0.1091316E+00  0.2392716E+01  0.7993393E-01 -0.7429858E-01
 -0.1293060E+02  0.1061190E+02 -0.1027320E+00  0.1063490E+00  0.2393720E+01  0.7796845E-01 -0.7232590E-01
 -0.1390850E+02  0.9293360E+01 -0.1027320E+00  0.1035014E+00  0.2394295E+01  0.7592119E-01 -0.7034568E-01
 -0.1475240E+02  0.7885330E+01 -0.1027320E+00  0.1005561E+00  0.2393812E+01  0.7372774E-01 -0.6837945E-01
 -0.1545430E+02  0.6401370E+01 -0.1027320E+00  0.9765933E-01  0.2391798E+01  0.7146993E-01 -0.6655369E-01
 -0.1600730E+02  0.4855770E+01 -0.1027320E+00  0.9445544E-01  0.2390239E+01  0.6902477E-01 -0.6447799E-01
 -0.1640620E+02  0.3263390E+01 -0.1027320E+00  0.9072991E-01  0.2390574E+01  0.6632301E-01 -0.6191265E-01
 -0.1664710E+02  0.1639590E+01 -0.1027320E+00  0.8654948E-01  0.2393273E+01  0.6342632E-01 -0.5888901E-01
 -0.1672760E+02 -0.1462370E-05 -0.1027320E+00  0.8226852E-01  0.2391953E+01  0.6021516E-01 -0.5605572E-01
 -0.1664710E+02 -0.1639590E+01 -0.1027320E+00  0.7796139E-01  0.2385932E+01  0.5674177E-01 -0.5346353E-01
 -0.1640620E+02 -0.3263400E+01 -0.1027320E+00  0.7338885E-01  0.2379252E+01  0.5307639E-01 -0.5068353E-01
 -0.1600730E+02 -0.4855770E+01 -0.1027320E+00  0.6832991E-01  0.2379013E+01  0.4940636E-01 -0.4720156E-01
 -0.1545430E+02 -0.6401380E+01 -0.1027320E+00  0.6271901E-01  0.2390189E+01  0.4583074E-01 -0.4281609E-01
 -0.1475240E+02 -0.7885340E+01 -0.1027320E+00  0.5663161E-01  0.2418593E+01  0.4246376E-01 -0.3746957E-01
 -0.1390850E+02 -0.9293360E+01 -0.1027320E+00  0.5048458E-01  0.2457723E+01  0.3913229E-01 -0.3189602E-01
 -0.1293060E+02 -0.1061190E+02 -0.1027320E+00  0.4437870E-01  0.2500890E+01  0.3557735E-01 -0.2652775E-01
 -0.1182820E+02 -0.1182820E+02 -0.1027320E+00  0.3809000E-01  0.2573343E+01  0.3210394E-01 -0.2049842E-01
 -0.1061190E+02 -0.1293060E+02 -0.1027320E+00  0.3183457E-01  0.2731339E+01  0.2919293E-01 -0.1269697E-01
 -0.9293350E+01 -0.1390850E+02 -0.1027320E+00  0.2681748E-01  0.2999829E+01  0.2654846E-01 -0.3789031E-02
 -0.7885340E+01 -0.1475240E+02 -0.1027320E+00  0.2570465E-01 -0.2842851E+01  0.2456613E-01  0.7565343E-02
 -0.6401370E+01 -0.1545430E+02 -0.1027320E+00  0.3322425E-01 -0.2363974E+01  0.2367515E-01  0.2330961E-01
 -0.4855760E+01 -0.1600730E+02 -0.1027320E+00  0.5196697E-01 -0.2076486E+01  0.2517335E-01  0.4546282E-01
 -0.3263390E+01 -0.1640620E+02 -0.1027320E+00  0.8641919E-01 -0.1938035E+01  0.3102787E-01  0.8065698E-01
 -0.1639590E+01 -0.1664710E+02 -0.1027320E+00  0.1334075E+00 -0.1874082E+01  0.3984319E-01  0.1273188E+00
  0.1994750E-06 -0.1672760E+02 -0.1027320E+00  0.1686393E+00 -0.1820243E+01  0.4163162E-01  0.1634198E+00
  0.1639600E+01 -0.1664710E+02 -0.1027320E+00  0.1876087E+00 -0.1750757E+01  0.3358017E-01  0.1845790E+00
  0.3263390E+01 -0.1640620E+02 -0.1027320E+00  0.1937325E+00 -0.1659831E+01  0.1722621E-01  0.1929651E+00
  0.4855770E+01 -0.1600730E+02 -0.1027320E+00  0.1944802E+00 -0.1577497E+01  0.1303101E-02  0.1944758E+00
  0.6401380E+01 -0.1545430E+02 -0.1027320E+00  0.1939529E+00 -0.1512102E+01 -0.1137732E-01  0.1936189E+00
  0.7885340E+01 -0.1475240E+02 -0.1027320E+00  0.1943483E+00 -0.1460528E+01 -0.2138709E-01  0.1931679E+00
  0.9293360E+01 -0.1390850E+02 -0.1027320E+00  0.1934974E+00 -0.1414676E+01 -0.3008632E-01  0.1911440E+00
  0.1061190E+02 -0.1293060E+02 -0.1027320E+00  0.1925284E+00 -0.1374525E+01 -0.3754562E-01  0.1888320E+00
  0.1182820E+02 -0.1182820E+02 -0.1027320E+00  0.1916945E+00 -0.1338832E+01 -0.4406854E-01  0.1865603E+00
  0.1293060E+02 -0.1061190E+02 -0.1027320E+00  0.1910610E+00 -0.1309693E+01 -0.4932180E-01  0.1845851E+00
  0.1390850E+02 -0.9293360E+01 -0.1027320E+00  0.1903125E+00 -0.1284508E+01 -0.5374299E-01  0.1825666E+00
