 VARIABLES="X" "Y" "Z" "abs(eta) (m)" "angle(phi) (rad)" "PRE1" "PRE2"
ZONE N=   3200 ,E =    3136 ,F=FEPOINT,ET=QUADRILATERAL
  0.1672760E+02  0.0000000E+00  0.0000000E+00  0.4612066E+00 -0.8966417E+00 -0.2879023E+00  0.3603107E+00
  0.1664710E+02  0.1639590E+01  0.0000000E+00  0.4591955E+00 -0.8922784E+00 -0.2882094E+00  0.3574854E+00
  0.1640620E+02  0.3263390E+01  0.0000000E+00  0.4554644E+00 -0.8908682E+00 -0.2863674E+00  0.3541773E+00
  0.1600730E+02  0.4855770E+01  0.0000000E+00  0.4518131E+00 -0.8936346E+00 -0.2830987E+00  0.3521225E+00
  0.1545430E+02  0.6401380E+01  0.0000000E+00  0.4489574E+00 -0.9011113E+00 -0.2786854E+00  0.3519903E+00
  0.1475240E+02  0.7885340E+01  0.0000000E+00  0.4455758E+00 -0.9120699E+00 -0.2727415E+00  0.3523491E+00
  0.1390850E+02  0.9293360E+01  0.0000000E+00  0.4383361E+00 -0.9247304E+00 -0.2639002E+00  0.3499932E+00
  0.1293060E+02  0.1061190E+02  0.0000000E+00  0.4236170E+00 -0.9380742E+00 -0.2505026E+00  0.3416136E+00
  0.1182820E+02  0.1182820E+02  0.0000000E+00  0.4085837E+00 -0.9551597E+00 -0.2359482E+00  0.3335702E+00
  0.1061190E+02  0.1293060E+02  0.0000000E+00  0.3914807E+00 -0.9752803E+00 -0.2195956E+00  0.3240909E+00
  0.9293360E+01  0.1390850E+02  0.0000000E+00  0.3676096E+00 -0.9982418E+00 -0.1991639E+00  0.3089832E+00
  0.7885330E+01  0.1475240E+02  0.0000000E+00  0.3413627E+00 -0.1025013E+01 -0.1771973E+00  0.2917697E+00
  0.6401380E+01  0.1545430E+02  0.0000000E+00  0.3053593E+00 -0.1057324E+01 -0.1499940E+00  0.2659814E+00
  0.4855770E+01  0.1600730E+02  0.0000000E+00  0.2524341E+00 -0.1101801E+01 -0.1140977E+00  0.2251770E+00
  0.3263390E+01  0.1640620E+02  0.0000000E+00  0.1716163E+00 -0.1188648E+01 -0.6399821E-01  0.1592369E+00
  0.1639590E+01  0.1664710E+02  0.0000000E+00  0.6285527E-01 -0.1653512E+01  0.5193161E-02  0.6264037E-01
 -0.7311870E-06  0.1672760E+02  0.0000000E+00  0.7452776E-01  0.2816485E+01  0.7062373E-01 -0.2380494E-01
 -0.1639590E+01  0.1664710E+02  0.0000000E+00  0.1592048E+00  0.2503852E+01  0.1279120E+00 -0.9478759E-01
 -0.3263390E+01  0.1640620E+02  0.0000000E+00  0.2336725E+00  0.2426230E+01  0.1763889E+00 -0.1532637E+00
 -0.4855770E+01  0.1600730E+02  0.0000000E+00  0.2778311E+00  0.2408684E+01  0.2064929E+00 -0.1858786E+00
 -0.6401380E+01  0.1545430E+02  0.0000000E+00  0.3064084E+00  0.2407054E+01  0.2273979E+00 -0.2053687E+00
 -0.7885340E+01  0.1475240E+02  0.0000000E+00  0.3237976E+00  0.2414687E+01  0.2419527E+00 -0.2151831E+00
 -0.9293360E+01  0.1390850E+02  0.0000000E+00  0.3354502E+00  0.2425342E+01  0.2530210E+00 -0.2202435E+00
 -0.1061190E+02  0.1293060E+02  0.0000000E+00  0.3469365E+00  0.2433552E+01  0.2635459E+00 -0.2256290E+00
 -0.1182820E+02  0.1182820E+02  0.0000000E+00  0.3535978E+00  0.2443646E+01  0.2709137E+00 -0.2272382E+00
 -0.1293060E+02  0.1061190E+02  0.0000000E+00  0.3588151E+00  0.2452837E+01  0.2770188E+00 -0.2280545E+00
 -0.1390850E+02  0.9293360E+01  0.0000000E+00  0.3636024E+00  0.2459594E+01  0.2822697E+00 -0.2291954E+00
 -0.1475240E+02  0.7885330E+01  0.0000000E+00  0.3626463E+00  0.2469611E+01  0.2838033E+00 -0.2257610E+00
 -0.1545430E+02  0.6401370E+01  0.0000000E+00  0.3588905E+00  0.2479913E+01  0.2831508E+00 -0.2205176E+00
 -0.1600730E+02  0.4855770E+01  0.0000000E+00  0.3548733E+00  0.2486664E+01  0.2814468E+00 -0.2161544E+00
 -0.1640620E+02  0.3263390E+01  0.0000000E+00  0.3513829E+00  0.2487780E+01  0.2789174E+00 -0.2137171E+00
 -0.1664710E+02  0.1639590E+01  0.0000000E+00  0.3476549E+00  0.2484959E+01  0.2753607E+00 -0.2122272E+00
 -0.1672760E+02 -0.1462370E-05  0.0000000E+00  0.3426457E+00  0.2480050E+01  0.2703631E+00 -0.2104991E+00
 -0.1664710E+02 -0.1639590E+01  0.0000000E+00  0.3362491E+00  0.2473547E+01  0.2639670E+00 -0.2082904E+00
 -0.1640620E+02 -0.3263400E+01  0.0000000E+00  0.3285322E+00  0.2465349E+01  0.2562318E+00 -0.2056177E+00
 -0.1600730E+02 -0.4855770E+01  0.0000000E+00  0.3204487E+00  0.2451143E+01  0.2470530E+00 -0.2040887E+00
 -0.1545430E+02 -0.6401380E+01  0.0000000E+00  0.3125844E+00  0.2429100E+01  0.2365434E+00 -0.2043434E+00
 -0.1475240E+02 -0.7885340E+01  0.0000000E+00  0.3040968E+00  0.2401932E+01  0.2246355E+00 -0.2049726E+00
 -0.1390850E+02 -0.9293360E+01  0.0000000E+00  0.2929153E+00  0.2376584E+01  0.2113022E+00 -0.2028565E+00
 -0.1293060E+02 -0.1061190E+02  0.0000000E+00  0.2767007E+00  0.2360855E+01  0.1965667E+00 -0.1947429E+00
 -0.1182820E+02 -0.1182820E+02  0.0000000E+00  0.2600003E+00  0.2339405E+01  0.1807354E+00 -0.1869087E+00
 -0.1061190E+02 -0.1293060E+02  0.0000000E+00  0.2415797E+00  0.2315668E+01  0.1637614E+00 -0.1776034E+00
 -0.9293350E+01 -0.1390850E+02  0.0000000E+00  0.2183995E+00  0.2301282E+01  0.1457231E+00 -0.1626749E+00
 -0.7885340E+01 -0.1475240E+02  0.0000000E+00  0.1931216E+00  0.2287178E+01  0.1268153E+00 -0.1456497E+00
 -0.6401370E+01 -0.1545430E+02  0.0000000E+00  0.1610423E+00  0.2299527E+01  0.1072418E+00 -0.1201408E+00
 -0.4855760E+01 -0.1600730E+02  0.0000000E+00  0.1179780E+00  0.2399101E+01  0.8692458E-01 -0.7976799E-01
 -0.3263390E+01 -0.1640620E+02  0.0000000E+00  0.6848747E-01  0.2926954E+01  0.6691591E-01 -0.1458746E-01
 -0.1639590E+01 -0.1664710E+02  0.0000000E+00  0.9359038E-01 -0.2089058E+01  0.4636196E-01  0.8130023E-01
  0.1994750E-06 -0.1672760E+02  0.0000000E+00  0.1693714E+00 -0.1699880E+01  0.2180233E-01  0.1679623E+00
  0.1639600E+01 -0.1664710E+02  0.0000000E+00  0.2404911E+00 -0.1531271E+01 -0.9503026E-02  0.2403032E+00
  0.3263390E+01 -0.1640620E+02  0.0000000E+00  0.3046180E+00 -0.1415542E+01 -0.4710336E-01  0.3009542E+00
  0.4855770E+01 -0.1600730E+02  0.0000000E+00  0.3455496E+00 -0.1328423E+01 -0.8293455E-01  0.3354495E+00
  0.6401380E+01 -0.1545430E+02  0.0000000E+00  0.3740394E+00 -0.1261087E+01 -0.1140004E+00  0.3562434E+00
  0.7885340E+01 -0.1475240E+02  0.0000000E+00  0.3933595E+00 -0.1202651E+01 -0.1415645E+00  0.3670029E+00
  0.9293360E+01 -0.1390850E+02  0.0000000E+00  0.4080821E+00 -0.1151279E+01 -0.1662197E+00  0.3726956E+00
  0.1061190E+02 -0.1293060E+02  0.0000000E+00  0.4227779E+00 -0.1108747E+01 -0.1884674E+00  0.3784458E+00
  0.1182820E+02 -0.1182820E+02  0.0000000E+00  0.4335052E+00 -0.1069694E+01 -0.2082527E+00  0.3802072E+00
  0.1293060E+02 -0.1061190E+02  0.0000000E+00  0.4429309E+00 -0.1035641E+01 -0.2258834E+00  0.3810045E+00
  0.1390850E+02 -0.9293360E+01  0.0000000E+00  0.4520158E+00 -0.1006726E+01 -0.2416615E+00  0.3819922E+00
  0.1475240E+02 -0.7885330E+01  0.0000000E+00  0.4561059E+00 -0.9779654E+00 -0.2548314E+00  0.3782770E+00
  0.1545430E+02 -0.6401380E+01  0.0000000E+00  0.4575394E+00 -0.9516115E+00 -0.2655428E+00  0.3725981E+00
  0.1600730E+02 -0.4855760E+01  0.0000000E+00  0.4586122E+00 -0.9302385E+00 -0.2740863E+00  0.3676981E+00
  0.1640620E+02 -0.3263390E+01  0.0000000E+00  0.4602263E+00 -0.9147709E+00 -0.2807252E+00  0.3646938E+00
  0.1664710E+02 -0.1639590E+01  0.0000000E+00  0.4614660E+00 -0.9040071E+00 -0.2854011E+00  0.3626253E+00
  0.1672760E+02  0.0000000E+00 -0.2568960E-01  0.4606151E+00 -0.8966762E+00 -0.2875206E+00  0.3598585E+00
  0.1664710E+02  0.1639590E+01 -0.2568960E-01  0.4586083E+00 -0.8923135E+00 -0.2878284E+00  0.3570384E+00
  0.1640620E+02  0.3263390E+01 -0.2568960E-01  0.4548857E+00 -0.8909035E+00 -0.2859910E+00  0.3537374E+00
  0.1600730E+02  0.4855770E+01 -0.2568960E-01  0.4512340E+00 -0.8936619E+00 -0.2827262E+00  0.3516788E+00
  0.1545430E+02  0.6401380E+01 -0.2568960E-01  0.4483639E+00 -0.9011287E+00 -0.2783109E+00  0.3515299E+00
  0.1475240E+02  0.7885340E+01 -0.2568960E-01  0.4449615E+00 -0.9120731E+00 -0.2723644E+00  0.3518642E+00
  0.1390850E+02  0.9293360E+01 -0.2568960E-01  0.4377219E+00 -0.9247289E+00 -0.2635309E+00  0.3495024E+00
  0.1293060E+02  0.1061190E+02 -0.2568960E-01  0.4230499E+00 -0.9380832E+00 -0.2501642E+00  0.3411585E+00
  0.1182820E+02  0.1182820E+02 -0.2568960E-01  0.4080424E+00 -0.9551695E+00 -0.2356324E+00  0.3331305E+00
  0.1061190E+02  0.1293060E+02 -0.2568960E-01  0.3909553E+00 -0.9752874E+00 -0.2192986E+00  0.3236575E+00
  0.9293360E+01  0.1390850E+02 -0.2568960E-01  0.3671402E+00 -0.9982513E+00 -0.1989066E+00  0.3085904E+00
  0.7885330E+01  0.1475240E+02 -0.2568960E-01  0.3409184E+00 -0.1025018E+01 -0.1769651E+00  0.2913910E+00
  0.6401380E+01  0.1545430E+02 -0.2568960E-01  0.3049663E+00 -0.1057331E+01 -0.1497991E+00  0.2656401E+00
  0.4855770E+01  0.1600730E+02 -0.2568960E-01  0.2521345E+00 -0.1101790E+01 -0.1139648E+00  0.2249085E+00
  0.3263390E+01  0.1640620E+02 -0.2568960E-01  0.1713850E+00 -0.1188659E+01 -0.6391017E-01  0.1590230E+00
  0.1639590E+01  0.1664710E+02 -0.2568960E-01  0.6275525E-01 -0.1653605E+01  0.5190760E-02  0.6254020E-01
 -0.7311870E-06  0.1672760E+02 -0.2568960E-01  0.7444828E-01  0.2816220E+01  0.7054210E-01 -0.2379827E-01
 -0.1639590E+01  0.1664710E+02 -0.2568960E-01  0.1590349E+00  0.2503734E+01  0.1277643E+00 -0.9470154E-01
 -0.3263390E+01  0.1640620E+02 -0.2568960E-01  0.2333819E+00  0.2426197E+01  0.1761645E+00 -0.1530790E+00
 -0.4855770E+01  0.1600730E+02 -0.2568960E-01  0.2775097E+00  0.2408636E+01  0.2062451E+00 -0.1856734E+00
 -0.6401380E+01  0.1545430E+02 -0.2568960E-01  0.3060201E+00  0.2407029E+01  0.2271048E+00 -0.2051140E+00
 -0.7885340E+01  0.1475240E+02 -0.2568960E-01  0.3233851E+00  0.2414662E+01  0.2416391E+00 -0.2149151E+00
 -0.9293360E+01  0.1390850E+02 -0.2568960E-01  0.3350306E+00  0.2425313E+01  0.2526979E+00 -0.2199756E+00
 -0.1061190E+02  0.1293060E+02 -0.2568960E-01  0.3464781E+00  0.2433543E+01  0.2631958E+00 -0.2253332E+00
 -0.1182820E+02  0.1182820E+02 -0.2568960E-01  0.3531329E+00  0.2443635E+01  0.2705549E+00 -0.2269425E+00
 -0.1293060E+02  0.1061190E+02 -0.2568960E-01  0.3583383E+00  0.2452832E+01  0.2766495E+00 -0.2277530E+00
 -0.1390850E+02  0.9293360E+01 -0.2568960E-01  0.3630974E+00  0.2459607E+01  0.2818808E+00 -0.2288732E+00
 -0.1475240E+02  0.7885330E+01 -0.2568960E-01  0.3621534E+00  0.2469613E+01  0.2834178E+00 -0.2254538E+00
 -0.1545430E+02  0.6401370E+01 -0.2568960E-01  0.3584239E+00  0.2479882E+01  0.2827757E+00 -0.2202399E+00
 -0.1600730E+02  0.4855770E+01 -0.2568960E-01  0.3544262E+00  0.2486609E+01  0.2810805E+00 -0.2158974E+00
 -0.1640620E+02  0.3263390E+01 -0.2568960E-01  0.3509453E+00  0.2487717E+01  0.2785566E+00 -0.2134685E+00
 -0.1664710E+02  0.1639590E+01 -0.2568960E-01  0.3472206E+00  0.2484894E+01  0.2750029E+00 -0.2119801E+00
 -0.1672760E+02 -0.1462370E-05 -0.2568960E-01  0.3422181E+00  0.2479983E+01  0.2700116E+00 -0.2102545E+00
 -0.1664710E+02 -0.1639590E+01 -0.2568960E-01  0.3358285E+00  0.2473471E+01  0.2636209E+00 -0.2080500E+00
 -0.1640620E+02 -0.3263400E+01 -0.2568960E-01  0.3281235E+00  0.2465268E+01  0.2558964E+00 -0.2053826E+00
 -0.1600730E+02 -0.4855770E+01 -0.2568960E-01  0.3200451E+00  0.2451069E+01  0.2467268E+00 -0.2038500E+00
 -0.1545430E+02 -0.6401380E+01 -0.2568960E-01  0.3121782E+00  0.2429062E+01  0.2362283E+00 -0.2040868E+00
 -0.1475240E+02 -0.7885340E+01 -0.2568960E-01  0.3036844E+00  0.2401943E+01  0.2243330E+00 -0.2046922E+00
 -0.1390850E+02 -0.9293360E+01 -0.2568960E-01  0.2925088E+00  0.2376619E+01  0.2110159E+00 -0.2025677E+00
 -0.1293060E+02 -0.1061190E+02 -0.2568960E-01  0.2763361E+00  0.2360827E+01  0.1963022E+00 -0.1944919E+00
 -0.1182820E+02 -0.1182820E+02 -0.2568960E-01  0.2596619E+00  0.2339370E+01  0.1804938E+00 -0.1866717E+00
 -0.1061190E+02 -0.1293060E+02 -0.2568960E-01  0.2412622E+00  0.2315652E+01  0.1635433E+00 -0.1773725E+00
 -0.9293350E+01 -0.1390850E+02 -0.2568960E-01  0.2181284E+00  0.2301200E+01  0.1455288E+00 -0.1624849E+00
 -0.7885340E+01 -0.1475240E+02 -0.2568960E-01  0.1928782E+00  0.2287129E+01  0.1266482E+00 -0.1454724E+00
 -0.6401370E+01 -0.1545430E+02 -0.2568960E-01  0.1608441E+00  0.2299457E+01  0.1071015E+00 -0.1200004E+00
 -0.4855760E+01 -0.1600730E+02 -0.2568960E-01  0.1178515E+00  0.2398884E+01  0.8681405E-01 -0.7970129E-01
 -0.3263390E+01 -0.1640620E+02 -0.2568960E-01  0.6840453E-01  0.2926890E+01  0.6683395E-01 -0.1457403E-01
 -0.1639590E+01 -0.1664710E+02 -0.2568960E-01  0.9347862E-01 -0.2089138E+01  0.4631307E-01  0.8119945E-01
  0.1994750E-06 -0.1672760E+02 -0.2568960E-01  0.1691639E+00 -0.1699953E+01  0.2178802E-01  0.1677549E+00
  0.1639600E+01 -0.1664710E+02 -0.2568960E-01  0.2402016E+00 -0.1531342E+01 -0.9474494E-02  0.2400147E+00
  0.3263390E+01 -0.1640620E+02 -0.2568960E-01  0.3042227E+00 -0.1415571E+01 -0.4703356E-01  0.3005650E+00
  0.4855770E+01 -0.1600730E+02 -0.2568960E-01  0.3451220E+00 -0.1328462E+01 -0.8281863E-01  0.3350377E+00
  0.6401380E+01 -0.1545430E+02 -0.2568960E-01  0.3735512E+00 -0.1261103E+01 -0.1138459E+00  0.3557802E+00
  0.7885340E+01 -0.1475240E+02 -0.2568960E-01  0.3928441E+00 -0.1202673E+01 -0.1413709E+00  0.3665252E+00
  0.9293360E+01 -0.1390850E+02 -0.2568960E-01  0.4075526E+00 -0.1151311E+01 -0.1659923E+00  0.3722172E+00
  0.1061190E+02 -0.1293060E+02 -0.2568960E-01  0.4222091E+00 -0.1108764E+01 -0.1882074E+00  0.3779398E+00
  0.1182820E+02 -0.1182820E+02 -0.2568960E-01  0.4329235E+00 -0.1069714E+01 -0.2079656E+00  0.3797013E+00
  0.1293060E+02 -0.1061190E+02 -0.2568960E-01  0.4423325E+00 -0.1035650E+01 -0.2255750E+00  0.3804917E+00
  0.1390850E+02 -0.9293360E+01 -0.2568960E-01  0.4513879E+00 -0.1006719E+01 -0.2413286E+00  0.3814598E+00
  0.1475240E+02 -0.7885330E+01 -0.2568960E-01  0.4554821E+00 -0.9779671E+00 -0.2544823E+00  0.3777601E+00
  0.1545430E+02 -0.6401380E+01 -0.2568960E-01  0.4569329E+00 -0.9516336E+00 -0.2651826E+00  0.3721100E+00
  0.1600730E+02 -0.4855760E+01 -0.2568960E-01  0.4580190E+00 -0.9302750E+00 -0.2737184E+00  0.3672325E+00
  0.1640620E+02 -0.3263390E+01 -0.2568960E-01  0.4596364E+00 -0.9148072E+00 -0.2803522E+00  0.3642366E+00
  0.1664710E+02 -0.1639590E+01 -0.2568960E-01  0.4608738E+00 -0.9040459E+00 -0.2850208E+00  0.3621710E+00
  0.1672760E+02  0.0000000E+00 -0.1027320E+00  0.4588882E+00 -0.8968127E+00 -0.2863937E+00  0.3585485E+00
  0.1664710E+02  0.1639590E+01 -0.1027320E+00  0.4568973E+00 -0.8924393E+00 -0.2867098E+00  0.3557424E+00
  0.1640620E+02  0.3263390E+01 -0.1027320E+00  0.4531983E+00 -0.8910263E+00 -0.2848869E+00  0.3524602E+00
  0.1600730E+02  0.4855770E+01 -0.1027320E+00  0.4495433E+00 -0.8937681E+00 -0.2816297E+00  0.3503911E+00
  0.1545430E+02  0.6401380E+01 -0.1027320E+00  0.4466272E+00 -0.9011956E+00 -0.2772094E+00  0.3501868E+00
  0.1475240E+02  0.7885340E+01 -0.1027320E+00  0.4431581E+00 -0.9121031E+00 -0.2712500E+00  0.3504462E+00
  0.1390850E+02  0.9293360E+01 -0.1027320E+00  0.4359099E+00 -0.9247438E+00 -0.2624348E+00  0.3480594E+00
  0.1293060E+02  0.1061190E+02 -0.1027320E+00  0.4213783E+00 -0.9381235E+00 -0.2491620E+00  0.3398205E+00
  0.1182820E+02  0.1182820E+02 -0.1027320E+00  0.4064426E+00 -0.9552115E+00 -0.2346946E+00  0.3318343E+00
  0.1061190E+02  0.1293060E+02 -0.1027320E+00  0.3894001E+00 -0.9753098E+00 -0.2184190E+00  0.3223749E+00
  0.9293360E+01  0.1390850E+02 -0.1027320E+00  0.3657499E+00 -0.9982763E+00 -0.1981457E+00  0.3074269E+00
  0.7885330E+01  0.1475240E+02 -0.1027320E+00  0.3395935E+00 -0.1025049E+01 -0.1762684E+00  0.2902640E+00
  0.6401380E+01  0.1545430E+02 -0.1027320E+00  0.3037947E+00 -0.1057341E+01 -0.1492209E+00  0.2646211E+00
  0.4855770E+01  0.1600730E+02 -0.1027320E+00  0.2512342E+00 -0.1101766E+01 -0.1135634E+00  0.2241026E+00
  0.3263390E+01  0.1640620E+02 -0.1027320E+00  0.1707160E+00 -0.1188658E+01 -0.6366089E-01  0.1584022E+00
  0.1639590E+01  0.1664710E+02 -0.1027320E+00  0.6246538E-01 -0.1653923E+01  0.5186568E-02  0.6224968E-01
 -0.7311870E-06  0.1672760E+02 -0.1027320E+00  0.7420663E-01  0.2815524E+01  0.7029661E-01 -0.2376996E-01
 -0.1639590E+01  0.1664710E+02 -0.1027320E+00  0.1585217E+00  0.2503394E+01  0.1273200E+00 -0.9443921E-01
 -0.3263390E+01  0.1640620E+02 -0.1027320E+00  0.2325206E+00  0.2426075E+01  0.1754958E+00 -0.1525354E+00
 -0.4855770E+01  0.1600730E+02 -0.1027320E+00  0.2765392E+00  0.2408471E+01  0.2054933E+00 -0.1850580E+00
 -0.6401380E+01  0.1545430E+02 -0.1027320E+00  0.3048609E+00  0.2406950E+01  0.2262283E+00 -0.2043549E+00
 -0.7885340E+01  0.1475240E+02 -0.1027320E+00  0.3221593E+00  0.2414570E+01  0.2407034E+00 -0.2141226E+00
 -0.9293360E+01  0.1390850E+02 -0.1027320E+00  0.3337849E+00  0.2425190E+01  0.2517316E+00 -0.2191884E+00
 -0.1061190E+02  0.1293060E+02 -0.1027320E+00  0.3451255E+00  0.2433480E+01  0.2621542E+00 -0.2244701E+00
 -0.1182820E+02  0.1182820E+02 -0.1027320E+00  0.3517653E+00  0.2443563E+01  0.2694910E+00 -0.2260828E+00
 -0.1293060E+02  0.1061190E+02 -0.1027320E+00  0.3569305E+00  0.2452767E+01  0.2755479E+00 -0.2268760E+00
 -0.1390850E+02  0.9293360E+01 -0.1027320E+00  0.3616130E+00  0.2459599E+01  0.2807265E+00 -0.2279400E+00
 -0.1475240E+02  0.7885330E+01 -0.1027320E+00  0.3607064E+00  0.2469556E+01  0.2822727E+00 -0.2245689E+00
 -0.1545430E+02  0.6401370E+01 -0.1027320E+00  0.3570585E+00  0.2479733E+01  0.2816657E+00 -0.2194429E+00
 -0.1600730E+02  0.4855770E+01 -0.1027320E+00  0.3531222E+00  0.2486385E+01  0.2799980E+00 -0.2151659E+00
 -0.1640620E+02  0.3263390E+01 -0.1027320E+00  0.3496683E+00  0.2487456E+01  0.2774874E+00 -0.2127643E+00
 -0.1664710E+02  0.1639590E+01 -0.1027320E+00  0.3459547E+00  0.2484628E+01  0.2739440E+00 -0.2112802E+00
 -0.1672760E+02 -0.1462370E-05 -0.1027320E+00  0.3409666E+00  0.2479704E+01  0.2689657E+00 -0.2095607E+00
 -0.1664710E+02 -0.1639590E+01 -0.1027320E+00  0.3346026E+00  0.2473178E+01  0.2625977E+00 -0.2073676E+00
 -0.1640620E+02 -0.3263400E+01 -0.1027320E+00  0.3269272E+00  0.2464941E+01  0.2548966E+00 -0.2047172E+00
 -0.1600730E+02 -0.4855770E+01 -0.1027320E+00  0.3188683E+00  0.2450777E+01  0.2457603E+00 -0.2031721E+00
 -0.1545430E+02 -0.6401380E+01 -0.1027320E+00  0.3109918E+00  0.2428890E+01  0.2352955E+00 -0.2033518E+00
 -0.1475240E+02 -0.7885340E+01 -0.1027320E+00  0.3024765E+00  0.2401927E+01  0.2234376E+00 -0.2038815E+00
 -0.1390850E+02 -0.9293360E+01 -0.1027320E+00  0.2913187E+00  0.2376675E+01  0.2101687E+00 -0.2017317E+00
 -0.1293060E+02 -0.1061190E+02 -0.1027320E+00  0.2752620E+00  0.2360714E+01  0.1955174E+00 -0.1937579E+00
 -0.1182820E+02 -0.1182820E+02 -0.1027320E+00  0.2586647E+00  0.2339229E+01  0.1797743E+00 -0.1859802E+00
 -0.1061190E+02 -0.1293060E+02 -0.1027320E+00  0.2403217E+00  0.2315576E+01  0.1628924E+00 -0.1766934E+00
 -0.9293350E+01 -0.1390850E+02 -0.1027320E+00  0.2173274E+00  0.2300945E+01  0.1449531E+00 -0.1619253E+00
 -0.7885340E+01 -0.1475240E+02 -0.1027320E+00  0.1921564E+00  0.2286969E+01  0.1261511E+00 -0.1449482E+00
 -0.6401370E+01 -0.1545430E+02 -0.1027320E+00  0.1602529E+00  0.2299232E+01  0.1066809E+00 -0.1195834E+00
 -0.4855760E+01 -0.1600730E+02 -0.1027320E+00  0.1174673E+00  0.2398257E+01  0.8648122E-01 -0.7949570E-01
 -0.3263390E+01 -0.1640620E+02 -0.1027320E+00  0.6815567E-01  0.2926426E+01  0.6658406E-01 -0.1455192E-01
 -0.1639590E+01 -0.1664710E+02 -0.1027320E+00  0.9313631E-01 -0.2089395E+01  0.4616424E-01  0.8089027E-01
  0.1994750E-06 -0.1672760E+02 -0.1027320E+00  0.1685342E+00 -0.1700114E+01  0.2173376E-01  0.1671270E+00
  0.1639600E+01 -0.1664710E+02 -0.1027320E+00  0.2393309E+00 -0.1531532E+01 -0.9394688E-02  0.2391464E+00
  0.3263390E+01 -0.1640620E+02 -0.1027320E+00  0.3030513E+00 -0.1415645E+01 -0.4683052E-01  0.2994111E+00
  0.4855770E+01 -0.1600730E+02 -0.1027320E+00  0.3438433E+00 -0.1328565E+01 -0.8247746E-01  0.3338048E+00
  0.6401380E+01 -0.1545430E+02 -0.1027320E+00  0.3720942E+00 -0.1261165E+01 -0.1133797E+00  0.3543997E+00
  0.7885340E+01 -0.1475240E+02 -0.1027320E+00  0.3913123E+00 -0.1202748E+01 -0.1407923E+00  0.3651066E+00
  0.9293360E+01 -0.1390850E+02 -0.1027320E+00  0.4059848E+00 -0.1151408E+01 -0.1653180E+00  0.3708014E+00
  0.1061190E+02 -0.1293060E+02 -0.1027320E+00  0.4205302E+00 -0.1108815E+01 -0.1874398E+00  0.3764465E+00
  0.1182820E+02 -0.1182820E+02 -0.1027320E+00  0.4312114E+00 -0.1069768E+01 -0.2071229E+00  0.3782108E+00
  0.1293060E+02 -0.1061190E+02 -0.1027320E+00  0.4405697E+00 -0.1035693E+01 -0.2246598E+00  0.3789850E+00
  0.1390850E+02 -0.9293360E+01 -0.1027320E+00  0.4495394E+00 -0.1006713E+01 -0.2403424E+00  0.3798963E+00
