 VARIABLES="X" "Y" "Z" "abs(eta) (m)" "angle(phi) (rad)" "PRE1" "PRE2"
ZONE N=   3200 ,E =    3136 ,F=FEPOINT,ET=QUADRILATERAL
  0.1530690E+02  0.0000000E+00  0.0000000E+00  0.3706424E+00 -0.1193153E+01 -0.1366673E+00  0.3445255E+00
  0.1523320E+02  0.1500340E+01  0.0000000E+00  0.3689050E+00 -0.1188237E+01 -0.1377107E+00  0.3422377E+00
  0.1501280E+02  0.2986230E+01  0.0000000E+00  0.3658300E+00 -0.1185532E+01 -0.1374803E+00  0.3390144E+00
  0.1464780E+02  0.4443360E+01  0.0000000E+00  0.3614116E+00 -0.1185305E+01 -0.1358961E+00  0.3348889E+00
  0.1414170E+02  0.5857700E+01  0.0000000E+00  0.3555611E+00 -0.1187496E+01 -0.1329738E+00  0.3297600E+00
  0.1349950E+02  0.7215620E+01  0.0000000E+00  0.3486713E+00 -0.1192142E+01 -0.1288936E+00  0.3239724E+00
  0.1272720E+02  0.8504060E+01  0.0000000E+00  0.3425267E+00 -0.1199182E+01 -0.1243782E+00  0.3191467E+00
  0.1183240E+02  0.9710600E+01  0.0000000E+00  0.3360665E+00 -0.1208254E+01 -0.1191867E+00  0.3142217E+00
  0.1082360E+02  0.1082360E+02  0.0000000E+00  0.3285502E+00 -0.1219319E+01 -0.1131151E+00  0.3084643E+00
  0.9710590E+01  0.1183240E+02  0.0000000E+00  0.3180551E+00 -0.1232567E+01 -0.1055361E+00  0.3000353E+00
  0.8504060E+01  0.1272720E+02  0.0000000E+00  0.3075730E+00 -0.1247643E+01 -0.9767220E-01  0.2916526E+00
  0.7215620E+01  0.1349950E+02  0.0000000E+00  0.2907461E+00 -0.1266028E+01 -0.8724491E-01  0.2773475E+00
  0.5857700E+01  0.1414170E+02  0.0000000E+00  0.2707787E+00 -0.1287114E+01 -0.7578903E-01  0.2599560E+00
  0.4443360E+01  0.1464780E+02  0.0000000E+00  0.2426643E+00 -0.1314406E+01 -0.6153745E-01  0.2347320E+00
  0.2986230E+01  0.1501280E+02  0.0000000E+00  0.1895990E+00 -0.1366911E+01 -0.3838926E-01  0.1856718E+00
  0.1500340E+01  0.1523320E+02  0.0000000E+00  0.4181232E-01 -0.2376187E+01  0.3015093E-01  0.2896880E-01
 -0.6690860E-06  0.1530690E+02  0.0000000E+00  0.9212463E-01  0.2476107E+01  0.7246679E-01 -0.5688157E-01
 -0.1500340E+01  0.1523320E+02  0.0000000E+00  0.1646149E+00  0.2281699E+01  0.1074142E+00 -0.1247407E+00
 -0.2986230E+01  0.1501280E+02  0.0000000E+00  0.2424735E+00  0.2193596E+01  0.1414376E+00 -0.1969487E+00
 -0.4443360E+01  0.1464780E+02  0.0000000E+00  0.2594737E+00  0.2177934E+01  0.1480346E+00 -0.2131018E+00
 -0.5857700E+01  0.1414170E+02  0.0000000E+00  0.2667269E+00  0.2174691E+01  0.1514616E+00 -0.2195509E+00
 -0.7215620E+01  0.1349950E+02  0.0000000E+00  0.2723524E+00  0.2174227E+01  0.1545520E+00 -0.2242533E+00
 -0.8504060E+01  0.1272720E+02  0.0000000E+00  0.2772433E+00  0.2175458E+01  0.1576084E+00 -0.2280865E+00
 -0.9710590E+01  0.1183240E+02  0.0000000E+00  0.2780696E+00  0.2179611E+01  0.1590269E+00 -0.2281078E+00
 -0.1082360E+02  0.1082360E+02  0.0000000E+00  0.2792477E+00  0.2183244E+01  0.1605317E+00 -0.2284926E+00
 -0.1183240E+02  0.9710590E+01  0.0000000E+00  0.2791689E+00  0.2186589E+01  0.1612494E+00 -0.2278901E+00
 -0.1272720E+02  0.8504060E+01  0.0000000E+00  0.2789103E+00  0.2188433E+01  0.1615198E+00 -0.2273814E+00
 -0.1349950E+02  0.7215620E+01  0.0000000E+00  0.2783783E+00  0.2189245E+01  0.1613960E+00 -0.2268167E+00
 -0.1414170E+02  0.5857690E+01  0.0000000E+00  0.2782431E+00  0.2188002E+01  0.1610357E+00 -0.2269069E+00
 -0.1464780E+02  0.4443360E+01  0.0000000E+00  0.2776074E+00  0.2185240E+01  0.1600417E+00 -0.2268314E+00
 -0.1501280E+02  0.2986230E+01  0.0000000E+00  0.2759679E+00  0.2181315E+01  0.1582103E+00 -0.2261145E+00
 -0.1523320E+02  0.1500340E+01  0.0000000E+00  0.2734739E+00  0.2174963E+01  0.1553541E+00 -0.2250623E+00
 -0.1530690E+02 -0.1338170E-05  0.0000000E+00  0.2699982E+00  0.2166766E+01  0.1515532E+00 -0.2234517E+00
 -0.1523320E+02 -0.1500340E+01  0.0000000E+00  0.2656547E+00  0.2157069E+01  0.1469761E+00 -0.2212927E+00
 -0.1501280E+02 -0.2986230E+01  0.0000000E+00  0.2602042E+00  0.2146889E+01  0.1417467E+00 -0.2182065E+00
 -0.1464780E+02 -0.4443360E+01  0.0000000E+00  0.2537725E+00  0.2136492E+01  0.1360229E+00 -0.2142388E+00
 -0.1414170E+02 -0.5857700E+01  0.0000000E+00  0.2462747E+00  0.2125957E+01  0.1298066E+00 -0.2092881E+00
 -0.1349950E+02 -0.7215620E+01  0.0000000E+00  0.2380249E+00  0.2114560E+01  0.1231446E+00 -0.2036941E+00
 -0.1272720E+02 -0.8504060E+01  0.0000000E+00  0.2302862E+00  0.2097778E+01  0.1158171E+00 -0.1990430E+00
 -0.1183240E+02 -0.9710600E+01  0.0000000E+00  0.2222111E+00  0.2077603E+01  0.1078585E+00 -0.1942790E+00
 -0.1082360E+02 -0.1082360E+02  0.0000000E+00  0.2132388E+00  0.2055529E+01  0.9936334E-01 -0.1886735E+00
 -0.9710600E+01 -0.1183240E+02  0.0000000E+00  0.2018628E+00  0.2035905E+01  0.9053943E-01 -0.1804195E+00
 -0.8504050E+01 -0.1272720E+02  0.0000000E+00  0.1904142E+00  0.2011349E+01  0.8120020E-01 -0.1722327E+00
 -0.7215620E+01 -0.1349950E+02  0.0000000E+00  0.1736678E+00  0.1996441E+01  0.7170879E-01 -0.1581720E+00
 -0.5857690E+01 -0.1414170E+02  0.0000000E+00  0.1540530E+00  0.1983994E+01  0.6185851E-01 -0.1410881E+00
 -0.4443360E+01 -0.1464780E+02  0.0000000E+00  0.1275522E+00  0.1993448E+01  0.5231940E-01 -0.1163282E+00
 -0.2986230E+01 -0.1501280E+02  0.0000000E+00  0.8129998E-01  0.2149201E+01  0.4444577E-01 -0.6807540E-01
 -0.1500340E+01 -0.1523320E+02  0.0000000E+00  0.9921189E-01 -0.2074301E+01  0.4786952E-01  0.8689942E-01
  0.1825330E-06 -0.1530690E+02  0.0000000E+00  0.1775062E+00 -0.1807047E+01  0.4154687E-01  0.1725755E+00
  0.1500340E+01 -0.1523320E+02  0.0000000E+00  0.2428347E+00 -0.1690441E+01  0.2898465E-01  0.2410987E+00
  0.2986230E+01 -0.1501280E+02  0.0000000E+00  0.3155948E+00 -0.1579697E+01  0.2809103E-02  0.3155822E+00
  0.4443360E+01 -0.1464780E+02  0.0000000E+00  0.3333274E+00 -0.1514436E+01 -0.1877659E-01  0.3327981E+00
  0.5857700E+01 -0.1414170E+02  0.0000000E+00  0.3418655E+00 -0.1463762E+01 -0.3652168E-01  0.3399091E+00
  0.7215620E+01 -0.1349950E+02  0.0000000E+00  0.3489656E+00 -0.1421318E+01 -0.5196892E-01  0.3450743E+00
  0.8504060E+01 -0.1272720E+02  0.0000000E+00  0.3553937E+00 -0.1384758E+01 -0.6573610E-01  0.3492613E+00
  0.9710600E+01 -0.1183240E+02  0.0000000E+00  0.3581588E+00 -0.1350878E+01 -0.7813223E-01  0.3495327E+00
  0.1082360E+02 -0.1082360E+02  0.0000000E+00  0.3613093E+00 -0.1321063E+01 -0.8929601E-01  0.3501008E+00
  0.1183240E+02 -0.9710590E+01  0.0000000E+00  0.3633740E+00 -0.1294434E+01 -0.9914931E-01  0.3495855E+00
  0.1272720E+02 -0.8504060E+01  0.0000000E+00  0.3653524E+00 -0.1271308E+01 -0.1077905E+00  0.3490897E+00
  0.1349950E+02 -0.7215620E+01  0.0000000E+00  0.3670641E+00 -0.1251307E+01 -0.1152881E+00  0.3484891E+00
  0.1414170E+02 -0.5857700E+01  0.0000000E+00  0.3691550E+00 -0.1234773E+01 -0.1217234E+00  0.3485094E+00
  0.1464780E+02 -0.4443350E+01  0.0000000E+00  0.3707597E+00 -0.1221081E+01 -0.1270334E+00  0.3483178E+00
  0.1501280E+02 -0.2986230E+01  0.0000000E+00  0.3714097E+00 -0.1209651E+01 -0.1312362E+00  0.3474510E+00
  0.1523320E+02 -0.1500330E+01  0.0000000E+00  0.3714613E+00 -0.1200349E+01 -0.1344812E+00  0.3462634E+00
  0.1530690E+02  0.0000000E+00 -0.2568960E-01  0.3702198E+00 -0.1193156E+01 -0.1365105E+00  0.3441331E+00
  0.1523320E+02  0.1500340E+01 -0.2568960E-01  0.3684848E+00 -0.1188241E+01 -0.1375525E+00  0.3418485E+00
  0.1501280E+02  0.2986230E+01 -0.2568960E-01  0.3654169E+00 -0.1185539E+01 -0.1373229E+00  0.3386325E+00
  0.1464780E+02  0.4443360E+01 -0.2568960E-01  0.3610129E+00 -0.1185310E+01 -0.1357443E+00  0.3345203E+00
  0.1414170E+02  0.5857700E+01 -0.2568960E-01  0.3551801E+00 -0.1187509E+01 -0.1328272E+00  0.3294083E+00
  0.1349950E+02  0.7215620E+01 -0.2568960E-01  0.3483089E+00 -0.1192153E+01 -0.1287560E+00  0.3236371E+00
  0.1272720E+02  0.8504060E+01 -0.2568960E-01  0.3421708E+00 -0.1199190E+01 -0.1242466E+00  0.3188160E+00
  0.1183240E+02  0.9710600E+01 -0.2568960E-01  0.3357091E+00 -0.1208254E+01 -0.1190601E+00  0.3138874E+00
  0.1082360E+02  0.1082360E+02 -0.2568960E-01  0.3281967E+00 -0.1219333E+01 -0.1129889E+00  0.3081340E+00
  0.9710590E+01  0.1183240E+02 -0.2568960E-01  0.3177266E+00 -0.1232571E+01 -0.1054259E+00  0.2997258E+00
  0.8504060E+01  0.1272720E+02 -0.2568960E-01  0.3072349E+00 -0.1247654E+01 -0.9756180E-01  0.2913331E+00
  0.7215620E+01  0.1349950E+02 -0.2568960E-01  0.2904637E+00 -0.1266024E+01 -0.8716121E-01  0.2770777E+00
  0.5857700E+01  0.1414170E+02 -0.2568960E-01  0.2704976E+00 -0.1287115E+01 -0.7571016E-01  0.2596862E+00
  0.4443360E+01  0.1464780E+02 -0.2568960E-01  0.2424276E+00 -0.1314398E+01 -0.6147930E-01  0.2345025E+00
  0.2986230E+01  0.1501280E+02 -0.2568960E-01  0.1893751E+00 -0.1366925E+01 -0.3834116E-01  0.1854532E+00
  0.1500340E+01  0.1523320E+02 -0.2568960E-01  0.4181549E-01 -0.2373487E+01  0.3007488E-01  0.2905230E-01
 -0.6690860E-06  0.1530690E+02 -0.2568960E-01  0.9204455E-01  0.2476009E+01  0.7239824E-01 -0.5683919E-01
 -0.1500340E+01  0.1523320E+02 -0.2568960E-01  0.1644893E+00  0.2281600E+01  0.1073199E+00 -0.1246562E+00
 -0.2986230E+01  0.1501280E+02 -0.2568960E-01  0.2422353E+00  0.2193571E+01  0.1412938E+00 -0.1967588E+00
 -0.4443360E+01  0.1464780E+02 -0.2568960E-01  0.2592164E+00  0.2177919E+01  0.1478848E+00 -0.2128926E+00
 -0.5857700E+01  0.1414170E+02 -0.2568960E-01  0.2664593E+00  0.2174669E+01  0.1513048E+00 -0.2193340E+00
 -0.7215620E+01  0.1349950E+02 -0.2568960E-01  0.2720894E+00  0.2174199E+01  0.1543965E+00 -0.2240409E+00
 -0.8504060E+01  0.1272720E+02 -0.2568960E-01  0.2769437E+00  0.2175453E+01  0.1574368E+00 -0.2278409E+00
 -0.9710590E+01  0.1183240E+02 -0.2568960E-01  0.2777860E+00  0.2179595E+01  0.1588610E+00 -0.2278776E+00
 -0.1082360E+02  0.1082360E+02 -0.2568960E-01  0.2789550E+00  0.2183223E+01  0.1603586E+00 -0.2282564E+00
 -0.1183240E+02  0.9710590E+01 -0.2568960E-01  0.2788791E+00  0.2186573E+01  0.1610786E+00 -0.2276559E+00
 -0.1272720E+02  0.8504060E+01 -0.2568960E-01  0.2786249E+00  0.2188410E+01  0.1613491E+00 -0.2271525E+00
 -0.1349950E+02  0.7215620E+01 -0.2568960E-01  0.2780931E+00  0.2189217E+01  0.1612242E+00 -0.2265890E+00
 -0.1414170E+02  0.5857690E+01 -0.2568960E-01  0.2779514E+00  0.2187986E+01  0.1608632E+00 -0.2266716E+00
 -0.1464780E+02  0.4443360E+01 -0.2568960E-01  0.2773058E+00  0.2185227E+01  0.1598650E+00 -0.2265870E+00
 -0.1501280E+02  0.2986230E+01 -0.2568960E-01  0.2756606E+00  0.2181308E+01  0.1580327E+00 -0.2258638E+00
 -0.1523320E+02  0.1500340E+01 -0.2568960E-01  0.2731649E+00  0.2174965E+01  0.1551790E+00 -0.2248077E+00
 -0.1530690E+02 -0.1338170E-05 -0.2568960E-01  0.2696920E+00  0.2166780E+01  0.1513844E+00 -0.2231961E+00
 -0.1523320E+02 -0.1500340E+01 -0.2568960E-01  0.2653520E+00  0.2157079E+01  0.1468109E+00 -0.2210390E+00
 -0.1501280E+02 -0.2986230E+01 -0.2568960E-01  0.2599145E+00  0.2146902E+01  0.1415916E+00 -0.2179619E+00
 -0.1464780E+02 -0.4443360E+01 -0.2568960E-01  0.2534967E+00  0.2136487E+01  0.1358739E+00 -0.2140066E+00
 -0.1414170E+02 -0.5857700E+01 -0.2568960E-01  0.2460176E+00  0.2125935E+01  0.1296664E+00 -0.2090725E+00
 -0.1349950E+02 -0.7215620E+01 -0.2568960E-01  0.2377846E+00  0.2114505E+01  0.1230091E+00 -0.2034951E+00
 -0.1272720E+02 -0.8504060E+01 -0.2568960E-01  0.2300543E+00  0.2097728E+01  0.1156906E+00 -0.1988484E+00
 -0.1183240E+02 -0.9710600E+01 -0.2568960E-01  0.2219808E+00  0.2077570E+01  0.1077404E+00 -0.1940812E+00
 -0.1082360E+02 -0.1082360E+02 -0.2568960E-01  0.2130167E+00  0.2055504E+01  0.9925514E-01 -0.1884795E+00
 -0.9710600E+01 -0.1183240E+02 -0.2568960E-01  0.2016634E+00  0.2035856E+01  0.9044123E-01 -0.1802457E+00
 -0.8504050E+01 -0.1272720E+02 -0.2568960E-01  0.1902099E+00  0.2011348E+01  0.8111275E-01 -0.1720480E+00
 -0.7215620E+01 -0.1349950E+02 -0.2568960E-01  0.1735133E+00  0.1996354E+01  0.7163126E-01 -0.1580374E+00
 -0.5857690E+01 -0.1414170E+02 -0.2568960E-01  0.1539034E+00  0.1983955E+01  0.6179286E-01 -0.1409535E+00
 -0.4443360E+01 -0.1464780E+02 -0.2568960E-01  0.1274417E+00  0.1993352E+01  0.5226289E-01 -0.1162324E+00
 -0.2986230E+01 -0.1501280E+02 -0.2568960E-01  0.8120749E-01  0.2149354E+01  0.4440566E-01 -0.6799114E-01
 -0.1500340E+01 -0.1523320E+02 -0.2568960E-01  0.9899393E-01 -0.2074774E+01  0.4780543E-01  0.8668586E-01
  0.1825330E-06 -0.1530690E+02 -0.2568960E-01  0.1773275E+00 -0.1807083E+01  0.4151141E-01  0.1724003E+00
  0.1500340E+01 -0.1523320E+02 -0.2568960E-01  0.2426157E+00 -0.1690395E+01  0.2894733E-01  0.2408826E+00
  0.2986230E+01 -0.1501280E+02 -0.2568960E-01  0.3152693E+00 -0.1579727E+01  0.2815397E-02  0.3152567E+00
  0.4443360E+01 -0.1464780E+02 -0.2568960E-01  0.3329821E+00 -0.1514446E+01 -0.1875373E-01  0.3324535E+00
  0.5857700E+01 -0.1414170E+02 -0.2568960E-01  0.3415088E+00 -0.1463776E+01 -0.3647880E-01  0.3395550E+00
  0.7215620E+01 -0.1349950E+02 -0.2568960E-01  0.3486117E+00 -0.1421339E+01 -0.5190885E-01  0.3447253E+00
  0.8504060E+01 -0.1272720E+02 -0.2568960E-01  0.3550038E+00 -0.1384765E+01 -0.6566159E-01  0.3488786E+00
  0.9710600E+01 -0.1183240E+02 -0.2568960E-01  0.3577816E+00 -0.1350895E+01 -0.7804400E-01  0.3491658E+00
  0.1082360E+02 -0.1082360E+02 -0.2568960E-01  0.3609215E+00 -0.1321081E+01 -0.8919381E-01  0.3497267E+00
  0.1183240E+02 -0.9710590E+01 -0.2568960E-01  0.3629856E+00 -0.1294452E+01 -0.9903725E-01  0.3492137E+00
  0.1272720E+02 -0.8504060E+01 -0.2568960E-01  0.3649662E+00 -0.1271330E+01 -0.1076689E+00  0.3487231E+00
  0.1349950E+02 -0.7215620E+01 -0.2568960E-01  0.3666768E+00 -0.1251328E+01 -0.1151590E+00  0.3481239E+00
  0.1414170E+02 -0.5857700E+01 -0.2568960E-01  0.3687578E+00 -0.1234787E+01 -0.1215877E+00  0.3481361E+00
  0.1464780E+02 -0.4443350E+01 -0.2568960E-01  0.3703519E+00 -0.1221093E+01 -0.1268898E+00  0.3479361E+00
  0.1501280E+02 -0.2986230E+01 -0.2568960E-01  0.3709947E+00 -0.1209649E+01 -0.1310900E+00  0.3470627E+00
  0.1523320E+02 -0.1500330E+01 -0.2568960E-01  0.3710408E+00 -0.1200347E+01 -0.1343296E+00  0.3458711E+00
  0.1530690E+02  0.0000000E+00 -0.1027320E+00  0.3689420E+00 -0.1193151E+01 -0.1360411E+00  0.3429447E+00
  0.1523320E+02  0.1500340E+01 -0.1027320E+00  0.3672119E+00 -0.1188245E+01 -0.1370759E+00  0.3406681E+00
  0.1501280E+02  0.2986230E+01 -0.1027320E+00  0.3641670E+00 -0.1185554E+01 -0.1368482E+00  0.3374762E+00
  0.1464780E+02  0.4443360E+01 -0.1027320E+00  0.3598022E+00 -0.1185337E+01 -0.1352802E+00  0.3334019E+00
  0.1414170E+02  0.5857700E+01 -0.1027320E+00  0.3540247E+00 -0.1187535E+01 -0.1323865E+00  0.3283402E+00
  0.1349950E+02  0.7215620E+01 -0.1027320E+00  0.3472112E+00 -0.1192182E+01 -0.1283408E+00  0.3226209E+00
  0.1272720E+02  0.8504060E+01 -0.1027320E+00  0.3410879E+00 -0.1199217E+01 -0.1238446E+00  0.3178104E+00
  0.1183240E+02  0.9710600E+01 -0.1027320E+00  0.3346215E+00 -0.1208281E+01 -0.1186659E+00  0.3128737E+00
  0.1082360E+02  0.1082360E+02 -0.1027320E+00  0.3271284E+00 -0.1219356E+01 -0.1126142E+00  0.3071336E+00
  0.9710590E+01  0.1183240E+02 -0.1027320E+00  0.3167316E+00 -0.1232590E+01 -0.1050900E+00  0.2987892E+00
  0.8504060E+01  0.1272720E+02 -0.1027320E+00  0.3062122E+00 -0.1247684E+01 -0.9722816E-01  0.2903664E+00
  0.7215620E+01  0.1349950E+02 -0.1027320E+00  0.2895826E+00 -0.1266022E+01 -0.8689741E-01  0.2762371E+00
  0.5857700E+01  0.1414170E+02 -0.1027320E+00  0.2696527E+00 -0.1287126E+01 -0.7547069E-01  0.2588759E+00
  0.4443360E+01  0.1464780E+02 -0.1027320E+00  0.2417033E+00 -0.1314386E+01 -0.6129844E-01  0.2338011E+00
  0.2986230E+01  0.1501280E+02 -0.1027320E+00  0.1887896E+00 -0.1366893E+01 -0.3822860E-01  0.1848786E+00
  0.1500340E+01  0.1523320E+02 -0.1027320E+00  0.4172613E-01 -0.2370823E+01  0.2993327E-01  0.2907008E-01
 -0.6690860E-06  0.1530690E+02 -0.1027320E+00  0.9178913E-01  0.2475776E+01  0.7218415E-01 -0.5669828E-01
 -0.1500340E+01  0.1523320E+02 -0.1027320E+00  0.1640610E+00  0.2281435E+01  0.1070200E+00 -0.1243492E+00
 -0.2986230E+01  0.1501280E+02 -0.1027320E+00  0.2415748E+00  0.2193473E+01  0.1408893E+00 -0.1962360E+00
 -0.4443360E+01  0.1464780E+02 -0.1027320E+00  0.2584317E+00  0.2177870E+01  0.1474266E+00 -0.2122554E+00
 -0.5857700E+01  0.1414170E+02 -0.1027320E+00  0.2656607E+00  0.2174616E+01  0.1508397E+00 -0.2186847E+00
 -0.7215620E+01  0.1349950E+02 -0.1027320E+00  0.2712744E+00  0.2174140E+01  0.1539209E+00 -0.2233789E+00
 -0.8504060E+01  0.1272720E+02 -0.1027320E+00  0.2760403E+00  0.2175440E+01  0.1569202E+00 -0.2270997E+00
 -0.9710590E+01  0.1183240E+02 -0.1027320E+00  0.2769253E+00  0.2179540E+01  0.1583562E+00 -0.2271803E+00
 -0.1082360E+02  0.1082360E+02 -0.1027320E+00  0.2780703E+00  0.2183186E+01  0.1598416E+00 -0.2275385E+00
 -0.1183240E+02  0.9710590E+01 -0.1027320E+00  0.2779968E+00  0.2186525E+01  0.1605581E+00 -0.2269434E+00
 -0.1272720E+02  0.8504060E+01 -0.1027320E+00  0.2777566E+00  0.2188355E+01  0.1608340E+00 -0.2264533E+00
 -0.1349950E+02  0.7215620E+01 -0.1027320E+00  0.2772286E+00  0.2189162E+01  0.1607107E+00 -0.2258933E+00
 -0.1414170E+02  0.5857690E+01 -0.1027320E+00  0.2770627E+00  0.2187940E+01  0.1603384E+00 -0.2259543E+00
 -0.1464780E+02  0.4443360E+01 -0.1027320E+00  0.2763922E+00  0.2185215E+01  0.1593356E+00 -0.2258424E+00
 -0.1501280E+02  0.2986230E+01 -0.1027320E+00  0.2747307E+00  0.2181317E+01  0.1575015E+00 -0.2251005E+00
 -0.1523320E+02  0.1500340E+01 -0.1027320E+00  0.2722282E+00  0.2175000E+01  0.1546548E+00 -0.2240314E+00
 -0.1530690E+02 -0.1338170E-05 -0.1027320E+00  0.2687624E+00  0.2166839E+01  0.1508757E+00 -0.2224179E+00
 -0.1523320E+02 -0.1500340E+01 -0.1027320E+00  0.2644399E+00  0.2157148E+01  0.1463215E+00 -0.2202691E+00
 -0.1501280E+02 -0.2986230E+01 -0.1027320E+00  0.2590334E+00  0.2146959E+01  0.1411240E+00 -0.2172149E+00
 -0.1464780E+02 -0.4443360E+01 -0.1027320E+00  0.2526591E+00  0.2136502E+01  0.1354282E+00 -0.2132975E+00
 -0.1414170E+02 -0.5857700E+01 -0.1027320E+00  0.2452341E+00  0.2125884E+01  0.1292426E+00 -0.2084133E+00
 -0.1349950E+02 -0.7215620E+01 -0.1027320E+00  0.2370544E+00  0.2114373E+01  0.1226046E+00 -0.2028864E+00
 -0.1272720E+02 -0.8504060E+01 -0.1027320E+00  0.2293465E+00  0.2097612E+01  0.1153115E+00 -0.1982500E+00
 -0.1183240E+02 -0.9710600E+01 -0.1027320E+00  0.2212798E+00  0.2077513E+01  0.1073890E+00 -0.1934744E+00
 -0.1082360E+02 -0.1082360E+02 -0.1027320E+00  0.2123408E+00  0.2055470E+01  0.9893383E-01 -0.1878848E+00
 -0.9710600E+01 -0.1183240E+02 -0.1027320E+00  0.2010574E+00  0.2035730E+01  0.9014688E-01 -0.1797154E+00
 -0.8504050E+01 -0.1272720E+02 -0.1027320E+00  0.1895915E+00  0.2011375E+01  0.8085383E-01 -0.1714864E+00
 -0.7215620E+01 -0.1349950E+02 -0.1027320E+00  0.1730195E+00  0.1996167E+01  0.7139793E-01 -0.1576010E+00
 -0.5857690E+01 -0.1414170E+02 -0.1027320E+00  0.1534529E+00  0.1983862E+01  0.6159889E-01 -0.1405467E+00
 -0.4443360E+01 -0.1464780E+02 -0.1027320E+00  0.1270992E+00  0.1993103E+01  0.5209361E-01 -0.1159330E+00
 -0.2986230E+01 -0.1501280E+02 -0.1027320E+00  0.8099191E-01  0.2149189E+01  0.4427652E-01 -0.6781799E-01
 -0.1500340E+01 -0.1523320E+02 -0.1027320E+00  0.9855821E-01 -0.2075414E+01  0.4765020E-01  0.8627386E-01
  0.1825330E-06 -0.1530690E+02 -0.1027320E+00  0.1767795E+00 -0.1807173E+01  0.4139857E-01  0.1718637E+00
  0.1500340E+01 -0.1523320E+02 -0.1027320E+00  0.2419089E+00 -0.1690413E+01  0.2886746E-01  0.2401803E+00
  0.2986230E+01 -0.1501280E+02 -0.1027320E+00  0.3143415E+00 -0.1579818E+01  0.2835792E-02  0.3143288E+00
  0.4443360E+01 -0.1464780E+02 -0.1027320E+00  0.3319364E+00 -0.1514486E+01 -0.1868142E-01  0.3314103E+00
  0.5857700E+01 -0.1414170E+02 -0.1027320E+00  0.3404429E+00 -0.1463833E+01 -0.3634543E-01  0.3384972E+00
  0.7215620E+01 -0.1349950E+02 -0.1027320E+00  0.3475249E+00 -0.1421398E+01 -0.5172663E-01  0.3436537E+00
  0.8504060E+01 -0.1272720E+02 -0.1027320E+00  0.3538294E+00 -0.1384794E+01 -0.6543443E-01  0.3477263E+00
  0.9710600E+01 -0.1183240E+02 -0.1027320E+00  0.3566406E+00 -0.1350945E+01 -0.7777770E-01  0.3480563E+00
  0.1082360E+02 -0.1082360E+02 -0.1027320E+00  0.3597506E+00 -0.1321122E+01 -0.8889014E-01  0.3485958E+00
  0.1183240E+02 -0.9710590E+01 -0.1027320E+00  0.3618104E+00 -0.1294498E+01 -0.9870058E-01  0.3480875E+00
  0.1272720E+02 -0.8504060E+01 -0.1027320E+00  0.3637973E+00 -0.1271376E+01 -0.1073080E+00  0.3476111E+00
