 VARIABLES="X" "Y" "Z" "abs(eta) (m)" "angle(phi) (rad)" "PRE1" "PRE2"
ZONE N=   3200 ,E =    3136 ,F=FEPOINT,ET=QUADRILATERAL
  0.1530690E+02  0.0000000E+00  0.0000000E+00  0.3900873E+00  0.2150160E+01  0.2135696E+00 -0.3264294E+00
  0.1523320E+02  0.1500340E+01  0.0000000E+00  0.3875396E+00  0.2145495E+01  0.2106594E+00 -0.3252838E+00
  0.1501280E+02  0.2986230E+01  0.0000000E+00  0.3835014E+00  0.2139782E+01  0.2066222E+00 -0.3230799E+00
  0.1464780E+02  0.4443360E+01  0.0000000E+00  0.3781473E+00  0.2132999E+01  0.2015720E+00 -0.3199439E+00
  0.1414170E+02  0.5857700E+01  0.0000000E+00  0.3712312E+00  0.2125271E+01  0.1954521E+00 -0.3156122E+00
  0.1349950E+02  0.7215620E+01  0.0000000E+00  0.3632674E+00  0.2115936E+01  0.1883678E+00 -0.3106136E+00
  0.1272720E+02  0.8504060E+01  0.0000000E+00  0.3560124E+00  0.2102596E+01  0.1805287E+00 -0.3068455E+00
  0.1183240E+02  0.9710600E+01  0.0000000E+00  0.3483295E+00  0.2086626E+01  0.1718158E+00 -0.3030062E+00
  0.1082360E+02  0.1082360E+02  0.0000000E+00  0.3396227E+00  0.2068160E+01  0.1620375E+00 -0.2984752E+00
  0.9710590E+01  0.1183240E+02  0.0000000E+00  0.3279257E+00  0.2049532E+01  0.1510615E+00 -0.2910596E+00
  0.8504060E+01  0.1272720E+02  0.0000000E+00  0.3163832E+00  0.2027380E+01  0.1394883E+00 -0.2839742E+00
  0.7215620E+01  0.1349950E+02  0.0000000E+00  0.2979091E+00  0.2009217E+01  0.1264654E+00 -0.2697338E+00
  0.5857700E+01  0.1414170E+02  0.0000000E+00  0.2763393E+00  0.1989678E+01  0.1123980E+00 -0.2524482E+00
  0.4443360E+01  0.1464780E+02  0.0000000E+00  0.2470514E+00  0.1972820E+01  0.9666672E-01 -0.2273542E+00
  0.2986230E+01  0.1501280E+02  0.0000000E+00  0.1922261E+00  0.1983654E+01  0.7712660E-01 -0.1760748E+00
  0.1500340E+01  0.1523320E+02  0.0000000E+00  0.4234203E-01 -0.3086758E+01  0.4227838E-01  0.2320647E-02
 -0.6690860E-06  0.1530690E+02  0.0000000E+00  0.1156896E+00 -0.1719891E+01  0.1718487E-01  0.1144061E+00
 -0.1500340E+01  0.1523320E+02  0.0000000E+00  0.2184960E+00 -0.1541744E+01 -0.6346813E-02  0.2184038E+00
 -0.2986230E+01  0.1501280E+02  0.0000000E+00  0.3605229E+00 -0.1476365E+01 -0.3399400E-01  0.3589167E+00
 -0.4443360E+01  0.1464780E+02  0.0000000E+00  0.3999743E+00 -0.1432245E+01 -0.5523983E-01  0.3961414E+00
 -0.5857700E+01  0.1414170E+02  0.0000000E+00  0.4198877E+00 -0.1395078E+01 -0.7340273E-01  0.4134220E+00
 -0.7215620E+01  0.1349950E+02  0.0000000E+00  0.4349712E+00 -0.1362338E+01 -0.9001826E-01  0.4255545E+00
 -0.8504060E+01  0.1272720E+02  0.0000000E+00  0.4480857E+00 -0.1333727E+01 -0.1052351E+00  0.4355529E+00
 -0.9710590E+01  0.1183240E+02  0.0000000E+00  0.4550539E+00 -0.1306768E+01 -0.1187562E+00  0.4392847E+00
 -0.1082360E+02  0.1082360E+02  0.0000000E+00  0.4623644E+00 -0.1283395E+01 -0.1310625E+00  0.4433998E+00
 -0.1183240E+02  0.9710590E+01  0.0000000E+00  0.4674604E+00 -0.1262036E+01 -0.1420510E+00  0.4453546E+00
 -0.1272720E+02  0.8504060E+01  0.0000000E+00  0.4721066E+00 -0.1243312E+01 -0.1518587E+00  0.4470163E+00
 -0.1349950E+02  0.7215620E+01  0.0000000E+00  0.4763821E+00 -0.1227460E+01 -0.1603648E+00  0.4485789E+00
 -0.1414170E+02  0.5857690E+01  0.0000000E+00  0.4813295E+00 -0.1215013E+01 -0.1676592E+00  0.4511857E+00
 -0.1464780E+02  0.4443360E+01  0.0000000E+00  0.4854381E+00 -0.1204938E+01 -0.1736657E+00  0.4533105E+00
 -0.1501280E+02  0.2986230E+01  0.0000000E+00  0.4881057E+00 -0.1196813E+01 -0.1783181E+00  0.4543675E+00
 -0.1523320E+02  0.1500340E+01  0.0000000E+00  0.4896699E+00 -0.1190814E+01 -0.1816204E+00  0.4547424E+00
 -0.1530690E+02 -0.1338170E-05  0.0000000E+00  0.4898828E+00 -0.1186875E+01 -0.1834900E+00  0.4542209E+00
 -0.1523320E+02 -0.1500340E+01  0.0000000E+00  0.4888972E+00 -0.1185144E+01 -0.1839054E+00  0.4529892E+00
 -0.1501280E+02 -0.2986230E+01  0.0000000E+00  0.4863189E+00 -0.1185543E+01 -0.1827557E+00  0.4506733E+00
 -0.1464780E+02 -0.4443360E+01  0.0000000E+00  0.4822518E+00 -0.1188254E+01 -0.1800151E+00  0.4473940E+00
 -0.1414170E+02 -0.5857700E+01  0.0000000E+00  0.4764967E+00 -0.1192997E+01 -0.1757679E+00  0.4428936E+00
 -0.1349950E+02 -0.7215620E+01  0.0000000E+00  0.4696317E+00 -0.1199920E+01 -0.1702098E+00  0.4377014E+00
 -0.1272720E+02 -0.8504060E+01  0.0000000E+00  0.4636347E+00 -0.1209718E+01 -0.1637942E+00  0.4337380E+00
 -0.1183240E+02 -0.9710600E+01  0.0000000E+00  0.4572563E+00 -0.1221834E+01 -0.1563464E+00  0.4296966E+00
 -0.1082360E+02 -0.1082360E+02  0.0000000E+00  0.4499557E+00 -0.1235874E+01 -0.1478984E+00  0.4249544E+00
 -0.9710600E+01 -0.1183240E+02  0.0000000E+00  0.4395173E+00 -0.1251402E+01 -0.1380047E+00  0.4172890E+00
 -0.8504050E+01 -0.1272720E+02  0.0000000E+00  0.4292784E+00 -0.1269386E+01 -0.1274385E+00  0.4099261E+00
 -0.7215620E+01 -0.1349950E+02  0.0000000E+00  0.4115763E+00 -0.1289005E+01 -0.1144499E+00  0.3953432E+00
 -0.5857690E+01 -0.1414170E+02  0.0000000E+00  0.3907712E+00 -0.1310836E+01 -0.1004446E+00  0.3776414E+00
 -0.4443360E+01 -0.1464780E+02  0.0000000E+00  0.3619872E+00 -0.1334884E+01 -0.8460732E-01  0.3519607E+00
 -0.2986230E+01 -0.1501280E+02  0.0000000E+00  0.3062050E+00 -0.1364495E+01 -0.6272347E-01  0.2997120E+00
 -0.1500340E+01 -0.1523320E+02  0.0000000E+00  0.1197061E+00 -0.1486076E+01 -0.1012936E-01  0.1192767E+00
  0.1825330E-06 -0.1530690E+02  0.0000000E+00  0.3200614E-01 -0.2925178E+01  0.3125956E-01  0.6872654E-02
  0.1500340E+01 -0.1523320E+02  0.0000000E+00  0.1214321E+00  0.2222919E+01  0.7369409E-01 -0.9651390E-01
  0.2986230E+01 -0.1501280E+02  0.0000000E+00  0.2688725E+00  0.2080763E+01  0.1312497E+00 -0.2346613E+00
  0.4443360E+01 -0.1464780E+02  0.0000000E+00  0.3096020E+00  0.2077084E+01  0.1501365E+00 -0.2707627E+00
  0.5857700E+01 -0.1414170E+02  0.0000000E+00  0.3300333E+00  0.2085099E+01  0.1623524E+00 -0.2873389E+00
  0.7215620E+01 -0.1349950E+02  0.0000000E+00  0.3451829E+00  0.2094249E+01  0.1725477E+00 -0.2989625E+00
  0.8504060E+01 -0.1272720E+02  0.0000000E+00  0.3581967E+00  0.2103555E+01  0.1819323E+00 -0.3085539E+00
  0.9710600E+01 -0.1183240E+02  0.0000000E+00  0.3647615E+00  0.2115492E+01  0.1890041E+00 -0.3119749E+00
  0.1082360E+02 -0.1082360E+02  0.0000000E+00  0.3716429E+00  0.2125911E+01  0.1958708E+00 -0.3158371E+00
  0.1183240E+02 -0.9710590E+01  0.0000000E+00  0.3760300E+00  0.2135659E+01  0.2012887E+00 -0.3176184E+00
  0.1272720E+02 -0.8504060E+01  0.0000000E+00  0.3797153E+00  0.2143314E+01  0.2057107E+00 -0.3191658E+00
  0.1349950E+02 -0.7215620E+01  0.0000000E+00  0.3829891E+00  0.2149349E+01  0.2094233E+00 -0.3206595E+00
  0.1414170E+02 -0.5857700E+01  0.0000000E+00  0.3869090E+00  0.2152705E+01  0.2126526E+00 -0.3232297E+00
  0.1464780E+02 -0.4443350E+01  0.0000000E+00  0.3898799E+00  0.2154335E+01  0.2148162E+00 -0.3253618E+00
  0.1501280E+02 -0.2986230E+01  0.0000000E+00  0.3912888E+00  0.2154705E+01  0.2157132E+00 -0.3264579E+00
  0.1523320E+02 -0.1500330E+01  0.0000000E+00  0.3914125E+00  0.2153203E+01  0.2152909E+00 -0.3268847E+00
  0.1530690E+02  0.0000000E+00 -0.2568960E-01  0.3896440E+00  0.2150171E+01  0.2133305E+00 -0.3260560E+00
  0.1523320E+02  0.1500340E+01 -0.2568960E-01  0.3871015E+00  0.2145510E+01  0.2104264E+00 -0.3249128E+00
  0.1501280E+02  0.2986230E+01 -0.2568960E-01  0.3830721E+00  0.2139787E+01  0.2063924E+00 -0.3227172E+00
  0.1464780E+02  0.4443360E+01 -0.2568960E-01  0.3777342E+00  0.2132989E+01  0.2013486E+00 -0.3195964E+00
  0.1414170E+02  0.5857700E+01 -0.2568960E-01  0.3708403E+00  0.2125249E+01  0.1952395E+00 -0.3152842E+00
  0.1349950E+02  0.7215620E+01 -0.2568960E-01  0.3628972E+00  0.2115894E+01  0.1881628E+00 -0.3103049E+00
  0.1272720E+02  0.8504060E+01 -0.2568960E-01  0.3556490E+00  0.2102560E+01  0.1803334E+00 -0.3065389E+00
  0.1183240E+02  0.9710600E+01 -0.2568960E-01  0.3479652E+00  0.2086600E+01  0.1716283E+00 -0.3026938E+00
  0.1082360E+02  0.1082360E+02 -0.2568960E-01  0.3392672E+00  0.2068138E+01  0.1618614E+00 -0.2981663E+00
  0.9710590E+01  0.1183240E+02 -0.2568960E-01  0.3275951E+00  0.2049498E+01  0.1508991E+00 -0.2907713E+00
  0.8504060E+01  0.1272720E+02 -0.2568960E-01  0.3160428E+00  0.2027381E+01  0.1393385E+00 -0.2836685E+00
  0.7215620E+01  0.1349950E+02 -0.2568960E-01  0.2976315E+00  0.2009163E+01  0.1263331E+00 -0.2694892E+00
  0.5857700E+01  0.1414170E+02 -0.2568960E-01  0.2760637E+00  0.1989650E+01  0.1122787E+00 -0.2521996E+00
  0.4443360E+01  0.1464780E+02 -0.2568960E-01  0.2468197E+00  0.1972774E+01  0.9656557E-01 -0.2271454E+00
  0.2986230E+01  0.1501280E+02 -0.2568960E-01  0.1920173E+00  0.1983641E+01  0.7704052E-01 -0.1758846E+00
  0.1500340E+01  0.1523320E+02 -0.2568960E-01  0.4230955E-01 -0.3089959E+01  0.4225316E-01  0.2183606E-02
 -0.6690860E-06  0.1530690E+02 -0.2568960E-01  0.1155682E+00 -0.1719903E+01  0.1716820E-01  0.1142858E+00
 -0.1500340E+01  0.1523320E+02 -0.2568960E-01  0.2183550E+00 -0.1541756E+01 -0.6340184E-02  0.2182630E+00
 -0.2986230E+01  0.1501280E+02 -0.2568960E-01  0.3601409E+00 -0.1476373E+01 -0.3395533E-01  0.3585366E+00
 -0.4443360E+01  0.1464780E+02 -0.2568960E-01  0.3995668E+00 -0.1432251E+01 -0.5518114E-01  0.3957381E+00
 -0.5857700E+01  0.1414170E+02 -0.2568960E-01  0.4194531E+00 -0.1395093E+01 -0.7332083E-01  0.4129951E+00
 -0.7215620E+01  0.1349950E+02 -0.2568960E-01  0.4345372E+00 -0.1362357E+01 -0.8992023E-01  0.4251317E+00
 -0.8504060E+01  0.1272720E+02 -0.2568960E-01  0.4475954E+00 -0.1333731E+01 -0.1051183E+00  0.4350768E+00
 -0.9710590E+01  0.1183240E+02 -0.2568960E-01  0.4545790E+00 -0.1306783E+01 -0.1186254E+00  0.4388281E+00
 -0.1082360E+02  0.1082360E+02 -0.2568960E-01  0.4618706E+00 -0.1283406E+01 -0.1309174E+00  0.4429279E+00
 -0.1183240E+02  0.9710590E+01 -0.2568960E-01  0.4669635E+00 -0.1262047E+01 -0.1418949E+00  0.4448828E+00
 -0.1272720E+02  0.8504060E+01 -0.2568960E-01  0.4716111E+00 -0.1243330E+01 -0.1516912E+00  0.4465499E+00
 -0.1349950E+02  0.7215620E+01 -0.2568960E-01  0.4758823E+00 -0.1227483E+01 -0.1601863E+00  0.4481120E+00
 -0.1414170E+02  0.5857690E+01 -0.2568960E-01  0.4808137E+00 -0.1215027E+01 -0.1674731E+00  0.4507045E+00
 -0.1464780E+02  0.4443360E+01 -0.2568960E-01  0.4849046E+00 -0.1204945E+01 -0.1734720E+00  0.4528133E+00
 -0.1501280E+02  0.2986230E+01 -0.2568960E-01  0.4875589E+00 -0.1196813E+01 -0.1781179E+00  0.4538587E+00
 -0.1523320E+02  0.1500340E+01 -0.2568960E-01  0.4891137E+00 -0.1190816E+01 -0.1814135E+00  0.4542261E+00
 -0.1530690E+02 -0.1338170E-05 -0.2568960E-01  0.4893240E+00 -0.1186875E+01 -0.1832810E+00  0.4537026E+00
 -0.1523320E+02 -0.1500340E+01 -0.2568960E-01  0.4883403E+00 -0.1185148E+01 -0.1836938E+00  0.4524741E+00
 -0.1501280E+02 -0.2986230E+01 -0.2568960E-01  0.4857718E+00 -0.1185547E+01 -0.1825484E+00  0.4501670E+00
 -0.1464780E+02 -0.4443360E+01 -0.2568960E-01  0.4817200E+00 -0.1188265E+01 -0.1798116E+00  0.4469026E+00
 -0.1414170E+02 -0.5857700E+01 -0.2568960E-01  0.4759866E+00 -0.1193008E+01 -0.1755749E+00  0.4424214E+00
 -0.1349950E+02 -0.7215620E+01 -0.2568960E-01  0.4691421E+00 -0.1199938E+01 -0.1700246E+00  0.4372482E+00
 -0.1272720E+02 -0.8504060E+01 -0.2568960E-01  0.4631521E+00 -0.1209727E+01 -0.1636201E+00  0.4332878E+00
 -0.1183240E+02 -0.9710600E+01 -0.2568960E-01  0.4567697E+00 -0.1221843E+01 -0.1561761E+00  0.4292407E+00
 -0.1082360E+02 -0.1082360E+02 -0.2568960E-01  0.4494742E+00 -0.1235884E+01 -0.1477360E+00  0.4245010E+00
 -0.9710600E+01 -0.1183240E+02 -0.2568960E-01  0.4390607E+00 -0.1251420E+01 -0.1378536E+00  0.4168581E+00
 -0.8504050E+01 -0.1272720E+02 -0.2568960E-01  0.4288075E+00 -0.1269395E+01 -0.1272954E+00  0.4094774E+00
 -0.7215620E+01 -0.1349950E+02 -0.2568960E-01  0.4111729E+00 -0.1289013E+01 -0.1143345E+00  0.3949566E+00
 -0.5857690E+01 -0.1414170E+02 -0.2568960E-01  0.3903675E+00 -0.1310840E+01 -0.1003396E+00  0.3772516E+00
 -0.4443360E+01 -0.1464780E+02 -0.2568960E-01  0.3616263E+00 -0.1334887E+01 -0.8452188E-01  0.3516101E+00
 -0.2986230E+01 -0.1501280E+02 -0.2568960E-01  0.3058656E+00 -0.1364485E+01 -0.6265698E-01  0.2993791E+00
 -0.1500340E+01 -0.1523320E+02 -0.2568960E-01  0.1197076E+00 -0.1485952E+01 -0.1014438E-01  0.1192770E+00
  0.1825330E-06 -0.1530690E+02 -0.2568960E-01  0.3196833E-01 -0.2925522E+01  0.3122499E-01  0.6853789E-02
  0.1500340E+01 -0.1523320E+02 -0.2568960E-01  0.1214032E+00  0.2222668E+01  0.7365233E-01 -0.9650944E-01
  0.2986230E+01 -0.1501280E+02 -0.2568960E-01  0.2685962E+00  0.2080734E+01  0.1311080E+00 -0.2344240E+00
  0.4443360E+01 -0.1464780E+02 -0.2568960E-01  0.3093007E+00  0.2077059E+01  0.1499835E+00 -0.2705030E+00
  0.5857700E+01 -0.1414170E+02 -0.2568960E-01  0.3297013E+00  0.2085069E+01  0.1621807E+00 -0.2870546E+00
  0.7215620E+01 -0.1349950E+02 -0.2568960E-01  0.3448536E+00  0.2094215E+01  0.1723730E+00 -0.2986831E+00
  0.8504060E+01 -0.1272720E+02 -0.2568960E-01  0.3578095E+00  0.2103546E+01  0.1817330E+00 -0.3082219E+00
  0.9710600E+01 -0.1183240E+02 -0.2568960E-01  0.3643920E+00  0.2115469E+01  0.1888055E+00 -0.3116633E+00
  0.1082360E+02 -0.1082360E+02 -0.2568960E-01  0.3712527E+00  0.2125892E+01  0.1956594E+00 -0.3155091E+00
  0.1183240E+02 -0.9710590E+01 -0.2568960E-01  0.3756375E+00  0.2135637E+01  0.2010717E+00 -0.3172913E+00
  0.1272720E+02 -0.8504060E+01 -0.2568960E-01  0.3793271E+00  0.2143287E+01  0.2054918E+00 -0.3188451E+00
  0.1349950E+02 -0.7215620E+01 -0.2568960E-01  0.3825954E+00  0.2149317E+01  0.2091978E+00 -0.3203366E+00
  0.1414170E+02 -0.5857700E+01 -0.2568960E-01  0.3865012E+00  0.2152684E+01  0.2124219E+00 -0.3228933E+00
  0.1464780E+02 -0.4443350E+01 -0.2568960E-01  0.3894539E+00  0.2154325E+01  0.2145784E+00 -0.3250084E+00
  0.1501280E+02 -0.2986230E+01 -0.2568960E-01  0.3908516E+00  0.2154701E+01  0.2154710E+00 -0.3260939E+00
  0.1523320E+02 -0.1500330E+01 -0.2568960E-01  0.3909683E+00  0.2153208E+01  0.2150480E+00 -0.3265127E+00
  0.1530690E+02  0.0000000E+00 -0.1027320E+00  0.3883020E+00  0.2150227E+01  0.2126139E+00 -0.3249211E+00
  0.1523320E+02  0.1500340E+01 -0.1027320E+00  0.3857714E+00  0.2145561E+01  0.2097196E+00 -0.3237858E+00
  0.1501280E+02  0.2986230E+01 -0.1027320E+00  0.3817755E+00  0.2139824E+01  0.2057057E+00 -0.3216173E+00
  0.1464780E+02  0.4443360E+01 -0.1027320E+00  0.3764859E+00  0.2132995E+01  0.2006848E+00 -0.3185392E+00
  0.1414170E+02  0.5857700E+01 -0.1027320E+00  0.3696521E+00  0.2125196E+01  0.1945972E+00 -0.3142843E+00
  0.1349950E+02  0.7215620E+01 -0.1027320E+00  0.3617730E+00  0.2115800E+01  0.1875508E+00 -0.3093613E+00
  0.1272720E+02  0.8504060E+01 -0.1027320E+00  0.3545448E+00  0.2102473E+01  0.1797469E+00 -0.3056028E+00
  0.1183240E+02  0.9710600E+01 -0.1027320E+00  0.3468600E+00  0.2086547E+01  0.1710673E+00 -0.3017414E+00
  0.1082360E+02  0.1082360E+02 -0.1027320E+00  0.3381839E+00  0.2068092E+01  0.1613309E+00 -0.2972217E+00
  0.9710590E+01  0.1183240E+02 -0.1027320E+00  0.3265932E+00  0.2049415E+01  0.1504136E+00 -0.2898946E+00
  0.8504060E+01  0.1272720E+02 -0.1027320E+00  0.3150084E+00  0.2027376E+01  0.1388811E+00 -0.2827408E+00
  0.7215620E+01  0.1349950E+02 -0.1027320E+00  0.2967596E+00  0.2009049E+01  0.1259324E+00 -0.2687141E+00
  0.5857700E+01  0.1414170E+02 -0.1027320E+00  0.2752377E+00  0.1989564E+01  0.1119212E+00 -0.2514547E+00
  0.4443360E+01  0.1464780E+02 -0.1027320E+00  0.2461125E+00  0.1972684E+01  0.9626856E-01 -0.2265033E+00
  0.2986230E+01  0.1501280E+02 -0.1027320E+00  0.1914867E+00  0.1983497E+01  0.7680234E-01 -0.1754097E+00
  0.1500340E+01  0.1523320E+02 -0.1027320E+00  0.4218871E-01 -0.3093896E+01  0.4214073E-01  0.2011491E-02
 -0.6690860E-06  0.1530690E+02 -0.1027320E+00  0.1151991E+00 -0.1719938E+01  0.1711737E-01  0.1139203E+00
 -0.1500340E+01  0.1523320E+02 -0.1027320E+00  0.2177766E+00 -0.1541777E+01 -0.6318744E-02  0.2176850E+00
 -0.2986230E+01  0.1501280E+02 -0.1027320E+00  0.3590782E+00 -0.1476402E+01 -0.3384469E-01  0.3574796E+00
 -0.4443360E+01  0.1464780E+02 -0.1027320E+00  0.3983324E+00 -0.1432297E+01 -0.5499273E-01  0.3945180E+00
 -0.5857700E+01  0.1414170E+02 -0.1027320E+00  0.4181492E+00 -0.1395129E+01 -0.7307784E-01  0.4117140E+00
 -0.7215620E+01  0.1349950E+02 -0.1027320E+00  0.4331978E+00 -0.1362409E+01 -0.8962104E-01  0.4238259E+00
 -0.8504060E+01  0.1272720E+02 -0.1027320E+00  0.4461133E+00 -0.1333751E+01 -0.1047613E+00  0.4336382E+00
 -0.9710590E+01  0.1183240E+02 -0.1027320E+00  0.4531412E+00 -0.1306832E+01 -0.1182290E+00  0.4374458E+00
 -0.1082360E+02  0.1082360E+02 -0.1027320E+00  0.4603748E+00 -0.1283436E+01 -0.1304802E+00  0.4414973E+00
 -0.1183240E+02  0.9710590E+01 -0.1027320E+00  0.4654565E+00 -0.1262079E+01 -0.1414227E+00  0.4434516E+00
 -0.1272720E+02  0.8504060E+01 -0.1027320E+00  0.4701101E+00 -0.1243379E+01 -0.1511869E+00  0.4451359E+00
 -0.1349950E+02  0.7215620E+01 -0.1027320E+00  0.4743697E+00 -0.1227536E+01 -0.1596535E+00  0.4466961E+00
 -0.1414170E+02  0.5857690E+01 -0.1027320E+00  0.4792491E+00 -0.1215068E+01 -0.1669094E+00  0.4492448E+00
 -0.1464780E+02  0.4443360E+01 -0.1027320E+00  0.4832874E+00 -0.1204963E+01 -0.1728852E+00  0.4513063E+00
 -0.1501280E+02  0.2986230E+01 -0.1027320E+00  0.4859032E+00 -0.1196819E+01 -0.1775107E+00  0.4523184E+00
 -0.1523320E+02  0.1500340E+01 -0.1027320E+00  0.4874331E+00 -0.1190812E+01 -0.1807916E+00  0.4526648E+00
 -0.1530690E+02 -0.1338170E-05 -0.1027320E+00  0.4876353E+00 -0.1186870E+01 -0.1826503E+00  0.4521361E+00
 -0.1523320E+02 -0.1500340E+01 -0.1027320E+00  0.4866570E+00 -0.1185147E+01 -0.1830613E+00  0.4509141E+00
 -0.1501280E+02 -0.2986230E+01 -0.1027320E+00  0.4841162E+00 -0.1185556E+01 -0.1819221E+00  0.4486345E+00
 -0.1464780E+02 -0.4443360E+01 -0.1027320E+00  0.4801104E+00 -0.1188285E+01 -0.1792020E+00  0.4454129E+00
 -0.1414170E+02 -0.5857700E+01 -0.1027320E+00  0.4744406E+00 -0.1193040E+01 -0.1749907E+00  0.4409899E+00
 -0.1349950E+02 -0.7215620E+01 -0.1027320E+00  0.4676592E+00 -0.1199983E+01 -0.1694674E+00  0.4358737E+00
 -0.1272720E+02 -0.8504060E+01 -0.1027320E+00  0.4616844E+00 -0.1209766E+01 -0.1630845E+00  0.4319212E+00
 -0.1183240E+02 -0.9710600E+01 -0.1027320E+00  0.4552961E+00 -0.1221868E+01 -0.1556618E+00  0.4278598E+00
 -0.1082360E+02 -0.1082360E+02 -0.1027320E+00  0.4480162E+00 -0.1235904E+01 -0.1472485E+00  0.4231270E+00
 -0.9710600E+01 -0.1183240E+02 -0.1027320E+00  0.4376813E+00 -0.1251450E+01 -0.1374083E+00  0.4155526E+00
 -0.8504050E+01 -0.1272720E+02 -0.1027320E+00  0.4273853E+00 -0.1269418E+01 -0.1268635E+00  0.4081224E+00
 -0.7215620E+01 -0.1349950E+02 -0.1027320E+00  0.4099192E+00 -0.1289036E+01 -0.1139769E+00  0.3937550E+00
 -0.5857690E+01 -0.1414170E+02 -0.1027320E+00  0.3891546E+00 -0.1310855E+01 -0.1000220E+00  0.3760809E+00
 -0.4443360E+01 -0.1464780E+02 -0.1027320E+00  0.3605292E+00 -0.1334910E+01 -0.8425740E-01  0.3505453E+00
 -0.2986230E+01 -0.1501280E+02 -0.1027320E+00  0.3049499E+00 -0.1364461E+01 -0.6247656E-01  0.2984814E+00
 -0.1500340E+01 -0.1523320E+02 -0.1027320E+00  0.1194687E+00 -0.1485800E+01 -0.1014218E-01  0.1190374E+00
  0.1825330E-06 -0.1530690E+02 -0.1027320E+00  0.3186504E-01 -0.2926372E+01  0.3112989E-01  0.6805182E-02
  0.1500340E+01 -0.1523320E+02 -0.1027320E+00  0.1211623E+00  0.2222289E+01  0.7346969E-01 -0.9634575E-01
  0.2986230E+01 -0.1501280E+02 -0.1027320E+00  0.2678513E+00  0.2080610E+01  0.1307153E+00 -0.2337902E+00
  0.4443360E+01 -0.1464780E+02 -0.1027320E+00  0.3083824E+00  0.2077008E+01  0.1495247E+00 -0.2697073E+00
  0.5857700E+01 -0.1414170E+02 -0.1027320E+00  0.3287088E+00  0.2084996E+01  0.1616715E+00 -0.2862023E+00
  0.7215620E+01 -0.1349950E+02 -0.1027320E+00  0.3438283E+00  0.2094148E+01  0.1718406E+00 -0.2978065E+00
  0.8504060E+01 -0.1272720E+02 -0.1027320E+00  0.3566388E+00  0.2103541E+01  0.1811368E+00 -0.3072144E+00
  0.9710600E+01 -0.1183240E+02 -0.1027320E+00  0.3632673E+00  0.2115416E+01  0.1882061E+00 -0.3107114E+00
  0.1082360E+02 -0.1082360E+02 -0.1027320E+00  0.3700682E+00  0.2125847E+01  0.1950208E+00 -0.3145113E+00
  0.1183240E+02 -0.9710590E+01 -0.1027320E+00  0.3744420E+00  0.2135579E+01  0.2004135E+00 -0.3162931E+00
  0.1272720E+02 -0.8504060E+01 -0.1027320E+00  0.3781447E+00  0.2143226E+01  0.2048318E+00 -0.3178638E+00
