 VARIABLES="X" "Y" "Z" "abs(eta) (m)" "angle(phi) (rad)" "PRE1" "PRE2"
ZONE N=   3200 ,E =    3136 ,F=FEPOINT,ET=QUADRILATERAL
  0.1530690E+02  0.0000000E+00  0.0000000E+00  0.4898820E+00 -0.1186876E+01 -0.1834894E+00  0.4542202E+00
  0.1523320E+02  0.1500340E+01  0.0000000E+00  0.4888960E+00 -0.1185147E+01 -0.1839037E+00  0.4529887E+00
  0.1501280E+02  0.2986230E+01  0.0000000E+00  0.4863187E+00 -0.1185543E+01 -0.1827557E+00  0.4506731E+00
  0.1464780E+02  0.4443360E+01  0.0000000E+00  0.4822505E+00 -0.1188259E+01 -0.1800124E+00  0.4473936E+00
  0.1414170E+02  0.5857700E+01  0.0000000E+00  0.4764969E+00 -0.1192995E+01 -0.1757689E+00  0.4428934E+00
  0.1349950E+02  0.7215620E+01  0.0000000E+00  0.4696298E+00 -0.1199928E+01 -0.1702056E+00  0.4377010E+00
  0.1272720E+02  0.8504060E+01  0.0000000E+00  0.4636338E+00 -0.1209717E+01 -0.1637944E+00  0.4337370E+00
  0.1183240E+02  0.9710600E+01  0.0000000E+00  0.4572555E+00 -0.1221838E+01 -0.1563446E+00  0.4296964E+00
  0.1082360E+02  0.1082360E+02  0.0000000E+00  0.4499548E+00 -0.1235879E+01 -0.1478963E+00  0.4249541E+00
  0.9710590E+01  0.1183240E+02  0.0000000E+00  0.4395155E+00 -0.1251409E+01 -0.1380014E+00  0.4172883E+00
  0.8504060E+01  0.1272720E+02  0.0000000E+00  0.4292776E+00 -0.1269390E+01 -0.1274368E+00  0.4099258E+00
  0.7215620E+01  0.1349950E+02  0.0000000E+00  0.4115752E+00 -0.1289006E+01 -0.1144492E+00  0.3953423E+00
  0.5857700E+01  0.1414170E+02  0.0000000E+00  0.3907715E+00 -0.1310838E+01 -0.1004441E+00  0.3776418E+00
  0.4443360E+01  0.1464780E+02  0.0000000E+00  0.3619870E+00 -0.1334887E+01 -0.8460628E-01  0.3519607E+00
  0.2986230E+01  0.1501280E+02  0.0000000E+00  0.3062043E+00 -0.1364495E+01 -0.6272309E-01  0.2997113E+00
  0.1500340E+01  0.1523320E+02  0.0000000E+00  0.1197063E+00 -0.1486088E+01 -0.1012800E-01  0.1192771E+00
 -0.6690860E-06  0.1530690E+02  0.0000000E+00  0.3200437E-01 -0.2925184E+01  0.3125786E-01  0.6872097E-02
 -0.1500340E+01  0.1523320E+02  0.0000000E+00  0.1214337E+00  0.2222931E+01  0.7369620E-01 -0.9651432E-01
 -0.2986230E+01  0.1501280E+02  0.0000000E+00  0.2688731E+00  0.2080767E+01  0.1312509E+00 -0.2346614E+00
 -0.4443360E+01  0.1464780E+02  0.0000000E+00  0.3096038E+00  0.2077086E+01  0.1501380E+00 -0.2707640E+00
 -0.5857700E+01  0.1414170E+02  0.0000000E+00  0.3300330E+00  0.2085093E+01  0.1623506E+00 -0.2873396E+00
 -0.7215620E+01  0.1349950E+02  0.0000000E+00  0.3451840E+00  0.2094253E+01  0.1725494E+00 -0.2989627E+00
 -0.8504060E+01  0.1272720E+02  0.0000000E+00  0.3581975E+00  0.2103555E+01  0.1819327E+00 -0.3085547E+00
 -0.9710590E+01  0.1183240E+02  0.0000000E+00  0.3647634E+00  0.2115498E+01  0.1890068E+00 -0.3119756E+00
 -0.1082360E+02  0.1082360E+02  0.0000000E+00  0.3716442E+00  0.2125914E+01  0.1958726E+00 -0.3158375E+00
 -0.1183240E+02  0.9710590E+01  0.0000000E+00  0.3760302E+00  0.2135657E+01  0.2012883E+00 -0.3176188E+00
 -0.1272720E+02  0.8504060E+01  0.0000000E+00  0.3797168E+00  0.2143316E+01  0.2057122E+00 -0.3191666E+00
 -0.1349950E+02  0.7215620E+01  0.0000000E+00  0.3829892E+00  0.2149349E+01  0.2094233E+00 -0.3206597E+00
 -0.1414170E+02  0.5857690E+01  0.0000000E+00  0.3869097E+00  0.2152705E+01  0.2126531E+00 -0.3232302E+00
 -0.1464780E+02  0.4443360E+01  0.0000000E+00  0.3898801E+00  0.2154338E+01  0.2148173E+00 -0.3253614E+00
 -0.1501280E+02  0.2986230E+01  0.0000000E+00  0.3912894E+00  0.2154704E+01  0.2157132E+00 -0.3264585E+00
 -0.1523320E+02  0.1500340E+01  0.0000000E+00  0.3914140E+00  0.2153207E+01  0.2152929E+00 -0.3268851E+00
 -0.1530690E+02 -0.1338170E-05  0.0000000E+00  0.3900888E+00  0.2150164E+01  0.2135716E+00 -0.3264298E+00
 -0.1523320E+02 -0.1500340E+01  0.0000000E+00  0.3875411E+00  0.2145500E+01  0.2106621E+00 -0.3252839E+00
 -0.1501280E+02 -0.2986230E+01  0.0000000E+00  0.3835022E+00  0.2139787E+01  0.2066240E+00 -0.3230797E+00
 -0.1464780E+02 -0.4443360E+01  0.0000000E+00  0.3781487E+00  0.2133003E+01  0.2015739E+00 -0.3199444E+00
 -0.1414170E+02 -0.5857700E+01  0.0000000E+00  0.3712319E+00  0.2125270E+01  0.1954521E+00 -0.3156131E+00
 -0.1349950E+02 -0.7215620E+01  0.0000000E+00  0.3632685E+00  0.2115937E+01  0.1883687E+00 -0.3106142E+00
 -0.1272720E+02 -0.8504060E+01  0.0000000E+00  0.3560134E+00  0.2102598E+01  0.1805299E+00 -0.3068461E+00
 -0.1183240E+02 -0.9710600E+01  0.0000000E+00  0.3483302E+00  0.2086627E+01  0.1718165E+00 -0.3030066E+00
 -0.1082360E+02 -0.1082360E+02  0.0000000E+00  0.3396240E+00  0.2068161E+01  0.1620385E+00 -0.2984762E+00
 -0.9710600E+01 -0.1183240E+02  0.0000000E+00  0.3279268E+00  0.2049537E+01  0.1510632E+00 -0.2910599E+00
 -0.8504050E+01 -0.1272720E+02  0.0000000E+00  0.3163853E+00  0.2027387E+01  0.1394914E+00 -0.2839750E+00
 -0.7215620E+01 -0.1349950E+02  0.0000000E+00  0.2979109E+00  0.2009221E+01  0.1264673E+00 -0.2697349E+00
 -0.5857690E+01 -0.1414170E+02  0.0000000E+00  0.2763400E+00  0.1989682E+01  0.1123994E+00 -0.2524484E+00
 -0.4443360E+01 -0.1464780E+02  0.0000000E+00  0.2470529E+00  0.1972822E+01  0.9666777E-01 -0.2273554E+00
 -0.2986230E+01 -0.1501280E+02  0.0000000E+00  0.1922271E+00  0.1983644E+01  0.7712521E-01 -0.1760766E+00
 -0.1500340E+01 -0.1523320E+02  0.0000000E+00  0.4234353E-01 -0.3086770E+01  0.4227992E-01  0.2320212E-02
  0.1825330E-06 -0.1530690E+02  0.0000000E+00  0.1156892E+00 -0.1719889E+01  0.1718461E-01  0.1144057E+00
  0.1500340E+01 -0.1523320E+02  0.0000000E+00  0.2184948E+00 -0.1541759E+01 -0.6343531E-02  0.2184027E+00
  0.2986230E+01 -0.1501280E+02  0.0000000E+00  0.3605229E+00 -0.1476367E+01 -0.3399339E-01  0.3589167E+00
  0.4443360E+01 -0.1464780E+02  0.0000000E+00  0.3999732E+00 -0.1432246E+01 -0.5523911E-01  0.3961404E+00
  0.5857700E+01 -0.1414170E+02  0.0000000E+00  0.4198873E+00 -0.1395090E+01 -0.7339779E-01  0.4134224E+00
  0.7215620E+01 -0.1349950E+02  0.0000000E+00  0.4349702E+00 -0.1362338E+01 -0.9001808E-01  0.4255535E+00
  0.8504060E+01 -0.1272720E+02  0.0000000E+00  0.4480847E+00 -0.1333727E+01 -0.1052347E+00  0.4355520E+00
  0.9710600E+01 -0.1183240E+02  0.0000000E+00  0.4550534E+00 -0.1306768E+01 -0.1187558E+00  0.4392842E+00
  0.1082360E+02 -0.1082360E+02  0.0000000E+00  0.4623642E+00 -0.1283394E+01 -0.1310627E+00  0.4433997E+00
  0.1183240E+02 -0.9710590E+01  0.0000000E+00  0.4674603E+00 -0.1262034E+01 -0.1420517E+00  0.4453543E+00
  0.1272720E+02 -0.8504060E+01  0.0000000E+00  0.4721051E+00 -0.1243316E+01 -0.1518567E+00  0.4470154E+00
  0.1349950E+02 -0.7215620E+01  0.0000000E+00  0.4763814E+00 -0.1227463E+01 -0.1603634E+00  0.4485787E+00
  0.1414170E+02 -0.5857700E+01  0.0000000E+00  0.4813283E+00 -0.1215016E+01 -0.1676574E+00  0.4511850E+00
  0.1464780E+02 -0.4443350E+01  0.0000000E+00  0.4854371E+00 -0.1204941E+01 -0.1736642E+00  0.4533099E+00
  0.1501280E+02 -0.2986230E+01  0.0000000E+00  0.4881051E+00 -0.1196813E+01 -0.1783177E+00  0.4543670E+00
  0.1523320E+02 -0.1500330E+01  0.0000000E+00  0.4896691E+00 -0.1190817E+01 -0.1816190E+00  0.4547420E+00
  0.1530690E+02  0.0000000E+00 -0.2568960E-01  0.4893233E+00 -0.1186876E+01 -0.1832802E+00  0.4537022E+00
  0.1523320E+02  0.1500340E+01 -0.2568960E-01  0.4883395E+00 -0.1185149E+01 -0.1836932E+00  0.4524735E+00
  0.1501280E+02  0.2986230E+01 -0.2568960E-01  0.4857710E+00 -0.1185548E+01 -0.1825477E+00  0.4501664E+00
  0.1464780E+02  0.4443360E+01 -0.2568960E-01  0.4817193E+00 -0.1188267E+01 -0.1798105E+00  0.4469023E+00
  0.1414170E+02  0.5857700E+01 -0.2568960E-01  0.4759861E+00 -0.1193012E+01 -0.1755732E+00  0.4424216E+00
  0.1349950E+02  0.7215620E+01 -0.2568960E-01  0.4691404E+00 -0.1199942E+01 -0.1700221E+00  0.4372473E+00
  0.1272720E+02  0.8504060E+01 -0.2568960E-01  0.4631513E+00 -0.1209728E+01 -0.1636192E+00  0.4332873E+00
  0.1183240E+02  0.9710600E+01 -0.2568960E-01  0.4567685E+00 -0.1221845E+01 -0.1561749E+00  0.4292398E+00
  0.1082360E+02  0.1082360E+02 -0.2568960E-01  0.4494737E+00 -0.1235886E+01 -0.1477350E+00  0.4245009E+00
  0.9710590E+01  0.1183240E+02 -0.2568960E-01  0.4390605E+00 -0.1251418E+01 -0.1378545E+00  0.4168576E+00
  0.8504060E+01  0.1272720E+02 -0.2568960E-01  0.4288067E+00 -0.1269397E+01 -0.1272940E+00  0.4094770E+00
  0.7215620E+01  0.1349950E+02 -0.2568960E-01  0.4111721E+00 -0.1289014E+01 -0.1143340E+00  0.3949560E+00
  0.5857700E+01  0.1414170E+02 -0.2568960E-01  0.3903658E+00 -0.1310845E+01 -0.1003370E+00  0.3772506E+00
  0.4443360E+01  0.1464780E+02 -0.2568960E-01  0.3616253E+00 -0.1334893E+01 -0.8451959E-01  0.3516096E+00
  0.2986230E+01  0.1501280E+02 -0.2568960E-01  0.3058656E+00 -0.1364486E+01 -0.6265647E-01  0.2993792E+00
  0.1500340E+01  0.1523320E+02 -0.2568960E-01  0.1197075E+00 -0.1485947E+01 -0.1014495E-01  0.1192769E+00
 -0.6690860E-06  0.1530690E+02 -0.2568960E-01  0.3196995E-01 -0.2925531E+01  0.3122662E-01  0.6853872E-02
 -0.1500340E+01  0.1523320E+02 -0.2568960E-01  0.1214037E+00  0.2222667E+01  0.7365254E-01 -0.9650996E-01
 -0.2986230E+01  0.1501280E+02 -0.2568960E-01  0.2685960E+00  0.2080740E+01  0.1311093E+00 -0.2344230E+00
 -0.4443360E+01  0.1464780E+02 -0.2568960E-01  0.3093025E+00  0.2077066E+01  0.1499864E+00 -0.2705034E+00
 -0.5857700E+01  0.1414170E+02 -0.2568960E-01  0.3297029E+00  0.2085073E+01  0.1621827E+00 -0.2870553E+00
 -0.7215620E+01  0.1349950E+02 -0.2568960E-01  0.3448551E+00  0.2094219E+01  0.1723751E+00 -0.2986835E+00
 -0.8504060E+01  0.1272720E+02 -0.2568960E-01  0.3578106E+00  0.2103549E+01  0.1817344E+00 -0.3082223E+00
 -0.9710590E+01  0.1183240E+02 -0.2568960E-01  0.3643923E+00  0.2115471E+01  0.1888063E+00 -0.3116632E+00
 -0.1082360E+02  0.1082360E+02 -0.2568960E-01  0.3712536E+00  0.2125894E+01  0.1956604E+00 -0.3155095E+00
 -0.1183240E+02  0.9710590E+01 -0.2568960E-01  0.3756390E+00  0.2135640E+01  0.2010736E+00 -0.3172918E+00
 -0.1272720E+02  0.8504060E+01 -0.2568960E-01  0.3793280E+00  0.2143289E+01  0.2054930E+00 -0.3188454E+00
 -0.1349950E+02  0.7215620E+01 -0.2568960E-01  0.3825973E+00  0.2149321E+01  0.2092001E+00 -0.3203374E+00
 -0.1414170E+02  0.5857690E+01 -0.2568960E-01  0.3865014E+00  0.2152683E+01  0.2124217E+00 -0.3228937E+00
 -0.1464780E+02  0.4443360E+01 -0.2568960E-01  0.3894545E+00  0.2154326E+01  0.2145790E+00 -0.3250088E+00
 -0.1501280E+02  0.2986230E+01 -0.2568960E-01  0.3908532E+00  0.2154706E+01  0.2154733E+00 -0.3260943E+00
 -0.1523320E+02  0.1500340E+01 -0.2568960E-01  0.3909701E+00  0.2153213E+01  0.2150507E+00 -0.3265131E+00
 -0.1530690E+02 -0.1338170E-05 -0.2568960E-01  0.3896454E+00  0.2150176E+01  0.2133327E+00 -0.3260563E+00
 -0.1523320E+02 -0.1500340E+01 -0.2568960E-01  0.3871021E+00  0.2145510E+01  0.2104267E+00 -0.3249133E+00
 -0.1501280E+02 -0.2986230E+01 -0.2568960E-01  0.3830745E+00  0.2139794E+01  0.2063958E+00 -0.3227179E+00
 -0.1464780E+02 -0.4443360E+01 -0.2568960E-01  0.3777369E+00  0.2132999E+01  0.2013530E+00 -0.3195968E+00
 -0.1414170E+02 -0.5857700E+01 -0.2568960E-01  0.3708413E+00  0.2125251E+01  0.1952405E+00 -0.3152847E+00
 -0.1349950E+02 -0.7215620E+01 -0.2568960E-01  0.3628982E+00  0.2115896E+01  0.1881638E+00 -0.3103054E+00
 -0.1272720E+02 -0.8504060E+01 -0.2568960E-01  0.3556501E+00  0.2102561E+01  0.1803342E+00 -0.3065397E+00
 -0.1183240E+02 -0.9710600E+01 -0.2568960E-01  0.3479660E+00  0.2086599E+01  0.1716283E+00 -0.3026947E+00
 -0.1082360E+02 -0.1082360E+02 -0.2568960E-01  0.3392684E+00  0.2068141E+01  0.1618628E+00 -0.2981669E+00
 -0.9710600E+01 -0.1183240E+02 -0.2568960E-01  0.3275957E+00  0.2049498E+01  0.1508994E+00 -0.2907719E+00
 -0.8504050E+01 -0.1272720E+02 -0.2568960E-01  0.3160439E+00  0.2027383E+01  0.1393396E+00 -0.2836692E+00
 -0.7215620E+01 -0.1349950E+02 -0.2568960E-01  0.2976328E+00  0.2009166E+01  0.1263344E+00 -0.2694900E+00
 -0.5857690E+01 -0.1414170E+02 -0.2568960E-01  0.2760648E+00  0.1989647E+01  0.1122785E+00 -0.2522010E+00
 -0.4443360E+01 -0.1464780E+02 -0.2568960E-01  0.2468216E+00  0.1972778E+01  0.9656727E-01 -0.2271468E+00
 -0.2986230E+01 -0.1501280E+02 -0.2568960E-01  0.1920183E+00  0.1983651E+01  0.7704262E-01 -0.1758848E+00
 -0.1500340E+01 -0.1523320E+02 -0.2568960E-01  0.4230913E-01 -0.3089968E+01  0.4225276E-01  0.2183212E-02
  0.1825330E-06 -0.1530690E+02 -0.2568960E-01  0.1155676E+00 -0.1719901E+01  0.1716791E-01  0.1142854E+00
  0.1500340E+01 -0.1523320E+02 -0.2568960E-01  0.2183548E+00 -0.1541747E+01 -0.6342261E-02  0.2182627E+00
  0.2986230E+01 -0.1501280E+02 -0.2568960E-01  0.3601407E+00 -0.1476373E+01 -0.3395526E-01  0.3585364E+00
  0.4443360E+01 -0.1464780E+02 -0.2568960E-01  0.3995658E+00 -0.1432257E+01 -0.5517862E-01  0.3957375E+00
  0.5857700E+01 -0.1414170E+02 -0.2568960E-01  0.4194523E+00 -0.1395097E+01 -0.7331883E-01  0.4129947E+00
  0.7215620E+01 -0.1349950E+02 -0.2568960E-01  0.4345364E+00 -0.1362358E+01 -0.8991971E-01  0.4251310E+00
  0.8504060E+01 -0.1272720E+02 -0.2568960E-01  0.4475943E+00 -0.1333732E+01 -0.1051178E+00  0.4350758E+00
  0.9710600E+01 -0.1183240E+02 -0.2568960E-01  0.4545786E+00 -0.1306782E+01 -0.1186257E+00  0.4388276E+00
  0.1082360E+02 -0.1082360E+02 -0.2568960E-01  0.4618694E+00 -0.1283409E+01 -0.1309158E+00  0.4429270E+00
  0.1183240E+02 -0.9710590E+01 -0.2568960E-01  0.4669627E+00 -0.1262048E+01 -0.1418940E+00  0.4448823E+00
  0.1272720E+02 -0.8504060E+01 -0.2568960E-01  0.4716108E+00 -0.1243327E+01 -0.1516926E+00  0.4465491E+00
  0.1349950E+02 -0.7215620E+01 -0.2568960E-01  0.4758815E+00 -0.1227483E+01 -0.1601861E+00  0.4481112E+00
  0.1414170E+02 -0.5857700E+01 -0.2568960E-01  0.4808120E+00 -0.1215030E+01 -0.1674709E+00  0.4507035E+00
  0.1464780E+02 -0.4443350E+01 -0.2568960E-01  0.4849030E+00 -0.1204947E+01 -0.1734706E+00  0.4528122E+00
  0.1501280E+02 -0.2986230E+01 -0.2568960E-01  0.4875578E+00 -0.1196816E+01 -0.1781163E+00  0.4538581E+00
  0.1523320E+02 -0.1500330E+01 -0.2568960E-01  0.4891125E+00 -0.1190819E+01 -0.1814116E+00  0.4542256E+00
  0.1530690E+02  0.0000000E+00 -0.1027320E+00  0.4876346E+00 -0.1186873E+01 -0.1826490E+00  0.4521358E+00
  0.1523320E+02  0.1500340E+01 -0.1027320E+00  0.4866561E+00 -0.1185148E+01 -0.1830604E+00  0.4509135E+00
  0.1501280E+02  0.2986230E+01 -0.1027320E+00  0.4841148E+00 -0.1185560E+01 -0.1819198E+00  0.4486339E+00
  0.1464780E+02  0.4443360E+01 -0.1027320E+00  0.4801093E+00 -0.1188289E+01 -0.1791995E+00  0.4454127E+00
  0.1414170E+02  0.5857700E+01 -0.1027320E+00  0.4744399E+00 -0.1193044E+01 -0.1749887E+00  0.4409900E+00
  0.1349950E+02  0.7215620E+01 -0.1027320E+00  0.4676589E+00 -0.1199983E+01 -0.1694672E+00  0.4358735E+00
  0.1272720E+02  0.8504060E+01 -0.1027320E+00  0.4616833E+00 -0.1209770E+01 -0.1630824E+00  0.4319208E+00
  0.1183240E+02  0.9710600E+01 -0.1027320E+00  0.4552952E+00 -0.1221869E+01 -0.1556606E+00  0.4278592E+00
  0.1082360E+02  0.1082360E+02 -0.1027320E+00  0.4480160E+00 -0.1235904E+01 -0.1472482E+00  0.4231268E+00
  0.9710590E+01  0.1183240E+02 -0.1027320E+00  0.4376808E+00 -0.1251453E+01 -0.1374070E+00  0.4155524E+00
  0.8504060E+01  0.1272720E+02 -0.1027320E+00  0.4273849E+00 -0.1269419E+01 -0.1268629E+00  0.4081221E+00
  0.7215620E+01  0.1349950E+02 -0.1027320E+00  0.4099180E+00 -0.1289041E+01 -0.1139744E+00  0.3937545E+00
  0.5857700E+01  0.1414170E+02 -0.1027320E+00  0.3891535E+00 -0.1310859E+01 -0.1000200E+00  0.3760803E+00
  0.4443360E+01  0.1464780E+02 -0.1027320E+00  0.3605290E+00 -0.1334906E+01 -0.8425879E-01  0.3505448E+00
  0.2986230E+01  0.1501280E+02 -0.1027320E+00  0.3049501E+00 -0.1364468E+01 -0.6247434E-01  0.2984820E+00
  0.1500340E+01  0.1523320E+02 -0.1027320E+00  0.1194674E+00 -0.1485793E+01 -0.1014286E-01  0.1190361E+00
 -0.6690860E-06  0.1530690E+02 -0.1027320E+00  0.3186703E-01 -0.2926408E+01  0.3113208E-01  0.6804513E-02
 -0.1500340E+01  0.1523320E+02 -0.1027320E+00  0.1211626E+00  0.2222297E+01  0.7347068E-01 -0.9634541E-01
 -0.2986230E+01  0.1501280E+02 -0.1027320E+00  0.2678525E+00  0.2080616E+01  0.1307173E+00 -0.2337904E+00
 -0.4443360E+01  0.1464780E+02 -0.1027320E+00  0.3083851E+00  0.2077018E+01  0.1495286E+00 -0.2697083E+00
 -0.5857700E+01  0.1414170E+02 -0.1027320E+00  0.3287111E+00  0.2085006E+01  0.1616756E+00 -0.2862027E+00
 -0.7215620E+01  0.1349950E+02 -0.1027320E+00  0.3438295E+00  0.2094151E+01  0.1718422E+00 -0.2978069E+00
 -0.8504060E+01  0.1272720E+02 -0.1027320E+00  0.3566382E+00  0.2103538E+01  0.1811353E+00 -0.3072146E+00
 -0.9710590E+01  0.1183240E+02 -0.1027320E+00  0.3632687E+00  0.2115417E+01  0.1882072E+00 -0.3107124E+00
 -0.1082360E+02  0.1082360E+02 -0.1027320E+00  0.3700694E+00  0.2125852E+01  0.1950231E+00 -0.3145113E+00
 -0.1183240E+02  0.9710590E+01 -0.1027320E+00  0.3744443E+00  0.2135586E+01  0.2004168E+00 -0.3162935E+00
 -0.1272720E+02  0.8504060E+01 -0.1027320E+00  0.3781460E+00  0.2143229E+01  0.2048334E+00 -0.3178642E+00
 -0.1349950E+02  0.7215620E+01 -0.1027320E+00  0.3814090E+00  0.2149259E+01  0.2085305E+00 -0.3193554E+00
 -0.1414170E+02  0.5857690E+01 -0.1027320E+00  0.3852647E+00  0.2152643E+01  0.2117292E+00 -0.3218690E+00
 -0.1464780E+02  0.4443360E+01 -0.1027320E+00  0.3881684E+00  0.2154324E+01  0.2138696E+00 -0.3239360E+00
 -0.1501280E+02  0.2986230E+01 -0.1027320E+00  0.3895307E+00  0.2154719E+01  0.2147486E+00 -0.3249880E+00
 -0.1523320E+02  0.1500340E+01 -0.1027320E+00  0.3896291E+00  0.2153253E+01  0.2143262E+00 -0.3253846E+00
 -0.1530690E+02 -0.1338170E-05 -0.1027320E+00  0.3883037E+00  0.2150229E+01  0.2126152E+00 -0.3249223E+00
 -0.1523320E+02 -0.1500340E+01 -0.1027320E+00  0.3857728E+00  0.2145564E+01  0.2097215E+00 -0.3237863E+00
 -0.1501280E+02 -0.2986230E+01 -0.1027320E+00  0.3817760E+00  0.2139824E+01  0.2057059E+00 -0.3216178E+00
 -0.1464780E+02 -0.4443360E+01 -0.1027320E+00  0.3764867E+00  0.2132996E+01  0.2006857E+00 -0.3185396E+00
 -0.1414170E+02 -0.5857700E+01 -0.1027320E+00  0.3696534E+00  0.2125200E+01  0.1945990E+00 -0.3142847E+00
 -0.1349950E+02 -0.7215620E+01 -0.1027320E+00  0.3617740E+00  0.2115803E+01  0.1875522E+00 -0.3093616E+00
 -0.1272720E+02 -0.8504060E+01 -0.1027320E+00  0.3545451E+00  0.2102473E+01  0.1797469E+00 -0.3056031E+00
 -0.1183240E+02 -0.9710600E+01 -0.1027320E+00  0.3468613E+00  0.2086545E+01  0.1710672E+00 -0.3017429E+00
 -0.1082360E+02 -0.1082360E+02 -0.1027320E+00  0.3381847E+00  0.2068092E+01  0.1613312E+00 -0.2972223E+00
 -0.9710600E+01 -0.1183240E+02 -0.1027320E+00  0.3265940E+00  0.2049417E+01  0.1504148E+00 -0.2898949E+00
 -0.8504050E+01 -0.1272720E+02 -0.1027320E+00  0.3150093E+00  0.2027381E+01  0.1388829E+00 -0.2827408E+00
 -0.7215620E+01 -0.1349950E+02 -0.1027320E+00  0.2967615E+00  0.2009057E+01  0.1259353E+00 -0.2687149E+00
 -0.5857690E+01 -0.1414170E+02 -0.1027320E+00  0.2752384E+00  0.1989561E+01  0.1119207E+00 -0.2514556E+00
 -0.4443360E+01 -0.1464780E+02 -0.1027320E+00  0.2461134E+00  0.1972684E+01  0.9626882E-01 -0.2265041E+00
 -0.2986230E+01 -0.1501280E+02 -0.1027320E+00  0.1914868E+00  0.1983498E+01  0.7680266E-01 -0.1754096E+00
 -0.1500340E+01 -0.1523320E+02 -0.1027320E+00  0.4219075E-01 -0.3093918E+01  0.4214282E-01  0.2010675E-02
  0.1825330E-06 -0.1530690E+02 -0.1027320E+00  0.1151993E+00 -0.1719959E+01  0.1711981E-01  0.1139201E+00
  0.1500340E+01 -0.1523320E+02 -0.1027320E+00  0.2177751E+00 -0.1541789E+01 -0.6316270E-02  0.2176835E+00
  0.2986230E+01 -0.1501280E+02 -0.1027320E+00  0.3590780E+00 -0.1476406E+01 -0.3384310E-01  0.3574796E+00
  0.4443360E+01 -0.1464780E+02 -0.1027320E+00  0.3983319E+00 -0.1432297E+01 -0.5499260E-01  0.3945175E+00
  0.5857700E+01 -0.1414170E+02 -0.1027320E+00  0.4181484E+00 -0.1395132E+01 -0.7307652E-01  0.4117134E+00
  0.7215620E+01 -0.1349950E+02 -0.1027320E+00  0.4331973E+00 -0.1362411E+01 -0.8962018E-01  0.4238256E+00
  0.8504060E+01 -0.1272720E+02 -0.1027320E+00  0.4461125E+00 -0.1333756E+01 -0.1047593E+00  0.4336379E+00
  0.9710600E+01 -0.1183240E+02 -0.1027320E+00  0.4531401E+00 -0.1306833E+01 -0.1182283E+00  0.4374449E+00
  0.1082360E+02 -0.1082360E+02 -0.1027320E+00  0.4603741E+00 -0.1283437E+01 -0.1304796E+00  0.4414967E+00
  0.1183240E+02 -0.9710590E+01 -0.1027320E+00  0.4654559E+00 -0.1262081E+01 -0.1414219E+00  0.4434513E+00
  0.1272720E+02 -0.8504060E+01 -0.1027320E+00  0.4701096E+00 -0.1243380E+01 -0.1511860E+00  0.4451358E+00
