 VARIABLES="X" "Y" "Z" "abs(eta) (m)" "angle(phi) (rad)" "PRE1" "PRE2"
ZONE N=   3200 ,E =    3136 ,F=FEPOINT,ET=QUADRILATERAL
  0.1530690E+02  0.0000000E+00  0.0000000E+00  0.8642681E+00 -0.6493512E+00 -0.6883690E+00  0.5225968E+00
  0.1523320E+02  0.1500340E+01  0.0000000E+00  0.8622413E+00 -0.6528042E+00 -0.6849504E+00  0.5237395E+00
  0.1501280E+02  0.2986230E+01  0.0000000E+00  0.8577157E+00 -0.6603528E+00 -0.6774032E+00  0.5261189E+00
  0.1464780E+02  0.4443360E+01  0.0000000E+00  0.8504219E+00 -0.6714674E+00 -0.6658034E+00  0.5290776E+00
  0.1414170E+02  0.5857700E+01  0.0000000E+00  0.8410913E+00 -0.6867018E+00 -0.6504505E+00  0.5332435E+00
  0.1349950E+02  0.7215620E+01  0.0000000E+00  0.8306444E+00 -0.7069336E+00 -0.6315864E+00  0.5395079E+00
  0.1272720E+02  0.8504060E+01  0.0000000E+00  0.8210266E+00 -0.7333668E+00 -0.6099611E+00  0.5495744E+00
  0.1183240E+02  0.9710600E+01  0.0000000E+00  0.8068775E+00 -0.7629042E+00 -0.5832371E+00  0.5575714E+00
  0.1082360E+02  0.1082360E+02  0.0000000E+00  0.7855397E+00 -0.7941262E+00 -0.5505912E+00  0.5602873E+00
  0.9710590E+01  0.1183240E+02  0.0000000E+00  0.7641954E+00 -0.8313339E+00 -0.5149843E+00  0.5646112E+00
  0.8504060E+01  0.1272720E+02  0.0000000E+00  0.7381285E+00 -0.8726332E+00 -0.4744777E+00  0.5654243E+00
  0.7215620E+01  0.1349950E+02  0.0000000E+00  0.7025573E+00 -0.9170578E+00 -0.4272661E+00  0.5577010E+00
  0.5857700E+01  0.1414170E+02  0.0000000E+00  0.6668481E+00 -0.9693891E+00 -0.3773049E+00  0.5498431E+00
  0.4443360E+01  0.1464780E+02  0.0000000E+00  0.6174404E+00 -0.1028008E+01 -0.3189237E+00  0.5286968E+00
  0.2986230E+01  0.1501280E+02  0.0000000E+00  0.5387375E+00 -0.1095535E+01 -0.2465107E+00  0.4790309E+00
  0.1500340E+01  0.1523320E+02  0.0000000E+00  0.2950013E+00 -0.1174829E+01 -0.1137822E+00  0.2721753E+00
 -0.6690860E-06  0.1530690E+02  0.0000000E+00  0.1328532E+00 -0.1516167E+01 -0.7254024E-02  0.1326550E+00
 -0.1500340E+01  0.1523320E+02  0.0000000E+00  0.1056365E+00  0.3031803E+01  0.1050005E+00 -0.1157449E-01
 -0.2986230E+01  0.1501280E+02  0.0000000E+00  0.3568801E+00  0.2403882E+01  0.2640950E+00 -0.2400358E+00
 -0.4443360E+01  0.1464780E+02  0.0000000E+00  0.4489363E+00  0.2420388E+01  0.3371562E+00 -0.2964279E+00
 -0.5857700E+01  0.1414170E+02  0.0000000E+00  0.5062898E+00  0.2456018E+01  0.3918963E+00 -0.3205411E+00
 -0.7215620E+01  0.1349950E+02  0.0000000E+00  0.5486112E+00  0.2495142E+01  0.4379162E+00 -0.3304597E+00
 -0.8504060E+01  0.1272720E+02  0.0000000E+00  0.5886067E+00  0.2526789E+01  0.4808249E+00 -0.3395072E+00
 -0.9710590E+01  0.1183240E+02  0.0000000E+00  0.6185676E+00  0.2560400E+01  0.5170041E+00 -0.3396066E+00
 -0.1082360E+02  0.1082360E+02  0.0000000E+00  0.6436286E+00  0.2592186E+01  0.5489086E+00 -0.3360910E+00
 -0.1183240E+02  0.9710590E+01  0.0000000E+00  0.6686255E+00  0.2617888E+01  0.5790114E+00 -0.3343737E+00
 -0.1272720E+02  0.8504060E+01  0.0000000E+00  0.6863349E+00  0.2644885E+01  0.6033956E+00 -0.3270617E+00
 -0.1349950E+02  0.7215620E+01  0.0000000E+00  0.6990302E+00  0.2670197E+01  0.6227908E+00 -0.3174504E+00
 -0.1414170E+02  0.5857690E+01  0.0000000E+00  0.7118605E+00  0.2688444E+01  0.6400145E+00 -0.3116518E+00
 -0.1464780E+02  0.4443360E+01  0.0000000E+00  0.7235029E+00  0.2701634E+01  0.6546032E+00 -0.3081415E+00
 -0.1501280E+02  0.2986230E+01  0.0000000E+00  0.7329465E+00  0.2711115E+01  0.6660773E+00 -0.3058621E+00
 -0.1523320E+02  0.1500340E+01  0.0000000E+00  0.7394692E+00  0.2717702E+01  0.6740229E+00 -0.3041510E+00
 -0.1530690E+02 -0.1338170E-05  0.0000000E+00  0.7433497E+00  0.2720726E+01  0.6784816E+00 -0.3036965E+00
 -0.1523320E+02 -0.1500340E+01  0.0000000E+00  0.7443845E+00  0.2720286E+01  0.6792920E+00 -0.3044187E+00
 -0.1501280E+02 -0.2986230E+01  0.0000000E+00  0.7427042E+00  0.2716236E+01  0.6765231E+00 -0.3064736E+00
 -0.1464780E+02 -0.4443360E+01  0.0000000E+00  0.7380446E+00  0.2709291E+01  0.6701474E+00 -0.3092123E+00
 -0.1414170E+02 -0.5857700E+01  0.0000000E+00  0.7311788E+00  0.2698781E+01  0.6606570E+00 -0.3132965E+00
 -0.1349950E+02 -0.7215620E+01  0.0000000E+00  0.7231870E+00  0.2683793E+01  0.6487185E+00 -0.3196308E+00
 -0.1272720E+02 -0.8504060E+01  0.0000000E+00  0.7155082E+00  0.2662306E+01  0.6348877E+00 -0.3299539E+00
 -0.1183240E+02 -0.9710600E+01  0.0000000E+00  0.7026584E+00  0.2639080E+01  0.6157925E+00 -0.3384206E+00
 -0.1082360E+02 -0.1082360E+02  0.0000000E+00  0.6820363E+00  0.2616570E+01  0.5901747E+00 -0.3418587E+00
 -0.9710600E+01 -0.1183240E+02  0.0000000E+00  0.6614746E+00  0.2589181E+01  0.5630877E+00 -0.3471035E+00
 -0.8504050E+01 -0.1272720E+02  0.0000000E+00  0.6358423E+00  0.2560344E+01  0.5314227E+00 -0.3491208E+00
 -0.7215620E+01 -0.1349950E+02  0.0000000E+00  0.5998587E+00  0.2533002E+01  0.4921568E+00 -0.3429462E+00
 -0.5857690E+01 -0.1414170E+02  0.0000000E+00  0.5625073E+00  0.2498970E+01  0.4503020E+00 -0.3371091E+00
 -0.4443360E+01 -0.1464780E+02  0.0000000E+00  0.5102564E+00  0.2467233E+01  0.3985648E+00 -0.3186027E+00
 -0.2986230E+01 -0.1501280E+02  0.0000000E+00  0.4251419E+00  0.2443713E+01  0.3257464E+00 -0.2731939E+00
 -0.1500340E+01 -0.1523320E+02  0.0000000E+00  0.1594460E+00  0.2651148E+01  0.1406511E+00 -0.7510197E-01
  0.1825330E-06 -0.1530690E+02  0.0000000E+00  0.6261999E-01 -0.1711794E+01  0.8800062E-02  0.6199857E-01
  0.1500340E+01 -0.1523320E+02  0.0000000E+00  0.2383947E+00 -0.1053545E+01 -0.1178846E+00  0.2072083E+00
  0.2986230E+01 -0.1501280E+02  0.0000000E+00  0.5233458E+00 -0.1008556E+01 -0.2789869E+00  0.4427833E+00
  0.4443360E+01 -0.1464780E+02  0.0000000E+00  0.6140013E+00 -0.9591045E+00 -0.3525923E+00  0.5026692E+00
  0.5857700E+01 -0.1414170E+02  0.0000000E+00  0.6687320E+00 -0.9121500E+00 -0.4092954E+00  0.5288476E+00
  0.7215620E+01 -0.1349950E+02  0.0000000E+00  0.7074047E+00 -0.8692653E+00 -0.4565505E+00  0.5403546E+00
  0.8504060E+01 -0.1272720E+02  0.0000000E+00  0.7449669E+00 -0.8318764E+00 -0.5017277E+00  0.5506769E+00
  0.9710600E+01 -0.1183240E+02  0.0000000E+00  0.7717602E+00 -0.7967494E+00 -0.5394873E+00  0.5518762E+00
  0.1082360E+02 -0.1082360E+02  0.0000000E+00  0.7932009E+00 -0.7650257E+00 -0.5721869E+00  0.5493357E+00
  0.1183240E+02 -0.9710590E+01  0.0000000E+00  0.8147387E+00 -0.7386211E+00 -0.6024159E+00  0.5485383E+00
  0.1272720E+02 -0.8504060E+01  0.0000000E+00  0.8280884E+00 -0.7135361E+00 -0.6260780E+00  0.5419933E+00
  0.1349950E+02 -0.7215620E+01  0.0000000E+00  0.8364397E+00 -0.6910844E+00 -0.6445230E+00  0.5331242E+00
  0.1414170E+02 -0.5857700E+01  0.0000000E+00  0.8457176E+00 -0.6743607E+00 -0.6605954E+00  0.5280644E+00
  0.1464780E+02 -0.4443350E+01  0.0000000E+00  0.8540363E+00 -0.6624382E+00 -0.6734033E+00  0.5252675E+00
  0.1501280E+02 -0.2986230E+01  0.0000000E+00  0.8602464E+00 -0.6544471E+00 -0.6825062E+00  0.5236498E+00
  0.1523320E+02 -0.1500330E+01  0.0000000E+00  0.8635643E+00 -0.6498883E+00 -0.6875279E+00  0.5225406E+00
  0.1530690E+02  0.0000000E+00 -0.2568960E-01  0.8629311E+00 -0.6493846E+00 -0.6872867E+00  0.5218113E+00
  0.1523320E+02  0.1500340E+01 -0.2568960E-01  0.8609068E+00 -0.6528423E+00 -0.6838704E+00  0.5229550E+00
  0.1501280E+02  0.2986230E+01 -0.2568960E-01  0.8563876E+00 -0.6603925E+00 -0.6763334E+00  0.5253312E+00
  0.1464780E+02  0.4443360E+01 -0.2568960E-01  0.8491092E+00 -0.6715065E+00 -0.6647550E+00  0.5282870E+00
  0.1414170E+02  0.5857700E+01 -0.2568960E-01  0.8397953E+00 -0.6867403E+00 -0.6494278E+00  0.5324469E+00
  0.1349950E+02  0.7215620E+01 -0.2568960E-01  0.8293517E+00 -0.7069683E+00 -0.6305848E+00  0.5386902E+00
  0.1272720E+02  0.8504060E+01 -0.2568960E-01  0.8197146E+00 -0.7333785E+00 -0.6089800E+00  0.5487034E+00
  0.1183240E+02  0.9710600E+01 -0.2568960E-01  0.8055801E+00 -0.7629113E+00 -0.5822953E+00  0.5566791E+00
  0.1082360E+02  0.1082360E+02 -0.2568960E-01  0.7843034E+00 -0.7941490E+00 -0.5497120E+00  0.5594180E+00
  0.9710590E+01  0.1183240E+02 -0.2568960E-01  0.7629792E+00 -0.8313475E+00 -0.5141570E+00  0.5637196E+00
  0.8504060E+01  0.1272720E+02 -0.2568960E-01  0.7369483E+00 -0.8726473E+00 -0.4737110E+00  0.5645270E+00
  0.7215620E+01  0.1349950E+02 -0.2568960E-01  0.7015037E+00 -0.9170951E+00 -0.4266045E+00  0.5568806E+00
  0.5857700E+01  0.1414170E+02 -0.2568960E-01  0.6658294E+00 -0.9694217E+00 -0.3767106E+00  0.5490155E+00
  0.4443360E+01  0.1464780E+02 -0.2568960E-01  0.6165436E+00 -0.1028042E+01 -0.3184424E+00  0.5279398E+00
  0.2986230E+01  0.1501280E+02 -0.2568960E-01  0.5379320E+00 -0.1095557E+01 -0.2461314E+00  0.4783202E+00
  0.1500340E+01  0.1523320E+02 -0.2568960E-01  0.2946109E+00 -0.1174852E+01 -0.1136255E+00  0.2718177E+00
 -0.6690860E-06  0.1530690E+02 -0.2568960E-01  0.1326420E+00 -0.1516200E+01 -0.7238144E-02  0.1324444E+00
 -0.1500340E+01  0.1523320E+02 -0.2568960E-01  0.1055075E+00  0.3031173E+01  0.1048650E+00 -0.1162646E-01
 -0.2986230E+01  0.1501280E+02 -0.2568960E-01  0.3563746E+00  0.2403818E+01  0.2637056E+00 -0.2397127E+00
 -0.4443360E+01  0.1464780E+02 -0.2568960E-01  0.4483186E+00  0.2420299E+01  0.3366657E+00 -0.2960503E+00
 -0.5857700E+01  0.1414170E+02 -0.2568960E-01  0.5055423E+00  0.2455963E+01  0.3913002E+00 -0.3200893E+00
 -0.7215620E+01  0.1349950E+02 -0.2568960E-01  0.5478116E+00  0.2495070E+01  0.4372540E+00 -0.3300098E+00
 -0.8504060E+01  0.1272720E+02 -0.2568960E-01  0.5876760E+00  0.2526780E+01  0.4800617E+00 -0.3389749E+00
 -0.9710590E+01  0.1183240E+02 -0.2568960E-01  0.6175953E+00  0.2560383E+01  0.5161857E+00 -0.3390816E+00
 -0.1082360E+02  0.1082360E+02 -0.2568960E-01  0.6426290E+00  0.2592151E+01  0.5480446E+00 -0.3355879E+00
 -0.1183240E+02  0.9710590E+01 -0.2568960E-01  0.6675580E+00  0.2617880E+01  0.5780842E+00 -0.3338447E+00
 -0.1272720E+02  0.8504060E+01 -0.2568960E-01  0.6852455E+00  0.2644867E+01  0.6024321E+00 -0.3265531E+00
 -0.1349950E+02  0.7215620E+01 -0.2568960E-01  0.6979508E+00  0.2670148E+01  0.6218136E+00 -0.3169908E+00
 -0.1414170E+02  0.5857690E+01 -0.2568960E-01  0.7107697E+00  0.2688378E+01  0.6390134E+00 -0.3112162E+00
 -0.1464780E+02  0.4443360E+01 -0.2568960E-01  0.7223929E+00  0.2701573E+01  0.6535801E+00 -0.3077085E+00
 -0.1501280E+02  0.2986230E+01 -0.2568960E-01  0.7318202E+00  0.2711059E+01  0.6650366E+00 -0.3054296E+00
 -0.1523320E+02  0.1500340E+01 -0.2568960E-01  0.7383305E+00  0.2717647E+01  0.6729684E+00 -0.3037196E+00
 -0.1530690E+02 -0.1338170E-05 -0.2568960E-01  0.7422028E+00  0.2720669E+01  0.6774174E+00 -0.3032665E+00
 -0.1523320E+02 -0.1500340E+01 -0.2568960E-01  0.7432356E+00  0.2720230E+01  0.6782265E+00 -0.3039868E+00
 -0.1501280E+02 -0.2986230E+01 -0.2568960E-01  0.7415617E+00  0.2716184E+01  0.6754663E+00 -0.3060375E+00
 -0.1464780E+02 -0.4443360E+01 -0.2568960E-01  0.7369145E+00  0.2709235E+01  0.6691039E+00 -0.3087767E+00
 -0.1414170E+02 -0.5857700E+01 -0.2568960E-01  0.7300600E+00  0.2698728E+01  0.6596293E+00 -0.3128525E+00
 -0.1349950E+02 -0.7215620E+01 -0.2568960E-01  0.7220714E+00  0.2683745E+01  0.6477022E+00 -0.3191692E+00
 -0.1272720E+02 -0.8504060E+01 -0.2568960E-01  0.7143683E+00  0.2662294E+01  0.6338723E+00 -0.3294358E+00
 -0.1183240E+02 -0.9710600E+01 -0.2568960E-01  0.7015319E+00  0.2639076E+01  0.6148038E+00 -0.3378806E+00
 -0.1082360E+02 -0.1082360E+02 -0.2568960E-01  0.6809729E+00  0.2616542E+01  0.5892448E+00 -0.3413424E+00
 -0.9710600E+01 -0.1183240E+02 -0.2568960E-01  0.6604325E+00  0.2589166E+01  0.5621954E+00 -0.3465651E+00
 -0.8504050E+01 -0.1272720E+02 -0.2568960E-01  0.6348377E+00  0.2560333E+01  0.5305792E+00 -0.3485751E+00
 -0.7215620E+01 -0.1349950E+02 -0.2568960E-01  0.5989795E+00  0.2532944E+01  0.4914156E+00 -0.3424722E+00
 -0.5857690E+01 -0.1414170E+02 -0.2568960E-01  0.5616717E+00  0.2498932E+01  0.4496205E+00 -0.3366252E+00
 -0.4443360E+01 -0.1464780E+02 -0.2568960E-01  0.5095453E+00  0.2467165E+01  0.3979877E+00 -0.3181859E+00
 -0.2986230E+01 -0.1501280E+02 -0.2568960E-01  0.4245312E+00  0.2443666E+01  0.3252658E+00 -0.2728166E+00
 -0.1500340E+01 -0.1523320E+02 -0.2568960E-01  0.1592767E+00  0.2650822E+01  0.1404773E+00 -0.7506796E-01
  0.1825330E-06 -0.1530690E+02 -0.2568960E-01  0.6251094E-01 -0.1711931E+01  0.8793228E-02  0.6188940E-01
  0.1500340E+01 -0.1523320E+02 -0.2568960E-01  0.2380868E+00 -0.1053522E+01 -0.1177371E+00  0.2069379E+00
  0.2986230E+01 -0.1501280E+02 -0.2568960E-01  0.5225651E+00 -0.1008576E+01 -0.2785616E+00  0.4421286E+00
  0.4443360E+01 -0.1464780E+02 -0.2568960E-01  0.6131184E+00 -0.9591320E+00 -0.3520715E+00  0.5019560E+00
  0.5857700E+01 -0.1414170E+02 -0.2568960E-01  0.6677189E+00 -0.9121765E+00 -0.4086613E+00  0.5280573E+00
  0.7215620E+01 -0.1349950E+02 -0.2568960E-01  0.7063512E+00 -0.8692932E+00 -0.4558555E+00  0.5395626E+00
  0.8504060E+01 -0.1272720E+02 -0.2568960E-01  0.7437778E+00 -0.8318883E+00 -0.5009203E+00  0.5498038E+00
  0.9710600E+01 -0.1183240E+02 -0.2568960E-01  0.7705342E+00 -0.7967644E+00 -0.5386220E+00  0.5510076E+00
  0.1082360E+02 -0.1082360E+02 -0.2568960E-01  0.7919545E+00 -0.7650455E+00 -0.5712770E+00  0.5484837E+00
  0.1183240E+02 -0.9710590E+01 -0.2568960E-01  0.8134254E+00 -0.7386293E+00 -0.6014403E+00  0.5476590E+00
  0.1272720E+02 -0.8504060E+01 -0.2568960E-01  0.8267639E+00 -0.7135472E+00 -0.6250707E+00  0.5411333E+00
  0.1349950E+02 -0.7215620E+01 -0.2568960E-01  0.8351418E+00 -0.6911129E+00 -0.6435078E+00  0.5323154E+00
  0.1414170E+02 -0.5857700E+01 -0.2568960E-01  0.8444171E+00 -0.6743972E+00 -0.6595603E+00  0.5272765E+00
  0.1464780E+02 -0.4443350E+01 -0.2568960E-01  0.8527209E+00 -0.6624779E+00 -0.6723453E+00  0.5244852E+00
  0.1501280E+02 -0.2986230E+01 -0.2568960E-01  0.8589176E+00 -0.6544816E+00 -0.6814340E+00  0.5228644E+00
  0.1523320E+02 -0.1500330E+01 -0.2568960E-01  0.8622256E+00 -0.6499247E+00 -0.6864432E+00  0.5217555E+00
  0.1530690E+02  0.0000000E+00 -0.1027320E+00  0.8589620E+00 -0.6495174E+00 -0.6840565E+00  0.5195020E+00
  0.1523320E+02  0.1500340E+01 -0.1027320E+00  0.8569515E+00 -0.6529734E+00 -0.6806601E+00  0.5206416E+00
  0.1501280E+02  0.2986230E+01 -0.1027320E+00  0.8524584E+00 -0.6605246E+00 -0.6731613E+00  0.5230098E+00
  0.1464780E+02  0.4443360E+01 -0.1027320E+00  0.8452232E+00 -0.6716437E+00 -0.6616406E+00  0.5259600E+00
  0.1414170E+02  0.5857700E+01 -0.1027320E+00  0.8359454E+00 -0.6868766E+00 -0.6463784E+00  0.5300940E+00
  0.1349950E+02  0.7215620E+01 -0.1027320E+00  0.8255210E+00 -0.7070741E+00 -0.6276154E+00  0.5362684E+00
  0.1272720E+02  0.8504060E+01 -0.1027320E+00  0.8158213E+00 -0.7334246E+00 -0.6060624E+00  0.5461252E+00
  0.1183240E+02  0.9710600E+01 -0.1027320E+00  0.8017231E+00 -0.7629455E+00 -0.5794884E+00  0.5540336E+00
  0.1082360E+02  0.1082360E+02 -0.1027320E+00  0.7806267E+00 -0.7942273E+00 -0.5470914E+00  0.5568384E+00
  0.9710590E+01  0.1183240E+02 -0.1027320E+00  0.7593589E+00 -0.8313987E+00 -0.5116887E+00  0.5610710E+00
  0.8504060E+01  0.1272720E+02 -0.1027320E+00  0.7334366E+00 -0.8726869E+00 -0.4714315E+00  0.5618556E+00
  0.7215620E+01  0.1349950E+02 -0.1027320E+00  0.6983237E+00 -0.9171889E+00 -0.4246187E+00  0.5543960E+00
  0.5857700E+01  0.1414170E+02 -0.1027320E+00  0.6628086E+00 -0.9695154E+00 -0.3749503E+00  0.5465597E+00
  0.4443360E+01  0.1464780E+02 -0.1027320E+00  0.6138671E+00 -0.1028149E+01 -0.3170040E+00  0.5256817E+00
  0.2986230E+01  0.1501280E+02 -0.1027320E+00  0.5355107E+00 -0.1095622E+01 -0.2449928E+00  0.4761830E+00
  0.1500340E+01  0.1523320E+02 -0.1027320E+00  0.2934280E+00 -0.1174903E+01 -0.1131553E+00  0.2707321E+00
 -0.6690860E-06  0.1530690E+02 -0.1027320E+00  0.1320203E+00 -0.1516180E+01 -0.7206822E-02  0.1318235E+00
 -0.1500340E+01  0.1523320E+02 -0.1027320E+00  0.1051237E+00  0.3029339E+01  0.1044621E+00 -0.1177577E-01
 -0.2986230E+01  0.1501280E+02 -0.1027320E+00  0.3548425E+00  0.2403644E+01  0.2625303E+00 -0.2387281E+00
 -0.4443360E+01  0.1464780E+02 -0.1027320E+00  0.4464790E+00  0.2420030E+01  0.3352049E+00 -0.2949256E+00
 -0.5857700E+01  0.1414170E+02 -0.1027320E+00  0.5033235E+00  0.2455793E+01  0.3895286E+00 -0.3187507E+00
 -0.7215620E+01  0.1349950E+02 -0.1027320E+00  0.5453755E+00  0.2494884E+01  0.4352486E+00 -0.3286230E+00
 -0.8504060E+01  0.1272720E+02 -0.1027320E+00  0.5849019E+00  0.2526738E+01  0.4777816E+00 -0.3373945E+00
 -0.9710590E+01  0.1183240E+02 -0.1027320E+00  0.6146954E+00  0.2560319E+01  0.5137404E+00 -0.3375222E+00
 -0.1082360E+02  0.1082360E+02 -0.1027320E+00  0.6396582E+00  0.2592042E+01  0.5454746E+00 -0.3340959E+00
 -0.1183240E+02  0.9710590E+01 -0.1027320E+00  0.6643786E+00  0.2617846E+01  0.5753195E+00 -0.3322745E+00
 -0.1272720E+02  0.8504060E+01 -0.1027320E+00  0.6820018E+00  0.2644803E+01  0.5995594E+00 -0.3250461E+00
 -0.1349950E+02  0.7215620E+01 -0.1027320E+00  0.6947470E+00  0.2669976E+01  0.6189048E+00 -0.3156426E+00
 -0.1414170E+02  0.5857690E+01 -0.1027320E+00  0.7075387E+00  0.2688169E+01  0.6360437E+00 -0.3099344E+00
 -0.1464780E+02  0.4443360E+01 -0.1027320E+00  0.7191085E+00  0.2701357E+01  0.6505425E+00 -0.3064498E+00
 -0.1501280E+02  0.2986230E+01 -0.1027320E+00  0.7284828E+00  0.2710851E+01  0.6619407E+00 -0.3041739E+00
 -0.1523320E+02  0.1500340E+01 -0.1027320E+00  0.7349563E+00  0.2717444E+01  0.6698315E+00 -0.3024673E+00
 -0.1530690E+02 -0.1338170E-05 -0.1027320E+00  0.7388113E+00  0.2720475E+01  0.6742635E+00 -0.3020115E+00
 -0.1523320E+02 -0.1500340E+01 -0.1027320E+00  0.7398437E+00  0.2720033E+01  0.6750719E+00 -0.3027321E+00
 -0.1501280E+02 -0.2986230E+01 -0.1027320E+00  0.7381832E+00  0.2715981E+01  0.6723273E+00 -0.3047794E+00
 -0.1464780E+02 -0.4443360E+01 -0.1027320E+00  0.7335669E+00  0.2709031E+01  0.6660016E+00 -0.3075097E+00
 -0.1414170E+02 -0.5857700E+01 -0.1027320E+00  0.7267452E+00  0.2698530E+01  0.6565729E+00 -0.3115616E+00
 -0.1349950E+02 -0.7215620E+01 -0.1027320E+00  0.7187593E+00  0.2683584E+01  0.6446801E+00 -0.3178088E+00
 -0.1272720E+02 -0.8504060E+01 -0.1027320E+00  0.7109876E+00  0.2662226E+01  0.6308503E+00 -0.3279198E+00
 -0.1183240E+02 -0.9710600E+01 -0.1027320E+00  0.6981910E+00  0.2639036E+01  0.6118626E+00 -0.3362959E+00
 -0.1082360E+02 -0.1082360E+02 -0.1027320E+00  0.6778212E+00  0.2616447E+01  0.5864853E+00 -0.3398183E+00
 -0.9710600E+01 -0.1183240E+02 -0.1027320E+00  0.6573316E+00  0.2589111E+01  0.5595371E+00 -0.3449682E+00
 -0.8504050E+01 -0.1272720E+02 -0.1027320E+00  0.6318378E+00  0.2560292E+01  0.5280581E+00 -0.3469492E+00
 -0.7215620E+01 -0.1349950E+02 -0.1027320E+00  0.5963175E+00  0.2532788E+01  0.4891784E+00 -0.3410265E+00
 -0.5857690E+01 -0.1414170E+02 -0.1027320E+00  0.5591952E+00  0.2498804E+01  0.4475952E+00 -0.3351982E+00
 -0.4443360E+01 -0.1464780E+02 -0.1027320E+00  0.5074340E+00  0.2466966E+01  0.3962757E+00 -0.3169460E+00
 -0.2986230E+01 -0.1501280E+02 -0.1027320E+00  0.4226930E+00  0.2443529E+01  0.3238201E+00 -0.2716798E+00
 -0.1500340E+01 -0.1523320E+02 -0.1027320E+00  0.1587493E+00  0.2649884E+01  0.1399418E+00 -0.7495075E-01
  0.1825330E-06 -0.1530690E+02 -0.1027320E+00  0.6216814E-01 -0.1711961E+01  0.8746816E-02  0.6154974E-01
  0.1500340E+01 -0.1523320E+02 -0.1027320E+00  0.2371545E+00 -0.1053490E+01 -0.1172825E+00  0.2061239E+00
  0.2986230E+01 -0.1501280E+02 -0.1027320E+00  0.5202245E+00 -0.1008610E+01 -0.2772993E+00  0.4401576E+00
  0.4443360E+01 -0.1464780E+02 -0.1027320E+00  0.6104885E+00 -0.9592186E+00 -0.3505180E+00  0.4998333E+00
  0.5857700E+01 -0.1414170E+02 -0.1027320E+00  0.6647083E+00 -0.9122610E+00 -0.4067743E+00  0.5257107E+00
  0.7215620E+01 -0.1349950E+02 -0.1027320E+00  0.7031587E+00 -0.8693714E+00 -0.4537531E+00  0.5371594E+00
  0.8504060E+01 -0.1272720E+02 -0.1027320E+00  0.7402336E+00 -0.8319237E+00 -0.4985140E+00  0.5472016E+00
  0.9710600E+01 -0.1183240E+02 -0.1027320E+00  0.7668820E+00 -0.7968147E+00 -0.5360414E+00  0.5484228E+00
  0.1082360E+02 -0.1082360E+02 -0.1027320E+00  0.7882522E+00 -0.7651190E+00 -0.5685663E+00  0.5459615E+00
  0.1183240E+02 -0.9710590E+01 -0.1027320E+00  0.8095279E+00 -0.7386595E+00 -0.5985420E+00  0.5450530E+00
  0.1272720E+02 -0.8504060E+01 -0.1027320E+00  0.8228334E+00 -0.7135929E+00 -0.6220744E+00  0.5385891E+00
