 VARIABLES="X" "Y" "Z" "abs(eta) (m)" "angle(phi) (rad)" "PRE1" "PRE2"
ZONE N=   3200 ,E =    3136 ,F=FEPOINT,ET=QUADRILATERAL
  0.1530690E+02  0.0000000E+00  0.0000000E+00  0.2509145E+00  0.1995148E+01  0.1033091E+00 -0.2286599E+00
  0.1523320E+02  0.1500340E+01  0.0000000E+00  0.2523758E+00  0.1999085E+01  0.1048155E+00 -0.2295806E+00
  0.1501280E+02  0.2986230E+01  0.0000000E+00  0.2530960E+00  0.2002282E+01  0.1058500E+00 -0.2298986E+00
  0.1464780E+02  0.4443360E+01  0.0000000E+00  0.2533565E+00  0.2004535E+01  0.1064772E+00 -0.2298959E+00
  0.1414170E+02  0.5857700E+01  0.0000000E+00  0.2545812E+00  0.2004507E+01  0.1069853E+00 -0.2310102E+00
  0.1349950E+02  0.7215620E+01  0.0000000E+00  0.2571543E+00  0.2001776E+01  0.1074291E+00 -0.2336393E+00
  0.1272720E+02  0.8504060E+01  0.0000000E+00  0.2585227E+00  0.1998852E+01  0.1073135E+00 -0.2351974E+00
  0.1183240E+02  0.9710600E+01  0.0000000E+00  0.2566648E+00  0.1997259E+01  0.1061701E+00 -0.2336765E+00
  0.1082360E+02  0.1082360E+02  0.0000000E+00  0.2548369E+00  0.1994525E+01  0.1047792E+00 -0.2322997E+00
  0.9710590E+01  0.1183240E+02  0.0000000E+00  0.2535087E+00  0.1990794E+01  0.1033702E+00 -0.2314763E+00
  0.8504060E+01  0.1272720E+02  0.0000000E+00  0.2485885E+00  0.1989267E+01  0.1010174E+00 -0.2271382E+00
  0.7215620E+01  0.1349950E+02  0.0000000E+00  0.2446570E+00  0.1986908E+01  0.9889205E-01 -0.2237798E+00
  0.5857700E+01  0.1414170E+02  0.0000000E+00  0.2386128E+00  0.1985782E+01  0.9620323E-01 -0.2183598E+00
  0.4443360E+01  0.1464780E+02  0.0000000E+00  0.2271453E+00  0.1989957E+01  0.9244682E-01 -0.2074815E+00
  0.2986230E+01  0.1501280E+02  0.0000000E+00  0.2060868E+00  0.2003026E+01  0.8632910E-01 -0.1871338E+00
  0.1500340E+01  0.1523320E+02  0.0000000E+00  0.1106318E+00  0.2127396E+01  0.5844697E-01 -0.9393264E-01
 -0.6690860E-06  0.1530690E+02  0.0000000E+00  0.4212403E-01  0.2617487E+01  0.3646980E-01 -0.2108051E-01
 -0.1500340E+01  0.1523320E+02  0.0000000E+00  0.6391856E-01 -0.1785361E+01  0.1360966E-01  0.6245286E-01
 -0.2986230E+01  0.1501280E+02  0.0000000E+00  0.2048640E+00 -0.1481054E+01 -0.1836039E-01  0.2040395E+00
 -0.4443360E+01  0.1464780E+02  0.0000000E+00  0.2457131E+00 -0.1452035E+01 -0.2911265E-01  0.2439823E+00
 -0.5857700E+01  0.1414170E+02  0.0000000E+00  0.2676338E+00 -0.1433123E+01 -0.3672964E-01  0.2651015E+00
 -0.7215620E+01  0.1349950E+02  0.0000000E+00  0.2815211E+00 -0.1418095E+01 -0.4282170E-01  0.2782453E+00
 -0.8504060E+01  0.1272720E+02  0.0000000E+00  0.2913345E+00 -0.1405175E+01 -0.4803097E-01  0.2873479E+00
 -0.9710590E+01  0.1183240E+02  0.0000000E+00  0.3014300E+00 -0.1393127E+01 -0.5327363E-01  0.2966849E+00
 -0.1082360E+02  0.1082360E+02  0.0000000E+00  0.3069617E+00 -0.1382802E+01 -0.5736775E-01  0.3015534E+00
 -0.1183240E+02  0.9710590E+01  0.0000000E+00  0.3129618E+00 -0.1374037E+01 -0.6118149E-01  0.3069233E+00
 -0.1272720E+02  0.8504060E+01  0.0000000E+00  0.3186266E+00 -0.1366941E+01 -0.6450474E-01  0.3120290E+00
 -0.1349950E+02  0.7215620E+01  0.0000000E+00  0.3203482E+00 -0.1361229E+01 -0.6664412E-01  0.3133393E+00
 -0.1414170E+02  0.5857690E+01  0.0000000E+00  0.3205536E+00 -0.1356729E+01 -0.6809717E-01  0.3132370E+00
 -0.1464780E+02  0.4443360E+01  0.0000000E+00  0.3222050E+00 -0.1353906E+01 -0.6933655E-01  0.3146562E+00
 -0.1501280E+02  0.2986230E+01  0.0000000E+00  0.3251051E+00 -0.1352982E+01 -0.7025385E-01  0.3174236E+00
 -0.1523320E+02  0.1500340E+01  0.0000000E+00  0.3274790E+00 -0.1353692E+01 -0.7053997E-01  0.3197916E+00
 -0.1530690E+02 -0.1338170E-05  0.0000000E+00  0.3290310E+00 -0.1356036E+01 -0.7012098E-01  0.3214723E+00
 -0.1523320E+02 -0.1500340E+01  0.0000000E+00  0.3297291E+00 -0.1359996E+01 -0.6899337E-01  0.3224301E+00
 -0.1501280E+02 -0.2986230E+01  0.0000000E+00  0.3296861E+00 -0.1365622E+01 -0.6716944E-01  0.3227712E+00
 -0.1464780E+02 -0.4443360E+01  0.0000000E+00  0.3291833E+00 -0.1373164E+01 -0.6463466E-01  0.3227755E+00
 -0.1414170E+02 -0.5857700E+01  0.0000000E+00  0.3296558E+00 -0.1383386E+01 -0.6141995E-01  0.3238835E+00
 -0.1349950E+02 -0.7215620E+01  0.0000000E+00  0.3315202E+00 -0.1396331E+01 -0.5754596E-01  0.3264875E+00
 -0.1272720E+02 -0.8504060E+01  0.0000000E+00  0.3322453E+00 -0.1410771E+01 -0.5294089E-01  0.3280003E+00
 -0.1183240E+02 -0.9710600E+01  0.0000000E+00  0.3298726E+00 -0.1425800E+01 -0.4766295E-01  0.3264111E+00
 -0.1082360E+02 -0.1082360E+02  0.0000000E+00  0.3276133E+00 -0.1443119E+01 -0.4171538E-01  0.3249466E+00
 -0.9710600E+01 -0.1183240E+02  0.0000000E+00  0.3259082E+00 -0.1462950E+01 -0.3508004E-01  0.3240147E+00
 -0.8504050E+01 -0.1272720E+02  0.0000000E+00  0.3207333E+00 -0.1484136E+01 -0.2775997E-01  0.3195297E+00
 -0.7215620E+01 -0.1349950E+02  0.0000000E+00  0.3165989E+00 -0.1508534E+01 -0.1969944E-01  0.3159855E+00
 -0.5857690E+01 -0.1414170E+02  0.0000000E+00  0.3105096E+00 -0.1535573E+01 -0.1093494E-01  0.3103170E+00
 -0.4443360E+01 -0.1464780E+02  0.0000000E+00  0.2991097E+00 -0.1566545E+01 -0.1271697E-02  0.2991070E+00
 -0.2986230E+01 -0.1501280E+02  0.0000000E+00  0.2783667E+00 -0.1604927E+01  0.9499026E-02  0.2782046E+00
 -0.1500340E+01 -0.1523320E+02  0.0000000E+00  0.1847604E+00 -0.1669390E+01  0.1818675E-01  0.1838631E+00
  0.1825330E-06 -0.1530690E+02  0.0000000E+00  0.1134338E+00 -0.1790069E+01  0.2467407E-01  0.1107177E+00
  0.1500340E+01 -0.1523320E+02  0.0000000E+00  0.4114126E-01 -0.2414146E+01  0.3072735E-01  0.2735750E-01
  0.2986230E+01 -0.1501280E+02  0.0000000E+00  0.1191899E+00  0.1888519E+01  0.3723545E-01 -0.1132244E+00
  0.4443360E+01 -0.1464780E+02  0.0000000E+00  0.1590279E+00  0.1854390E+01  0.4449723E-01 -0.1526757E+00
  0.5857700E+01 -0.1414170E+02  0.0000000E+00  0.1809355E+00  0.1858184E+01  0.5128589E-01 -0.1735149E+00
  0.7215620E+01 -0.1349950E+02  0.0000000E+00  0.1951709E+00  0.1870956E+01  0.5770668E-01 -0.1864447E+00
  0.8504060E+01 -0.1272720E+02  0.0000000E+00  0.2055521E+00  0.1886599E+01  0.6384035E-01 -0.1953870E+00
  0.9710600E+01 -0.1183240E+02  0.0000000E+00  0.2160802E+00  0.1898477E+01  0.6954496E-01 -0.2045829E+00
  0.1082360E+02 -0.1082360E+02  0.0000000E+00  0.2223206E+00  0.1914291E+01  0.7487314E-01 -0.2093334E+00
  0.1183240E+02 -0.9710590E+01  0.0000000E+00  0.2289873E+00  0.1927210E+01  0.7989721E-01 -0.2145965E+00
  0.1272720E+02 -0.8504060E+01  0.0000000E+00  0.2353488E+00  0.1938569E+01  0.8461674E-01 -0.2196112E+00
  0.1349950E+02 -0.7215620E+01  0.0000000E+00  0.2380731E+00  0.1953531E+01  0.8891051E-01 -0.2208478E+00
  0.1414170E+02 -0.5857700E+01  0.0000000E+00  0.2393504E+00  0.1968409E+01  0.9268096E-01 -0.2206782E+00
  0.1464780E+02 -0.4443350E+01  0.0000000E+00  0.2418951E+00  0.1978916E+01  0.9600431E-01 -0.2220279E+00
  0.1501280E+02 -0.2986230E+01  0.0000000E+00  0.2455200E+00  0.1985356E+01  0.9889233E-01 -0.2247229E+00
  0.1523320E+02 -0.1500330E+01  0.0000000E+00  0.2486143E+00  0.1990595E+01  0.1013294E+00 -0.2270274E+00
  0.1530690E+02  0.0000000E+00 -0.2568960E-01  0.2507052E+00  0.1995127E+01  0.1032181E+00 -0.2284712E+00
  0.1523320E+02  0.1500340E+01 -0.2568960E-01  0.2521654E+00  0.1999074E+01  0.1047254E+00 -0.2293904E+00
  0.1501280E+02  0.2986230E+01 -0.2568960E-01  0.2528871E+00  0.2002261E+01  0.1057578E+00 -0.2297111E+00
  0.1464780E+02  0.4443360E+01 -0.2568960E-01  0.2531497E+00  0.2004517E+01  0.1063861E+00 -0.2297102E+00
  0.1414170E+02  0.5857700E+01 -0.2568960E-01  0.2543669E+00  0.2004497E+01  0.1068931E+00 -0.2308168E+00
  0.1349950E+02  0.7215620E+01 -0.2568960E-01  0.2569190E+00  0.2001776E+01  0.1073307E+00 -0.2334255E+00
  0.1272720E+02  0.8504060E+01 -0.2568960E-01  0.2582771E+00  0.1998865E+01  0.1072146E+00 -0.2349726E+00
  0.1183240E+02  0.9710600E+01 -0.2568960E-01  0.2564379E+00  0.1997256E+01  0.1060756E+00 -0.2334703E+00
  0.1082360E+02  0.1082360E+02 -0.2568960E-01  0.2546181E+00  0.1994522E+01  0.1046887E+00 -0.2321005E+00
  0.9710590E+01  0.1183240E+02 -0.2568960E-01  0.2532801E+00  0.1990797E+01  0.1032778E+00 -0.2312672E+00
  0.8504060E+01  0.1272720E+02 -0.2568960E-01  0.2483877E+00  0.1989262E+01  0.1009345E+00 -0.2269552E+00
  0.7215620E+01  0.1349950E+02 -0.2568960E-01  0.2444560E+00  0.1986896E+01  0.9880812E-01 -0.2235971E+00
  0.5857700E+01  0.1414170E+02 -0.2568960E-01  0.2384105E+00  0.1985791E+01  0.9612354E-01 -0.2181739E+00
  0.4443360E+01  0.1464780E+02 -0.2568960E-01  0.2269743E+00  0.1989945E+01  0.9237463E-01 -0.2073265E+00
  0.2986230E+01  0.1501280E+02 -0.2568960E-01  0.2059368E+00  0.2003013E+01  0.8626367E-01 -0.1869987E+00
  0.1500340E+01  0.1523320E+02 -0.2568960E-01  0.1105670E+00  0.2127294E+01  0.5840323E-01 -0.9388357E-01
 -0.6690860E-06  0.1530690E+02 -0.2568960E-01  0.4209795E-01  0.2617357E+01  0.3644449E-01 -0.2107218E-01
 -0.1500340E+01  0.1523320E+02 -0.2568960E-01  0.6384839E-01 -0.1785440E+01  0.1359968E-01  0.6238322E-01
 -0.2986230E+01  0.1501280E+02 -0.2568960E-01  0.2047004E+00 -0.1481051E+01 -0.1834625E-01  0.2038766E+00
 -0.4443360E+01  0.1464780E+02 -0.2568960E-01  0.2455201E+00 -0.1452032E+01 -0.2909055E-01  0.2437906E+00
 -0.5857700E+01  0.1414170E+02 -0.2568960E-01  0.2674034E+00 -0.1433136E+01 -0.3669465E-01  0.2648737E+00
 -0.7215620E+01  0.1349950E+02 -0.2568960E-01  0.2812849E+00 -0.1418106E+01 -0.4278267E-01  0.2780123E+00
 -0.8504060E+01  0.1272720E+02 -0.2568960E-01  0.2910952E+00 -0.1405183E+01 -0.4798910E-01  0.2871123E+00
 -0.9710590E+01  0.1183240E+02 -0.2568960E-01  0.3011568E+00 -0.1393135E+01 -0.5322288E-01  0.2964165E+00
 -0.1082360E+02  0.1082360E+02 -0.2568960E-01  0.3066958E+00 -0.1382808E+01 -0.5731634E-01  0.3012925E+00
 -0.1183240E+02  0.9710590E+01 -0.2568960E-01  0.3126827E+00 -0.1374047E+01 -0.6112408E-01  0.3066502E+00
 -0.1272720E+02  0.8504060E+01 -0.2568960E-01  0.3183253E+00 -0.1366950E+01 -0.6444108E-01  0.3117344E+00
 -0.1349950E+02  0.7215620E+01 -0.2568960E-01  0.3200546E+00 -0.1361239E+01 -0.6657991E-01  0.3130528E+00
 -0.1414170E+02  0.5857690E+01 -0.2568960E-01  0.3202794E+00 -0.1356736E+01 -0.6803688E-01  0.3129695E+00
 -0.1464780E+02  0.4443360E+01 -0.2568960E-01  0.3219369E+00 -0.1353919E+01 -0.6927478E-01  0.3143953E+00
 -0.1501280E+02  0.2986230E+01 -0.2568960E-01  0.3248321E+00 -0.1352993E+01 -0.7019160E-01  0.3171577E+00
 -0.1523320E+02  0.1500340E+01 -0.2568960E-01  0.3272008E+00 -0.1353712E+01 -0.7047359E-01  0.3195212E+00
 -0.1530690E+02 -0.1338170E-05 -0.2568960E-01  0.3287503E+00 -0.1356052E+01 -0.7005581E-01  0.3211993E+00
 -0.1523320E+02 -0.1500340E+01 -0.2568960E-01  0.3294483E+00 -0.1360009E+01 -0.6893048E-01  0.3221564E+00
 -0.1501280E+02 -0.2986230E+01 -0.2568960E-01  0.3294070E+00 -0.1365642E+01 -0.6710622E-01  0.3224992E+00
 -0.1464780E+02 -0.4443360E+01 -0.2568960E-01  0.3289065E+00 -0.1373181E+01 -0.6457461E-01  0.3225052E+00
 -0.1414170E+02 -0.5857700E+01 -0.2568960E-01  0.3293724E+00 -0.1383396E+01 -0.6136380E-01  0.3236057E+00
 -0.1349950E+02 -0.7215620E+01 -0.2568960E-01  0.3312171E+00 -0.1396338E+01 -0.5749098E-01  0.3261894E+00
 -0.1272720E+02 -0.8504060E+01 -0.2568960E-01  0.3319331E+00 -0.1410778E+01 -0.5288902E-01  0.3276924E+00
 -0.1183240E+02 -0.9710600E+01 -0.2568960E-01  0.3295779E+00 -0.1425813E+01 -0.4761597E-01  0.3261200E+00
 -0.1082360E+02 -0.1082360E+02 -0.2568960E-01  0.3273265E+00 -0.1443128E+01 -0.4167580E-01  0.3246625E+00
 -0.9710600E+01 -0.1183240E+02 -0.2568960E-01  0.3256135E+00 -0.1462958E+01 -0.3504569E-01  0.3237220E+00
 -0.8504050E+01 -0.1272720E+02 -0.2568960E-01  0.3204642E+00 -0.1484153E+01 -0.2773139E-01  0.3192621E+00
 -0.7215620E+01 -0.1349950E+02 -0.2568960E-01  0.3163316E+00 -0.1508544E+01 -0.1967958E-01  0.3157188E+00
 -0.5857690E+01 -0.1414170E+02 -0.2568960E-01  0.3102387E+00 -0.1535584E+01 -0.1092185E-01  0.3100464E+00
 -0.4443360E+01 -0.1464780E+02 -0.2568960E-01  0.2988726E+00 -0.1566562E+01 -0.1265406E-02  0.2988699E+00
 -0.2986230E+01 -0.1501280E+02 -0.2568960E-01  0.2781483E+00 -0.1604946E+01  0.9496797E-02  0.2779861E+00
 -0.1500340E+01 -0.1523320E+02 -0.2568960E-01  0.1846280E+00 -0.1669414E+01  0.1817816E-01  0.1837309E+00
  0.1825330E-06 -0.1530690E+02 -0.2568960E-01  0.1133411E+00 -0.1790098E+01  0.2465713E-01  0.1106265E+00
  0.1500340E+01 -0.1523320E+02 -0.2568960E-01  0.4111629E-01 -0.2414014E+01  0.3070509E-01  0.2734495E-01
  0.2986230E+01 -0.1501280E+02 -0.2568960E-01  0.1191062E+00  0.1888489E+01  0.3720585E-01 -0.1131459E+00
  0.4443360E+01 -0.1464780E+02 -0.2568960E-01  0.1589131E+00  0.1854356E+01  0.4445995E-01 -0.1525670E+00
  0.5857700E+01 -0.1414170E+02 -0.2568960E-01  0.1807845E+00  0.1858188E+01  0.5124368E-01 -0.1733699E+00
  0.7215620E+01 -0.1349950E+02 -0.2568960E-01  0.1950145E+00  0.1870944E+01  0.5765828E-01 -0.1862959E+00
  0.8504060E+01 -0.1272720E+02 -0.2568960E-01  0.2053896E+00  0.1886577E+01  0.6378543E-01 -0.1952340E+00
  0.9710600E+01 -0.1183240E+02 -0.2568960E-01  0.2158835E+00  0.1898479E+01  0.6948197E-01 -0.2043965E+00
  0.1082360E+02 -0.1082360E+02 -0.2568960E-01  0.2221324E+00  0.1914284E+01  0.7480832E-01 -0.2091567E+00
  0.1183240E+02 -0.9710590E+01 -0.2568960E-01  0.2287864E+00  0.1927207E+01  0.7982658E-01 -0.2144083E+00
  0.1272720E+02 -0.8504060E+01 -0.2568960E-01  0.2351245E+00  0.1938585E+01  0.8453961E-01 -0.2194005E+00
  0.1349950E+02 -0.7215620E+01 -0.2568960E-01  0.2378557E+00  0.1953537E+01  0.8883051E-01 -0.2206456E+00
  0.1414170E+02 -0.5857700E+01 -0.2568960E-01  0.2391499E+00  0.1968389E+01  0.9259874E-01 -0.2204953E+00
  0.1464780E+02 -0.4443350E+01 -0.2568960E-01  0.2416979E+00  0.1978873E+01  0.9591644E-01 -0.2218511E+00
  0.1501280E+02 -0.2986230E+01 -0.2568960E-01  0.2453170E+00  0.1985318E+01  0.9880200E-01 -0.2245408E+00
  0.1523320E+02 -0.1500330E+01 -0.2568960E-01  0.2484076E+00  0.1990568E+01  0.1012390E+00 -0.2268413E+00
  0.1530690E+02  0.0000000E+00 -0.1027320E+00  0.2500982E+00  0.1995041E+01  0.1029486E+00 -0.2279269E+00
  0.1523320E+02  0.1500340E+01 -0.1027320E+00  0.2515571E+00  0.1998981E+01  0.1044516E+00 -0.2288467E+00
  0.1501280E+02  0.2986230E+01 -0.1027320E+00  0.2522834E+00  0.2002180E+01  0.1054868E+00 -0.2291712E+00
  0.1464780E+02  0.4443360E+01 -0.1027320E+00  0.2525503E+00  0.2004435E+01  0.1061153E+00 -0.2291750E+00
  0.1414170E+02  0.5857700E+01 -0.1027320E+00  0.2537437E+00  0.2004433E+01  0.1066165E+00 -0.2302581E+00
  0.1349950E+02  0.7215620E+01 -0.1027320E+00  0.2562372E+00  0.2001770E+01  0.1070444E+00 -0.2328068E+00
  0.1272720E+02  0.8504060E+01 -0.1027320E+00  0.2575660E+00  0.1998880E+01  0.1069229E+00 -0.2343240E+00
  0.1183240E+02  0.9710600E+01 -0.1027320E+00  0.2557745E+00  0.1997239E+01  0.1057973E+00 -0.2328680E+00
  0.1082360E+02  0.1082360E+02 -0.1027320E+00  0.2539738E+00  0.1994499E+01  0.1044185E+00 -0.2315156E+00
  0.9710590E+01  0.1183240E+02 -0.1027320E+00  0.2526077E+00  0.1990798E+01  0.1030038E+00 -0.2306531E+00
  0.8504060E+01  0.1272720E+02 -0.1027320E+00  0.2477929E+00  0.1989215E+01  0.1006822E+00 -0.2264165E+00
  0.7215620E+01  0.1349950E+02 -0.1027320E+00  0.2438384E+00  0.1986884E+01  0.9855587E-01 -0.2230334E+00
  0.5857700E+01  0.1414170E+02 -0.1027320E+00  0.2378073E+00  0.1985794E+01  0.9588097E-01 -0.2176216E+00
  0.4443360E+01  0.1464780E+02 -0.1027320E+00  0.2264700E+00  0.1989892E+01  0.9215848E-01 -0.2068706E+00
  0.2986230E+01  0.1501280E+02 -0.1027320E+00  0.2054593E+00  0.2002994E+01  0.8606023E-01 -0.1865667E+00
  0.1500340E+01  0.1523320E+02 -0.1027320E+00  0.1104189E+00  0.2126946E+01  0.5829236E-01 -0.9377813E-01
 -0.6690860E-06  0.1530690E+02 -0.1027320E+00  0.4200787E-01  0.2616963E+01  0.3635821E-01 -0.2104144E-01
 -0.1500340E+01  0.1523320E+02 -0.1027320E+00  0.6377912E-01 -0.1784841E+01  0.1354759E-01  0.6232367E-01
 -0.2986230E+01  0.1501280E+02 -0.1027320E+00  0.2041888E+00 -0.1481071E+01 -0.1829634E-01  0.2033675E+00
 -0.4443360E+01  0.1464780E+02 -0.1027320E+00  0.2449499E+00 -0.1452033E+01 -0.2902269E-01  0.2432244E+00
 -0.5857700E+01  0.1414170E+02 -0.1027320E+00  0.2667186E+00 -0.1433165E+01 -0.3659314E-01  0.2641964E+00
 -0.7215620E+01  0.1349950E+02 -0.1027320E+00  0.2805560E+00 -0.1418135E+01 -0.4266381E-01  0.2772931E+00
 -0.8504060E+01  0.1272720E+02 -0.1027320E+00  0.2903824E+00 -0.1405200E+01 -0.4786666E-01  0.2864100E+00
 -0.9710590E+01  0.1183240E+02 -0.1027320E+00  0.3003463E+00 -0.1393159E+01 -0.5307261E-01  0.2956201E+00
 -0.1082360E+02  0.1082360E+02 -0.1027320E+00  0.3059117E+00 -0.1382837E+01 -0.5716105E-01  0.3005239E+00
 -0.1183240E+02  0.9710590E+01 -0.1027320E+00  0.3118635E+00 -0.1374077E+01 -0.6095465E-01  0.3058487E+00
 -0.1272720E+02  0.8504060E+01 -0.1027320E+00  0.3174407E+00 -0.1366971E+01 -0.6425542E-01  0.3108695E+00
 -0.1349950E+02  0.7215620E+01 -0.1027320E+00  0.3191947E+00 -0.1361253E+01 -0.6639668E-01  0.3122126E+00
 -0.1414170E+02  0.5857690E+01 -0.1027320E+00  0.3194805E+00 -0.1356755E+01 -0.6786107E-01  0.3121901E+00
 -0.1464780E+02  0.4443360E+01 -0.1027320E+00  0.3211574E+00 -0.1353944E+01 -0.6909905E-01  0.3136357E+00
 -0.1501280E+02  0.2986230E+01 -0.1027320E+00  0.3240370E+00 -0.1353026E+01 -0.7000936E-01  0.3163838E+00
 -0.1523320E+02  0.1500340E+01 -0.1027320E+00  0.3263907E+00 -0.1353747E+01 -0.7028807E-01  0.3187326E+00
 -0.1530690E+02 -0.1338170E-05 -0.1027320E+00  0.3279326E+00 -0.1356092E+01 -0.6986893E-01  0.3204031E+00
 -0.1523320E+02 -0.1500340E+01 -0.1027320E+00  0.3286302E+00 -0.1360052E+01 -0.6874535E-01  0.3213595E+00
 -0.1501280E+02 -0.2986230E+01 -0.1027320E+00  0.3285940E+00 -0.1365693E+01 -0.6692430E-01  0.3217067E+00
 -0.1464780E+02 -0.4443360E+01 -0.1027320E+00  0.3280998E+00 -0.1373234E+01 -0.6439943E-01  0.3217176E+00
 -0.1414170E+02 -0.5857700E+01 -0.1027320E+00  0.3285439E+00 -0.1383440E+01 -0.6119529E-01  0.3227944E+00
 -0.1349950E+02 -0.7215620E+01 -0.1027320E+00  0.3303308E+00 -0.1396358E+01 -0.5733044E-01  0.3253178E+00
 -0.1272720E+02 -0.8504060E+01 -0.1027320E+00  0.3310194E+00 -0.1410787E+01 -0.5274056E-01  0.3267908E+00
 -0.1183240E+02 -0.9710600E+01 -0.1027320E+00  0.3287126E+00 -0.1425841E+01 -0.4748181E-01  0.3252652E+00
 -0.1082360E+02 -0.1082360E+02 -0.1027320E+00  0.3264813E+00 -0.1443165E+01 -0.4155615E-01  0.3238257E+00
 -0.9710600E+01 -0.1183240E+02 -0.1027320E+00  0.3247406E+00 -0.1462985E+01 -0.3494289E-01  0.3228552E+00
 -0.8504050E+01 -0.1272720E+02 -0.1027320E+00  0.3196688E+00 -0.1484197E+01 -0.2764857E-01  0.3184709E+00
 -0.7215620E+01 -0.1349950E+02 -0.1027320E+00  0.3155134E+00 -0.1508582E+01 -0.1961684E-01  0.3149030E+00
 -0.5857690E+01 -0.1414170E+02 -0.1027320E+00  0.3094362E+00 -0.1535627E+01 -0.1088033E-01  0.3092448E+00
 -0.4443360E+01 -0.1464780E+02 -0.1027320E+00  0.2981662E+00 -0.1566611E+01 -0.1247882E-02  0.2981635E+00
 -0.2986230E+01 -0.1501280E+02 -0.1027320E+00  0.2774685E+00 -0.1604998E+01  0.9487944E-02  0.2773062E+00
 -0.1500340E+01 -0.1523320E+02 -0.1027320E+00  0.1842757E+00 -0.1669441E+01  0.1814837E-01  0.1833798E+00
  0.1825330E-06 -0.1530690E+02 -0.1027320E+00  0.1130612E+00 -0.1790169E+01  0.2460407E-01  0.1103515E+00
  0.1500340E+01 -0.1523320E+02 -0.1027320E+00  0.4093837E-01 -0.2416296E+01  0.3063427E-01  0.2715679E-01
  0.2986230E+01 -0.1501280E+02 -0.1027320E+00  0.1188297E+00  0.1888469E+01  0.3711722E-01 -0.1128841E+00
  0.4443360E+01 -0.1464780E+02 -0.1027320E+00  0.1585783E+00  0.1854248E+01  0.4434980E-01 -0.1522503E+00
  0.5857700E+01 -0.1414170E+02 -0.1027320E+00  0.1803380E+00  0.1858180E+01  0.5111571E-01 -0.1729421E+00
  0.7215620E+01 -0.1349950E+02 -0.1027320E+00  0.1945228E+00  0.1870944E+01  0.5751283E-01 -0.1858262E+00
  0.8504060E+01 -0.1272720E+02 -0.1027320E+00  0.2049099E+00  0.1886492E+01  0.6361990E-01 -0.1947834E+00
  0.9710600E+01 -0.1183240E+02 -0.1027320E+00  0.2153096E+00  0.1898504E+01  0.6930250E-01 -0.2038514E+00
  0.1082360E+02 -0.1082360E+02 -0.1027320E+00  0.2215784E+00  0.1914239E+01  0.7461226E-01 -0.2086385E+00
  0.1183240E+02 -0.9710590E+01 -0.1027320E+00  0.2281961E+00  0.1927182E+01  0.7961521E-01 -0.2138571E+00
  0.1272720E+02 -0.8504060E+01 -0.1027320E+00  0.2344712E+00  0.1938634E+01  0.8431553E-01 -0.2187868E+00
