 VARIABLES="X" "Y" "Z" "abs(eta) (m)" "angle(phi) (rad)" "PRE1" "PRE2"
ZONE N=   3200 ,E =    3136 ,F=FEPOINT,ET=QUADRILATERAL
  0.1672760E+02  0.0000000E+00  0.0000000E+00  0.2369913E+00 -0.1450301E+01 -0.2848736E-01  0.2352729E+00
  0.1664710E+02  0.1639590E+01  0.0000000E+00  0.2366168E+00 -0.1449358E+01 -0.2866373E-01  0.2348743E+00
  0.1640620E+02  0.3263390E+01  0.0000000E+00  0.2369533E+00 -0.1449909E+01 -0.2857485E-01  0.2352240E+00
  0.1600730E+02  0.4855770E+01  0.0000000E+00  0.2376073E+00 -0.1451790E+01 -0.2821017E-01  0.2359267E+00
  0.1545430E+02  0.6401380E+01  0.0000000E+00  0.2379923E+00 -0.1454830E+01 -0.2753718E-01  0.2363938E+00
  0.1475240E+02  0.7885340E+01  0.0000000E+00  0.2357091E+00 -0.1458880E+01 -0.2632463E-01  0.2342345E+00
  0.1390850E+02  0.9293360E+01  0.0000000E+00  0.2312710E+00 -0.1464202E+01 -0.2460562E-01  0.2299583E+00
  0.1293060E+02  0.1061190E+02  0.0000000E+00  0.2269043E+00 -0.1470949E+01 -0.2261824E-01  0.2257742E+00
  0.1182820E+02  0.1182820E+02  0.0000000E+00  0.2225441E+00 -0.1479096E+01 -0.2037875E-01  0.2216091E+00
  0.1061190E+02  0.1293060E+02  0.0000000E+00  0.2168548E+00 -0.1488636E+01 -0.1779672E-01  0.2161233E+00
  0.9293360E+01  0.1390850E+02  0.0000000E+00  0.2089186E+00 -0.1499500E+01 -0.1488249E-01  0.2083878E+00
  0.7885330E+01  0.1475240E+02  0.0000000E+00  0.2000029E+00 -0.1512031E+01 -0.1174641E-01  0.1996576E+00
  0.6401380E+01  0.1545430E+02  0.0000000E+00  0.1849875E+00 -0.1528433E+01 -0.7834297E-02  0.1848215E+00
  0.4855770E+01  0.1600730E+02  0.0000000E+00  0.1620641E+00 -0.1551883E+01 -0.3064981E-02  0.1620351E+00
  0.3263390E+01  0.1640620E+02  0.0000000E+00  0.1233959E+00 -0.1597808E+01  0.3332738E-02  0.1233509E+00
  0.1639590E+01  0.1664710E+02  0.0000000E+00  0.6465665E-01 -0.1762689E+01  0.1233115E-01  0.6346988E-01
 -0.7311870E-06  0.1672760E+02  0.0000000E+00  0.2244603E-01 -0.2949763E+01  0.2203430E-01  0.4279447E-02
 -0.1639590E+01  0.1664710E+02  0.0000000E+00  0.5987461E-01  0.2134963E+01  0.3201568E-01 -0.5059610E-01
 -0.3263390E+01  0.1640620E+02  0.0000000E+00  0.1078881E+00  0.1964606E+01  0.4139768E-01 -0.9962965E-01
 -0.4855770E+01  0.1600730E+02  0.0000000E+00  0.1372864E+00  0.1922758E+01  0.4732804E-01 -0.1288706E+00
 -0.6401380E+01  0.1545430E+02  0.0000000E+00  0.1541846E+00  0.1907852E+01  0.5099039E-01 -0.1455090E+00
 -0.7885340E+01  0.1475240E+02  0.0000000E+00  0.1648269E+00  0.1902156E+01  0.5362293E-01 -0.1558605E+00
 -0.9293360E+01  0.1390850E+02  0.0000000E+00  0.1704237E+00  0.1902086E+01  0.5543256E-01 -0.1611567E+00
 -0.1061190E+02  0.1293060E+02  0.0000000E+00  0.1754504E+00  0.1902346E+01  0.5711057E-01 -0.1658952E+00
 -0.1182820E+02  0.1182820E+02  0.0000000E+00  0.1788924E+00  0.1903110E+01  0.5836029E-01 -0.1691052E+00
 -0.1293060E+02  0.1061190E+02  0.0000000E+00  0.1812492E+00  0.1904521E+01  0.5937084E-01 -0.1712494E+00
 -0.1390850E+02  0.9293360E+01  0.0000000E+00  0.1836416E+00  0.1905263E+01  0.6028317E-01 -0.1734652E+00
 -0.1475240E+02  0.7885330E+01  0.0000000E+00  0.1861269E+00  0.1905144E+01  0.6107809E-01 -0.1758201E+00
 -0.1545430E+02  0.6401370E+01  0.0000000E+00  0.1867232E+00  0.1906043E+01  0.6143239E-01 -0.1763281E+00
 -0.1600730E+02  0.4855770E+01  0.0000000E+00  0.1848487E+00  0.1908864E+01  0.6130788E-01 -0.1743858E+00
 -0.1640620E+02  0.3263390E+01  0.0000000E+00  0.1827497E+00  0.1910972E+01  0.6097488E-01 -0.1722775E+00
 -0.1664710E+02  0.1639590E+01  0.0000000E+00  0.1809063E+00  0.1911670E+01  0.6047884E-01 -0.1704975E+00
 -0.1672760E+02 -0.1462370E-05  0.0000000E+00  0.1795712E+00  0.1910583E+01  0.5984861E-01 -0.1693043E+00
 -0.1664710E+02 -0.1639590E+01  0.0000000E+00  0.1789375E+00  0.1906973E+01  0.5902794E-01 -0.1689211E+00
 -0.1640620E+02 -0.3263400E+01  0.0000000E+00  0.1789312E+00  0.1900616E+01  0.5795084E-01 -0.1692870E+00
 -0.1600730E+02 -0.4855770E+01  0.0000000E+00  0.1791839E+00  0.1892203E+01  0.5660439E-01 -0.1700083E+00
 -0.1545430E+02 -0.6401380E+01  0.0000000E+00  0.1791420E+00  0.1882737E+01  0.5497975E-01 -0.1704966E+00
 -0.1475240E+02 -0.7885340E+01  0.0000000E+00  0.1765250E+00  0.1876028E+01  0.5304832E-01 -0.1683655E+00
 -0.1390850E+02 -0.9293360E+01  0.0000000E+00  0.1718305E+00  0.1871377E+01  0.5087472E-01 -0.1641264E+00
 -0.1293060E+02 -0.1061190E+02  0.0000000E+00  0.1671792E+00  0.1865237E+01  0.4851615E-01 -0.1599846E+00
 -0.1182820E+02 -0.1182820E+02  0.0000000E+00  0.1625054E+00  0.1857623E+01  0.4597439E-01 -0.1558665E+00
 -0.1061190E+02 -0.1293060E+02  0.0000000E+00  0.1565234E+00  0.1850597E+01  0.4322610E-01 -0.1504363E+00
 -0.9293350E+01 -0.1390850E+02  0.0000000E+00  0.1483192E+00  0.1845228E+01  0.4019454E-01 -0.1427690E+00
 -0.7885340E+01 -0.1475240E+02  0.0000000E+00  0.1391235E+00  0.1839803E+01  0.3697538E-01 -0.1341200E+00
 -0.6401370E+01 -0.1545430E+02  0.0000000E+00  0.1240086E+00  0.1844682E+01  0.3354115E-01 -0.1193865E+00
 -0.4855760E+01 -0.1600730E+02  0.0000000E+00  0.1012276E+00  0.1869807E+01  0.2981912E-01 -0.9673595E-01
 -0.3263390E+01 -0.1640620E+02  0.0000000E+00  0.6365912E-01  0.1986262E+01  0.2569385E-01 -0.5824354E-01
 -0.1639590E+01 -0.1664710E+02  0.0000000E+00  0.2145717E-01 -0.3074731E+01  0.2140922E-01  0.1433595E-02
  0.1994750E-06 -0.1672760E+02  0.0000000E+00  0.6304487E-01 -0.1852865E+01  0.1754813E-01  0.6055343E-01
  0.1639600E+01 -0.1664710E+02  0.0000000E+00  0.1163819E+00 -0.1692259E+01  0.1410136E-01  0.1155244E+00
  0.3263390E+01 -0.1640620E+02  0.0000000E+00  0.1651238E+00 -0.1634768E+01  0.1055604E-01  0.1647860E+00
  0.4855770E+01 -0.1600730E+02  0.0000000E+00  0.1943426E+00 -0.1603540E+01  0.6362363E-02  0.1942384E+00
  0.6401380E+01 -0.1545430E+02  0.0000000E+00  0.2110350E+00 -0.1579952E+01  0.1932117E-02  0.2110262E+00
  0.7885340E+01 -0.1475240E+02  0.0000000E+00  0.2215048E+00 -0.1560167E+01 -0.2354429E-02  0.2214923E+00
  0.9293360E+01 -0.1390850E+02  0.0000000E+00  0.2269696E+00 -0.1542452E+01 -0.6432528E-02  0.2268784E+00
  0.1061190E+02 -0.1293060E+02  0.0000000E+00  0.2319136E+00 -0.1526891E+01 -0.1017886E-01  0.2316901E+00
  0.1182820E+02 -0.1182820E+02  0.0000000E+00  0.2353554E+00 -0.1512558E+01 -0.1369889E-01  0.2349564E+00
  0.1293060E+02 -0.1061190E+02  0.0000000E+00  0.2377437E+00 -0.1499809E+01 -0.1686269E-01  0.2371449E+00
  0.1390850E+02 -0.9293360E+01  0.0000000E+00  0.2402016E+00 -0.1488912E+01 -0.1964686E-01  0.2393968E+00
  0.1475240E+02 -0.7885330E+01  0.0000000E+00  0.2427834E+00 -0.1479817E+01 -0.2205788E-01  0.2417793E+00
  0.1545430E+02 -0.6401380E+01  0.0000000E+00  0.2435039E+00 -0.1471537E+01 -0.2413025E-01  0.2423054E+00
  0.1600730E+02 -0.4855760E+01  0.0000000E+00  0.2417537E+00 -0.1463824E+01 -0.2581161E-01  0.2403718E+00
  0.1640620E+02 -0.3263390E+01  0.0000000E+00  0.2397993E+00 -0.1457560E+01 -0.2709609E-01  0.2382636E+00
  0.1664710E+02 -0.1639590E+01  0.0000000E+00  0.2381279E+00 -0.1452995E+01 -0.2798694E-01  0.2364776E+00
  0.1672760E+02  0.0000000E+00 -0.2568960E-01  0.2368316E+00 -0.1450305E+01 -0.2846704E-01  0.2351145E+00
  0.1664710E+02  0.1639590E+01 -0.2568960E-01  0.2364552E+00 -0.1449364E+01 -0.2864271E-01  0.2347140E+00
  0.1640620E+02  0.3263390E+01 -0.2568960E-01  0.2367850E+00 -0.1449913E+01 -0.2855377E-01  0.2350571E+00
  0.1600730E+02  0.4855770E+01 -0.2568960E-01  0.2374281E+00 -0.1451793E+01 -0.2818800E-01  0.2357489E+00
  0.1545430E+02  0.6401380E+01 -0.2568960E-01  0.2378015E+00 -0.1454834E+01 -0.2751430E-01  0.2362044E+00
  0.1475240E+02  0.7885340E+01 -0.2568960E-01  0.2355244E+00 -0.1458880E+01 -0.2630405E-01  0.2340509E+00
  0.1390850E+02  0.9293360E+01 -0.2568960E-01  0.2311039E+00 -0.1464199E+01 -0.2458852E-01  0.2297921E+00
  0.1293060E+02  0.1061190E+02 -0.2568960E-01  0.2267486E+00 -0.1470955E+01 -0.2260125E-01  0.2256194E+00
  0.1182820E+02  0.1182820E+02 -0.2568960E-01  0.2223890E+00 -0.1479098E+01 -0.2036415E-01  0.2214546E+00
  0.1061190E+02  0.1293060E+02 -0.2568960E-01  0.2167025E+00 -0.1488637E+01 -0.1778416E-01  0.2159715E+00
  0.9293360E+01  0.1390850E+02 -0.2568960E-01  0.2087816E+00 -0.1499496E+01 -0.1487349E-01  0.2082511E+00
  0.7885330E+01  0.1475240E+02 -0.2568960E-01  0.1998606E+00 -0.1512038E+01 -0.1173677E-01  0.1995157E+00
  0.6401380E+01  0.1545430E+02 -0.2568960E-01  0.1848673E+00 -0.1528437E+01 -0.7828604E-02  0.1847015E+00
  0.4855770E+01  0.1600730E+02 -0.2568960E-01  0.1619636E+00 -0.1551874E+01 -0.3064535E-02  0.1619346E+00
  0.3263390E+01  0.1640620E+02 -0.2568960E-01  0.1232972E+00 -0.1597818E+01  0.3331347E-02  0.1232522E+00
  0.1639590E+01  0.1664710E+02 -0.2568960E-01  0.6459300E-01 -0.1762756E+01  0.1232322E-01  0.6340658E-01
 -0.7311870E-06  0.1672760E+02 -0.2568960E-01  0.2242760E-01 -0.2950131E+01  0.2201778E-01  0.4267843E-02
 -0.1639590E+01  0.1664710E+02 -0.2568960E-01  0.5982903E-01  0.2134972E+01  0.3199172E-01 -0.5055732E-01
 -0.3263390E+01  0.1640620E+02 -0.2568960E-01  0.1078096E+00  0.1964610E+01  0.4136796E-01 -0.9955700E-01
 -0.4855770E+01  0.1600730E+02 -0.2568960E-01  0.1372078E+00  0.1922736E+01  0.4729813E-01 -0.1287978E+00
 -0.6401380E+01  0.1545430E+02 -0.2568960E-01  0.1540885E+00  0.1907843E+01  0.5095732E-01 -0.1454188E+00
 -0.7885340E+01  0.1475240E+02 -0.2568960E-01  0.1647126E+00  0.1902160E+01  0.5358646E-01 -0.1557522E+00
 -0.9293360E+01  0.1390850E+02 -0.2568960E-01  0.1703156E+00  0.1902078E+01  0.5539605E-01 -0.1610549E+00
 -0.1061190E+02  0.1293060E+02 -0.2568960E-01  0.1753294E+00  0.1902344E+01  0.5707088E-01 -0.1657809E+00
 -0.1182820E+02  0.1182820E+02 -0.2568960E-01  0.1787695E+00  0.1903107E+01  0.5831966E-01 -0.1689892E+00
 -0.1293060E+02  0.1061190E+02 -0.2568960E-01  0.1811251E+00  0.1904514E+01  0.5932896E-01 -0.1711326E+00
 -0.1390850E+02  0.9293360E+01 -0.2568960E-01  0.1835100E+00  0.1905275E+01  0.6024209E-01 -0.1733402E+00
 -0.1475240E+02  0.7885330E+01 -0.2568960E-01  0.1859802E+00  0.1905166E+01  0.6103376E-01 -0.1756802E+00
 -0.1545430E+02  0.6401370E+01 -0.2568960E-01  0.1865715E+00  0.1906068E+01  0.6138679E-01 -0.1761834E+00
 -0.1600730E+02  0.4855770E+01 -0.2568960E-01  0.1847084E+00  0.1908880E+01  0.6126398E-01 -0.1742525E+00
 -0.1640620E+02  0.3263390E+01 -0.2568960E-01  0.1826205E+00  0.1910970E+01  0.6093141E-01 -0.1721558E+00
 -0.1664710E+02  0.1639590E+01 -0.2568960E-01  0.1807848E+00  0.1911663E+01  0.6043716E-01 -0.1703834E+00
 -0.1672760E+02 -0.1462370E-05 -0.2568960E-01  0.1794535E+00  0.1910564E+01  0.5980616E-01 -0.1691945E+00
 -0.1664710E+02 -0.1639590E+01 -0.2568960E-01  0.1788187E+00  0.1906963E+01  0.5898706E-01 -0.1688095E+00
 -0.1640620E+02 -0.3263400E+01 -0.2568960E-01  0.1788056E+00  0.1900613E+01  0.5790966E-01 -0.1691683E+00
 -0.1600730E+02 -0.4855770E+01 -0.2568960E-01  0.1790477E+00  0.1892213E+01  0.5656316E-01 -0.1698785E+00
 -0.1545430E+02 -0.6401380E+01 -0.2568960E-01  0.1789956E+00  0.1882772E+01  0.5494085E-01 -0.1703553E+00
 -0.1475240E+02 -0.7885340E+01 -0.2568960E-01  0.1763852E+00  0.1876055E+01  0.5301087E-01 -0.1682307E+00
 -0.1390850E+02 -0.9293360E+01 -0.2568960E-01  0.1717080E+00  0.1871382E+01  0.5083919E-01 -0.1640092E+00
 -0.1293060E+02 -0.1061190E+02 -0.2568960E-01  0.1670666E+00  0.1865231E+01  0.4848256E-01 -0.1598772E+00
 -0.1182820E+02 -0.1182820E+02 -0.2568960E-01  0.1623946E+00  0.1857624E+01  0.4594318E-01 -0.1557602E+00
 -0.1061190E+02 -0.1293060E+02 -0.2568960E-01  0.1564147E+00  0.1850596E+01  0.4319591E-01 -0.1503319E+00
 -0.9293350E+01 -0.1390850E+02 -0.2568960E-01  0.1482267E+00  0.1845208E+01  0.4016649E-01 -0.1426807E+00
 -0.7885340E+01 -0.1475240E+02 -0.2568960E-01  0.1390264E+00  0.1839806E+01  0.3694998E-01 -0.1340262E+00
 -0.6401370E+01 -0.1545430E+02 -0.2568960E-01  0.1239330E+00  0.1844656E+01  0.3351758E-01 -0.1193145E+00
 -0.4855760E+01 -0.1600730E+02 -0.2568960E-01  0.1011710E+00  0.1869771E+01  0.2979900E-01 -0.9668293E-01
 -0.3263390E+01 -0.1640620E+02 -0.2568960E-01  0.6360488E-01  0.1986326E+01  0.2567566E-01 -0.5819228E-01
 -0.1639590E+01 -0.1664710E+02 -0.2568960E-01  0.2144269E-01 -0.3073896E+01  0.2139358E-01  0.1450484E-02
  0.1994750E-06 -0.1672760E+02 -0.2568960E-01  0.6300754E-01 -0.1852841E+01  0.1753624E-01  0.6051802E-01
  0.1639600E+01 -0.1664710E+02 -0.2568960E-01  0.1162957E+00 -0.1692263E+01  0.1409132E-01  0.1154389E+00
  0.3263390E+01 -0.1640620E+02 -0.2568960E-01  0.1650032E+00 -0.1634772E+01  0.1054903E-01  0.1646657E+00
  0.4855770E+01 -0.1600730E+02 -0.2568960E-01  0.1942210E+00 -0.1603540E+01  0.6358394E-02  0.1941168E+00
  0.6401380E+01 -0.1545430E+02 -0.2568960E-01  0.2108968E+00 -0.1579955E+01  0.1931497E-02  0.2108879E+00
  0.7885340E+01 -0.1475240E+02 -0.2568960E-01  0.2213486E+00 -0.1560174E+01 -0.2351149E-02  0.2213361E+00
  0.9293360E+01 -0.1390850E+02 -0.2568960E-01  0.2268200E+00 -0.1542461E+01 -0.6426141E-02  0.2267289E+00
  0.1061190E+02 -0.1293060E+02 -0.2568960E-01  0.2317515E+00 -0.1526891E+01 -0.1017176E-01  0.2315282E+00
  0.1182820E+02 -0.1182820E+02 -0.2568960E-01  0.2351912E+00 -0.1512563E+01 -0.1368818E-01  0.2347925E+00
  0.1293060E+02 -0.1061190E+02 -0.2568960E-01  0.2375792E+00 -0.1499817E+01 -0.1684915E-01  0.2369809E+00
  0.1390850E+02 -0.9293360E+01 -0.2568960E-01  0.2400277E+00 -0.1488912E+01 -0.1963243E-01  0.2392234E+00
  0.1475240E+02 -0.7885330E+01 -0.2568960E-01  0.2425937E+00 -0.1479815E+01 -0.2204115E-01  0.2415903E+00
  0.1545430E+02 -0.6401380E+01 -0.2568960E-01  0.2433094E+00 -0.1471533E+01 -0.2411203E-01  0.2421117E+00
  0.1600730E+02 -0.4855760E+01 -0.2568960E-01  0.2415708E+00 -0.1463827E+01 -0.2579153E-01  0.2401900E+00
  0.1640620E+02 -0.3263390E+01 -0.2568960E-01  0.2396278E+00 -0.1457560E+01 -0.2707662E-01  0.2380932E+00
  0.1664710E+02 -0.1639590E+01 -0.2568960E-01  0.2379644E+00 -0.1452995E+01 -0.2796773E-01  0.2363152E+00
  0.1672760E+02  0.0000000E+00 -0.1027320E+00  0.2363722E+00 -0.1450325E+01 -0.2840730E-01  0.2346590E+00
  0.1664710E+02  0.1639590E+01 -0.1027320E+00  0.2359901E+00 -0.1449373E+01 -0.2858434E-01  0.2342526E+00
  0.1640620E+02  0.3263390E+01 -0.1027320E+00  0.2362968E+00 -0.1449919E+01 -0.2849350E-01  0.2345726E+00
  0.1600730E+02  0.4855770E+01 -0.1027320E+00  0.2369075E+00 -0.1451793E+01 -0.2812628E-01  0.2352320E+00
  0.1545430E+02  0.6401380E+01 -0.1027320E+00  0.2372457E+00 -0.1454835E+01 -0.2744969E-01  0.2356524E+00
  0.1475240E+02  0.7885340E+01 -0.1027320E+00  0.2349857E+00 -0.1458884E+01 -0.2624296E-01  0.2335157E+00
  0.1390850E+02  0.9293360E+01 -0.1027320E+00  0.2306174E+00 -0.1464211E+01 -0.2453391E-01  0.2293087E+00
  0.1293060E+02  0.1061190E+02 -0.1027320E+00  0.2262897E+00 -0.1470959E+01 -0.2255458E-01  0.2251629E+00
  0.1182820E+02  0.1182820E+02 -0.1027320E+00  0.2219341E+00 -0.1479099E+01 -0.2032234E-01  0.2210017E+00
  0.1061190E+02  0.1293060E+02 -0.1027320E+00  0.2162522E+00 -0.1488636E+01 -0.1774733E-01  0.2155227E+00
  0.9293360E+01  0.1390850E+02 -0.1027320E+00  0.2083786E+00 -0.1499493E+01 -0.1484555E-01  0.2078491E+00
  0.7885330E+01  0.1475240E+02 -0.1027320E+00  0.1994397E+00 -0.1512041E+01 -0.1171131E-01  0.1990956E+00
  0.6401380E+01  0.1545430E+02 -0.1027320E+00  0.1845117E+00 -0.1528421E+01 -0.7816448E-02  0.1843461E+00
  0.4855770E+01  0.1600730E+02 -0.1027320E+00  0.1616630E+00 -0.1551854E+01 -0.3062166E-02  0.1616340E+00
  0.3263390E+01  0.1640620E+02 -0.1027320E+00  0.1230173E+00 -0.1597831E+01  0.3325385E-02  0.1229724E+00
  0.1639590E+01  0.1664710E+02 -0.1027320E+00  0.6440198E-01 -0.1762971E+01  0.1230037E-01  0.6321643E-01
 -0.7311870E-06  0.1672760E+02 -0.1027320E+00  0.2237586E-01 -0.2951178E+01  0.2197144E-01  0.4234986E-02
 -0.1639590E+01  0.1664710E+02 -0.1027320E+00  0.5969421E-01  0.2134972E+01  0.3191963E-01 -0.5044339E-01
 -0.3263390E+01  0.1640620E+02 -0.1027320E+00  0.1075919E+00  0.1964567E+01  0.4128018E-01 -0.9935781E-01
 -0.4855770E+01  0.1600730E+02 -0.1027320E+00  0.1369707E+00  0.1922643E+01  0.4720450E-01 -0.1285795E+00
 -0.6401380E+01  0.1545430E+02 -0.1027320E+00  0.1538040E+00  0.1907796E+01  0.5085640E-01 -0.1451526E+00
 -0.7885340E+01  0.1475240E+02 -0.1027320E+00  0.1643724E+00  0.1902148E+01  0.5347386E-01 -0.1554311E+00
 -0.9293360E+01  0.1390850E+02 -0.1027320E+00  0.1699968E+00  0.1902032E+01  0.5528494E-01 -0.1607560E+00
 -0.1061190E+02  0.1293060E+02 -0.1027320E+00  0.1749737E+00  0.1902324E+01  0.5695185E-01 -0.1654457E+00
 -0.1182820E+02  0.1182820E+02 -0.1027320E+00  0.1784107E+00  0.1903088E+01  0.5819947E-01 -0.1686511E+00
 -0.1293060E+02  0.1061190E+02 -0.1027320E+00  0.1807649E+00  0.1904501E+01  0.5920869E-01 -0.1707931E+00
 -0.1390850E+02  0.9293360E+01 -0.1027320E+00  0.1831254E+00  0.1905280E+01  0.6011667E-01 -0.1729766E+00
 -0.1475240E+02  0.7885330E+01 -0.1027320E+00  0.1855514E+00  0.1905208E+01  0.6090041E-01 -0.1752726E+00
 -0.1545430E+02  0.6401370E+01 -0.1027320E+00  0.1861303E+00  0.1906125E+01  0.6125177E-01 -0.1757633E+00
 -0.1600730E+02  0.4855770E+01 -0.1027320E+00  0.1843032E+00  0.1908891E+01  0.6113151E-01 -0.1738695E+00
 -0.1640620E+02  0.3263390E+01 -0.1027320E+00  0.1822490E+00  0.1910947E+01  0.6080361E-01 -0.1718069E+00
 -0.1664710E+02  0.1639590E+01 -0.1027320E+00  0.1804384E+00  0.1911606E+01  0.6031157E-01 -0.1700604E+00
 -0.1672760E+02 -0.1462370E-05 -0.1027320E+00  0.1791183E+00  0.1910495E+01  0.5968276E-01 -0.1688826E+00
 -0.1664710E+02 -0.1639590E+01 -0.1027320E+00  0.1784775E+00  0.1906896E+01  0.5886313E-01 -0.1684914E+00
 -0.1640620E+02 -0.3263400E+01 -0.1027320E+00  0.1784443E+00  0.1900585E+01  0.5778794E-01 -0.1688281E+00
 -0.1600730E+02 -0.4855770E+01 -0.1027320E+00  0.1786561E+00  0.1892236E+01  0.5644340E-01 -0.1695056E+00
 -0.1545430E+02 -0.6401380E+01 -0.1027320E+00  0.1785717E+00  0.1882844E+01  0.5482298E-01 -0.1699479E+00
 -0.1475240E+02 -0.7885340E+01 -0.1027320E+00  0.1759778E+00  0.1876112E+01  0.5289796E-01 -0.1678392E+00
 -0.1390850E+02 -0.9293360E+01 -0.1027320E+00  0.1713508E+00  0.1871368E+01  0.5073120E-01 -0.1636687E+00
 -0.1293060E+02 -0.1061190E+02 -0.1027320E+00  0.1667384E+00  0.1865186E+01  0.4838008E-01 -0.1595652E+00
 -0.1182820E+02 -0.1182820E+02 -0.1027320E+00  0.1620697E+00  0.1857588E+01  0.4584573E-01 -0.1554502E+00
 -0.1061190E+02 -0.1293060E+02 -0.1027320E+00  0.1560958E+00  0.1850571E+01  0.4310409E-01 -0.1500265E+00
 -0.9293350E+01 -0.1390850E+02 -0.1027320E+00  0.1479549E+00  0.1845135E+01  0.4008256E-01 -0.1424221E+00
 -0.7885340E+01 -0.1475240E+02 -0.1027320E+00  0.1387382E+00  0.1839802E+01  0.3687283E-01 -0.1337486E+00
 -0.6401370E+01 -0.1545430E+02 -0.1027320E+00  0.1237088E+00  0.1844577E+01  0.3344759E-01 -0.1191013E+00
 -0.4855760E+01 -0.1600730E+02 -0.1027320E+00  0.1010017E+00  0.1869642E+01  0.2973660E-01 -0.9652499E-01
 -0.3263390E+01 -0.1640620E+02 -0.1027320E+00  0.6345794E-01  0.1986412E+01  0.2562137E-01 -0.5805562E-01
 -0.1639590E+01 -0.1664710E+02 -0.1027320E+00  0.2139917E-01 -0.3071579E+01  0.2134674E-01  0.1497001E-02
  0.1994750E-06 -0.1672760E+02 -0.1027320E+00  0.6289046E-01 -0.1852746E+01  0.1749795E-01  0.6040722E-01
  0.1639600E+01 -0.1664710E+02 -0.1027320E+00  0.1160378E+00 -0.1692273E+01  0.1406120E-01  0.1151827E+00
  0.3263390E+01 -0.1640620E+02 -0.1027320E+00  0.1646608E+00 -0.1634775E+01  0.1052758E-01  0.1643239E+00
  0.4855770E+01 -0.1600730E+02 -0.1027320E+00  0.1938600E+00 -0.1603547E+01  0.6347999E-02  0.1937560E+00
  0.6401380E+01 -0.1545430E+02 -0.1027320E+00  0.2104882E+00 -0.1579967E+01  0.1930199E-02  0.2104794E+00
  0.7885340E+01 -0.1475240E+02 -0.1027320E+00  0.2208844E+00 -0.1560180E+01 -0.2345017E-02  0.2208720E+00
  0.9293360E+01 -0.1390850E+02 -0.1027320E+00  0.2263768E+00 -0.1542473E+01 -0.6410868E-02  0.2262860E+00
  0.1061190E+02 -0.1293060E+02 -0.1027320E+00  0.2312722E+00 -0.1526899E+01 -0.1014902E-01  0.2310494E+00
  0.1182820E+02 -0.1182820E+02 -0.1027320E+00  0.2347075E+00 -0.1512578E+01 -0.1365656E-01  0.2343099E+00
  0.1293060E+02 -0.1061190E+02 -0.1027320E+00  0.2370929E+00 -0.1499836E+01 -0.1681009E-01  0.2364963E+00
  0.1390850E+02 -0.9293360E+01 -0.1027320E+00  0.2395179E+00 -0.1488928E+01 -0.1958714E-01  0.2387156E+00
