 VARIABLES="X" "Y" "Z" "abs(eta) (m)" "angle(phi) (rad)" "PRE1" "PRE2"
ZONE N=   3200 ,E =    3136 ,F=FEPOINT,ET=QUADRILATERAL
  0.1530690E+02  0.0000000E+00  0.0000000E+00  0.2276960E+00 -0.1370798E+01 -0.4523575E-01  0.2231573E+00
  0.1523320E+02  0.1500340E+01  0.0000000E+00  0.2295704E+00 -0.1376509E+01 -0.4432260E-01  0.2252511E+00
  0.1501280E+02  0.2986230E+01  0.0000000E+00  0.2309813E+00 -0.1384299E+01 -0.4282814E-01  0.2269761E+00
  0.1464780E+02  0.4443360E+01  0.0000000E+00  0.2321123E+00 -0.1394372E+01 -0.4073812E-01  0.2285094E+00
  0.1414170E+02  0.5857700E+01  0.0000000E+00  0.2337575E+00 -0.1407054E+01 -0.3810515E-01  0.2306308E+00
  0.1349950E+02  0.7215620E+01  0.0000000E+00  0.2362837E+00 -0.1422701E+01 -0.3486480E-01  0.2336973E+00
  0.1272720E+02  0.8504060E+01  0.0000000E+00  0.2382190E+00 -0.1440296E+01 -0.3099952E-01  0.2361934E+00
  0.1183240E+02  0.9710600E+01  0.0000000E+00  0.2385114E+00 -0.1459062E+01 -0.2659447E-01  0.2370241E+00
  0.1082360E+02  0.1082360E+02  0.0000000E+00  0.2391071E+00 -0.1480321E+01 -0.2160377E-01  0.2381292E+00
  0.9710590E+01  0.1183240E+02  0.0000000E+00  0.2401202E+00 -0.1504084E+01 -0.1600706E-01  0.2395861E+00
  0.8504060E+01  0.1272720E+02  0.0000000E+00  0.2393919E+00 -0.1530089E+01 -0.9742309E-02  0.2391936E+00
  0.7215620E+01  0.1349950E+02  0.0000000E+00  0.2397314E+00 -0.1560286E+01 -0.2519582E-02  0.2397181E+00
  0.5857700E+01  0.1414170E+02  0.0000000E+00  0.2398740E+00 -0.1594775E+01  0.5751421E-02  0.2398051E+00
  0.4443360E+01  0.1464780E+02  0.0000000E+00  0.2379865E+00 -0.1634870E+01  0.1523834E-01  0.2374981E+00
  0.2986230E+01  0.1501280E+02  0.0000000E+00  0.2350319E+00 -0.1689299E+01  0.2778688E-01  0.2333836E+00
  0.1500340E+01  0.1523320E+02  0.0000000E+00  0.2006659E+00 -0.1781503E+01  0.4196942E-01  0.1962278E+00
 -0.6690860E-06  0.1530690E+02  0.0000000E+00  0.1612014E+00 -0.1855203E+01  0.4523111E-01  0.1547257E+00
 -0.1500340E+01  0.1523320E+02  0.0000000E+00  0.1050452E+00 -0.1981463E+01  0.4193620E-01  0.9631123E-01
 -0.2986230E+01  0.1501280E+02  0.0000000E+00  0.3146132E-01  0.2550308E+01  0.2611998E-01 -0.1753743E-01
 -0.4443360E+01  0.1464780E+02  0.0000000E+00  0.5895505E-01  0.2017483E+01  0.2546739E-01 -0.5317057E-01
 -0.5857700E+01  0.1414170E+02  0.0000000E+00  0.7736740E-01  0.1939708E+01  0.2789871E-01 -0.7216216E-01
 -0.7215620E+01  0.1349950E+02  0.0000000E+00  0.9026399E-01  0.1922342E+01  0.3108237E-01 -0.8474358E-01
 -0.8504060E+01  0.1272720E+02  0.0000000E+00  0.9999180E-01  0.1926236E+01  0.3479743E-01 -0.9374166E-01
 -0.9710590E+01  0.1183240E+02  0.0000000E+00  0.1094193E+00  0.1928912E+01  0.3835255E-01 -0.1024776E+00
 -0.1082360E+02  0.1082360E+02  0.0000000E+00  0.1158067E+00  0.1943432E+01  0.4216193E-01 -0.1078590E+00
 -0.1183240E+02  0.9710590E+01  0.0000000E+00  0.1223775E+00  0.1953995E+01  0.4575561E-01 -0.1135019E+00
 -0.1272720E+02  0.8504060E+01  0.0000000E+00  0.1285619E+00  0.1963909E+01  0.4924756E-01 -0.1187553E+00
 -0.1349950E+02  0.7215620E+01  0.0000000E+00  0.1322314E+00  0.1982005E+01  0.5285525E-01 -0.1212083E+00
 -0.1414170E+02  0.5857690E+01  0.0000000E+00  0.1348606E+00  0.2001281E+01  0.5627891E-01 -0.1225564E+00
 -0.1464780E+02  0.4443360E+01  0.0000000E+00  0.1382681E+00  0.2014662E+01  0.5937703E-01 -0.1248697E+00
 -0.1501280E+02  0.2986230E+01  0.0000000E+00  0.1424119E+00  0.2022190E+01  0.6212286E-01 -0.1281479E+00
 -0.1523320E+02  0.1500340E+01  0.0000000E+00  0.1462200E+00  0.2029040E+01  0.6468391E-01 -0.1311346E+00
 -0.1530690E+02 -0.1338170E-05  0.0000000E+00  0.1495363E+00  0.2035983E+01  0.6708043E-01 -0.1336462E+00
 -0.1523320E+02 -0.1500340E+01  0.0000000E+00  0.1523625E+00  0.2042912E+01  0.6929012E-01 -0.1356953E+00
 -0.1501280E+02 -0.2986230E+01  0.0000000E+00  0.1547937E+00  0.2049583E+01  0.7131382E-01 -0.1373879E+00
 -0.1464780E+02 -0.4443360E+01  0.0000000E+00  0.1570071E+00  0.2055766E+01  0.7319386E-01 -0.1389025E+00
 -0.1414170E+02 -0.5857700E+01  0.0000000E+00  0.1597540E+00  0.2060022E+01  0.7507518E-01 -0.1410144E+00
 -0.1349950E+02 -0.7215620E+01  0.0000000E+00  0.1633984E+00  0.2061905E+01  0.7705926E-01 -0.1440864E+00
 -0.1272720E+02 -0.8504060E+01  0.0000000E+00  0.1664387E+00  0.2063952E+01  0.7879341E-01 -0.1466064E+00
 -0.1183240E+02 -0.9710600E+01  0.0000000E+00  0.1677415E+00  0.2067385E+01  0.7991697E-01 -0.1474805E+00
 -0.1082360E+02 -0.1082360E+02  0.0000000E+00  0.1692633E+00  0.2069585E+01  0.8096921E-01 -0.1486407E+00
 -0.9710600E+01 -0.1183240E+02  0.0000000E+00  0.1711500E+00  0.2071114E+01  0.8210135E-01 -0.1501722E+00
 -0.8504050E+01 -0.1272720E+02  0.0000000E+00  0.1712412E+00  0.2075430E+01  0.8279281E-01 -0.1498962E+00
 -0.7215620E+01 -0.1349950E+02  0.0000000E+00  0.1724435E+00  0.2079858E+01  0.8404171E-01 -0.1505780E+00
 -0.5857690E+01 -0.1414170E+02  0.0000000E+00  0.1734142E+00  0.2086186E+01  0.8547138E-01 -0.1508878E+00
 -0.4443360E+01 -0.1464780E+02  0.0000000E+00  0.1723381E+00  0.2098612E+01  0.8679766E-01 -0.1488845E+00
 -0.2986230E+01 -0.1501280E+02  0.0000000E+00  0.1703956E+00  0.2120485E+01  0.8901833E-01 -0.1452942E+00
 -0.1500340E+01 -0.1523320E+02  0.0000000E+00  0.1357111E+00  0.2206235E+01  0.8054867E-01 -0.1092218E+00
  0.1825330E-06 -0.1530690E+02  0.0000000E+00  0.9450591E-01  0.2338348E+01  0.6562260E-01 -0.6800766E-01
  0.1500340E+01 -0.1523320E+02  0.0000000E+00  0.4437588E-01  0.2927113E+01  0.4335910E-01 -0.9444937E-02
  0.2986230E+01 -0.1501280E+02  0.0000000E+00  0.1053414E+00 -0.1585937E+01  0.1594834E-02  0.1053294E+00
  0.4443360E+01 -0.1464780E+02  0.0000000E+00  0.1418657E+00 -0.1490813E+01 -0.1133486E-01  0.1414121E+00
  0.5857700E+01 -0.1414170E+02  0.0000000E+00  0.1617430E+00 -0.1454522E+01 -0.1876416E-01  0.1606509E+00
  0.7215620E+01 -0.1349950E+02  0.0000000E+00  0.1751011E+00 -0.1431815E+01 -0.2425745E-01  0.1734128E+00
  0.8504060E+01 -0.1272720E+02  0.0000000E+00  0.1847535E+00 -0.1415861E+01 -0.2851054E-01  0.1825404E+00
  0.9710600E+01 -0.1183240E+02  0.0000000E+00  0.1941656E+00 -0.1401388E+01 -0.3273625E-01  0.1913860E+00
  0.1082360E+02 -0.1082360E+02  0.0000000E+00  0.2000763E+00 -0.1391020E+01 -0.3577545E-01  0.1968518E+00
  0.1183240E+02 -0.9710590E+01  0.0000000E+00  0.2062381E+00 -0.1381965E+01 -0.3871315E-01  0.2025721E+00
  0.1272720E+02 -0.8504060E+01  0.0000000E+00  0.2119586E+00 -0.1374657E+01 -0.4130731E-01  0.2078945E+00
  0.1349950E+02 -0.7215620E+01  0.0000000E+00  0.2147106E+00 -0.1370155E+01 -0.4279144E-01  0.2104032E+00
  0.1414170E+02 -0.5857700E+01  0.0000000E+00  0.2162715E+00 -0.1367242E+01 -0.4371972E-01  0.2118064E+00
  0.1464780E+02 -0.4443350E+01  0.0000000E+00  0.2187745E+00 -0.1365597E+01 -0.4457811E-01  0.2141847E+00
  0.1501280E+02 -0.2986230E+01  0.0000000E+00  0.2222080E+00 -0.1365394E+01 -0.4532173E-01  0.2175370E+00
  0.1523320E+02 -0.1500330E+01  0.0000000E+00  0.2252476E+00 -0.1367088E+01 -0.4556815E-01  0.2205902E+00
  0.1530690E+02  0.0000000E+00 -0.2568960E-01  0.2275008E+00 -0.1370819E+01 -0.4519244E-01  0.2229669E+00
  0.1523320E+02  0.1500340E+01 -0.2568960E-01  0.2293739E+00 -0.1376526E+01 -0.4428081E-01  0.2250590E+00
  0.1501280E+02  0.2986230E+01 -0.2568960E-01  0.2307841E+00 -0.1384315E+01 -0.4278782E-01  0.2267829E+00
  0.1464780E+02  0.4443360E+01 -0.2568960E-01  0.2319147E+00 -0.1394387E+01 -0.4070000E-01  0.2283154E+00
  0.1414170E+02  0.5857700E+01 -0.2568960E-01  0.2335544E+00 -0.1407072E+01 -0.3806793E-01  0.2304311E+00
  0.1349950E+02  0.7215620E+01 -0.2568960E-01  0.2360679E+00 -0.1422707E+01 -0.3483153E-01  0.2334841E+00
  0.1272720E+02  0.8504060E+01 -0.2568960E-01  0.2379976E+00 -0.1440303E+01 -0.3096898E-01  0.2359741E+00
  0.1183240E+02  0.9710600E+01 -0.2568960E-01  0.2382982E+00 -0.1459072E+01 -0.2656833E-01  0.2368125E+00
  0.1082360E+02  0.1082360E+02 -0.2568960E-01  0.2388967E+00 -0.1480337E+01 -0.2158105E-01  0.2379199E+00
  0.9710590E+01  0.1183240E+02 -0.2568960E-01  0.2399028E+00 -0.1504099E+01 -0.1598895E-01  0.2393694E+00
  0.8504060E+01  0.1272720E+02 -0.2568960E-01  0.2391885E+00 -0.1530109E+01 -0.9729151E-02  0.2389906E+00
  0.7215620E+01  0.1349950E+02 -0.2568960E-01  0.2395273E+00 -0.1560305E+01 -0.2512862E-02  0.2395141E+00
  0.5857700E+01  0.1414170E+02 -0.2568960E-01  0.2396625E+00 -0.1594791E+01  0.5750035E-02  0.2395935E+00
  0.4443360E+01  0.1464780E+02 -0.2568960E-01  0.2377935E+00 -0.1634901E+01  0.1523319E-01  0.2373051E+00
  0.2986230E+01  0.1501280E+02 -0.2568960E-01  0.2348468E+00 -0.1689335E+01  0.2777334E-01  0.2331988E+00
  0.1500340E+01  0.1523320E+02 -0.2568960E-01  0.2005327E+00 -0.1781562E+01  0.4195311E-01  0.1960952E+00
 -0.6690860E-06  0.1530690E+02 -0.2568960E-01  0.1610736E+00 -0.1855243E+01  0.4520150E-01  0.1546012E+00
 -0.1500340E+01  0.1523320E+02 -0.2568960E-01  0.1049859E+00 -0.1981499E+01  0.4191597E-01  0.9625534E-01
 -0.2986230E+01  0.1501280E+02 -0.2568960E-01  0.3144313E-01  0.2550182E+01  0.2610267E-01 -0.1753056E-01
 -0.4443360E+01  0.1464780E+02 -0.2568960E-01  0.5891868E-01  0.2017409E+01  0.2544775E-01 -0.5313965E-01
 -0.5857700E+01  0.1414170E+02 -0.2568960E-01  0.7730597E-01  0.1939688E+01  0.2787515E-01 -0.7210540E-01
 -0.7215620E+01  0.1349950E+02 -0.2568960E-01  0.9019523E-01  0.1922322E+01  0.3105693E-01 -0.8467967E-01
 -0.8504060E+01  0.1272720E+02 -0.2568960E-01  0.9991720E-01  0.1926194E+01  0.3476751E-01 -0.9367320E-01
 -0.9710590E+01  0.1183240E+02 -0.2568960E-01  0.1093208E+00  0.1928931E+01  0.3831993E-01 -0.1023847E+00
 -0.1082360E+02  0.1082360E+02 -0.2568960E-01  0.1157107E+00  0.1943420E+01  0.4212562E-01 -0.1077701E+00
 -0.1183240E+02  0.9710590E+01 -0.2568960E-01  0.1222709E+00  0.1953995E+01  0.4571569E-01 -0.1134030E+00
 -0.1272720E+02  0.8504060E+01 -0.2568960E-01  0.1284387E+00  0.1963949E+01  0.4920523E-01 -0.1186395E+00
 -0.1349950E+02  0.7215620E+01 -0.2568960E-01  0.1321105E+00  0.1982021E+01  0.5280878E-01 -0.1210967E+00
 -0.1414170E+02  0.5857690E+01 -0.2568960E-01  0.1347488E+00  0.2001249E+01  0.5622824E-01 -0.1224566E+00
 -0.1464780E+02  0.4443360E+01 -0.2568960E-01  0.1381584E+00  0.2014611E+01  0.5932351E-01 -0.1247737E+00
 -0.1501280E+02  0.2986230E+01 -0.2568960E-01  0.1422973E+00  0.2022155E+01  0.6206845E-01 -0.1280470E+00
 -0.1523320E+02  0.1500340E+01 -0.2568960E-01  0.1460998E+00  0.2029011E+01  0.6462696E-01 -0.1310287E+00
 -0.1530690E+02 -0.1338170E-05 -0.2568960E-01  0.1494130E+00  0.2035968E+01  0.6702311E-01 -0.1335370E+00
 -0.1523320E+02 -0.1500340E+01 -0.2568960E-01  0.1522370E+00  0.2042903E+01  0.6923184E-01 -0.1355841E+00
 -0.1501280E+02 -0.2986230E+01 -0.2568960E-01  0.1546663E+00  0.2049566E+01  0.7125278E-01 -0.1372761E+00
 -0.1464780E+02 -0.4443360E+01 -0.2568960E-01  0.1568786E+00  0.2055752E+01  0.7313196E-01 -0.1387898E+00
 -0.1414170E+02 -0.5857700E+01 -0.2568960E-01  0.1596193E+00  0.2060017E+01  0.7501119E-01 -0.1408958E+00
 -0.1349950E+02 -0.7215620E+01 -0.2568960E-01  0.1632504E+00  0.2061914E+01  0.7699089E-01 -0.1439552E+00
 -0.1272720E+02 -0.8504060E+01 -0.2568960E-01  0.1662834E+00  0.2063972E+01  0.7872283E-01 -0.1464680E+00
 -0.1183240E+02 -0.9710600E+01 -0.2568960E-01  0.1675925E+00  0.2067385E+01  0.7984596E-01 -0.1473494E+00
 -0.1082360E+02 -0.1082360E+02 -0.2568960E-01  0.1691172E+00  0.2069587E+01  0.8089955E-01 -0.1485122E+00
 -0.9710600E+01 -0.1183240E+02 -0.2568960E-01  0.1709959E+00  0.2071114E+01  0.8202749E-01 -0.1500369E+00
 -0.8504050E+01 -0.1272720E+02 -0.2568960E-01  0.1711016E+00  0.2075427E+01  0.8272492E-01 -0.1497743E+00
 -0.7215620E+01 -0.1349950E+02 -0.2568960E-01  0.1723026E+00  0.2079856E+01  0.8397277E-01 -0.1504552E+00
 -0.5857690E+01 -0.1414170E+02 -0.2568960E-01  0.1732655E+00  0.2086196E+01  0.8539962E-01 -0.1507576E+00
 -0.4443360E+01 -0.1464780E+02 -0.2568960E-01  0.1722088E+00  0.2098612E+01  0.8673257E-01 -0.1487727E+00
 -0.2986230E+01 -0.1501280E+02 -0.2568960E-01  0.1702724E+00  0.2120484E+01  0.8895390E-01 -0.1451892E+00
 -0.1500340E+01 -0.1523320E+02 -0.2568960E-01  0.1356413E+00  0.2206189E+01  0.8050225E-01 -0.1091693E+00
  0.1825330E-06 -0.1530690E+02 -0.2568960E-01  0.9443997E-01  0.2338307E+01  0.6557401E-01 -0.6796291E-01
  0.1500340E+01 -0.1523320E+02 -0.2568960E-01  0.4435901E-01  0.2926458E+01  0.4333643E-01 -0.9469701E-02
  0.2986230E+01 -0.1501280E+02 -0.2568960E-01  0.1052540E+00 -0.1585939E+01  0.1593776E-02  0.1052419E+00
  0.4443360E+01 -0.1464780E+02 -0.2568960E-01  0.1417530E+00 -0.1490815E+01 -0.1132546E-01  0.1412998E+00
  0.5857700E+01 -0.1414170E+02 -0.2568960E-01  0.1616044E+00 -0.1454532E+01 -0.1874655E-01  0.1605134E+00
  0.7215620E+01 -0.1349950E+02 -0.2568960E-01  0.1749546E+00 -0.1431829E+01 -0.2423487E-01  0.1732680E+00
  0.8504060E+01 -0.1272720E+02 -0.2568960E-01  0.1846024E+00 -0.1415857E+01 -0.2848784E-01  0.1823910E+00
  0.9710600E+01 -0.1183240E+02 -0.2568960E-01  0.1939885E+00 -0.1401401E+01 -0.3270377E-01  0.1912120E+00
  0.1082360E+02 -0.1082360E+02 -0.2568960E-01  0.1999036E+00 -0.1391035E+01 -0.3574172E-01  0.1966824E+00
  0.1183240E+02 -0.9710590E+01 -0.2568960E-01  0.2060547E+00 -0.1381974E+01 -0.3867688E-01  0.2023923E+00
  0.1272720E+02 -0.8504060E+01 -0.2568960E-01  0.2117580E+00 -0.1374673E+01 -0.4126491E-01  0.2076985E+00
  0.1349950E+02 -0.7215620E+01 -0.2568960E-01  0.2145131E+00 -0.1370170E+01 -0.4274878E-01  0.2102104E+00
  0.1414170E+02 -0.5857700E+01 -0.2568960E-01  0.2160874E+00 -0.1367250E+01 -0.4368078E-01  0.2116264E+00
  0.1464780E+02 -0.4443350E+01 -0.2568960E-01  0.2185931E+00 -0.1365605E+01 -0.4453943E-01  0.2140075E+00
  0.1501280E+02 -0.2986230E+01 -0.2568960E-01  0.2220215E+00 -0.1365404E+01 -0.4528157E-01  0.2173548E+00
  0.1523320E+02 -0.1500330E+01 -0.2568960E-01  0.2250555E+00 -0.1367106E+01 -0.4552539E-01  0.2204029E+00
  0.1530690E+02  0.0000000E+00 -0.1027320E+00  0.2269318E+00 -0.1370865E+01 -0.4506901E-01  0.2224114E+00
  0.1523320E+02  0.1500340E+01 -0.1027320E+00  0.2287998E+00 -0.1376583E+01 -0.4415723E-01  0.2244983E+00
  0.1501280E+02  0.2986230E+01 -0.1027320E+00  0.2302078E+00 -0.1384378E+01 -0.4266677E-01  0.2262193E+00
  0.1464780E+02  0.4443360E+01 -0.1027320E+00  0.2313379E+00 -0.1394449E+01 -0.4058466E-01  0.2277501E+00
  0.1414170E+02  0.5857700E+01 -0.1027320E+00  0.2329613E+00 -0.1407122E+01 -0.3795981E-01  0.2298478E+00
  0.1349950E+02  0.7215620E+01 -0.1027320E+00  0.2354364E+00 -0.1422737E+01 -0.3473129E-01  0.2328606E+00
  0.1272720E+02  0.8504060E+01 -0.1027320E+00  0.2373459E+00 -0.1440319E+01 -0.3088057E-01  0.2353284E+00
  0.1183240E+02  0.9710600E+01 -0.1027320E+00  0.2376708E+00 -0.1459102E+01 -0.2649126E-01  0.2361898E+00
  0.1082360E+02  0.1082360E+02 -0.1027320E+00  0.2382743E+00 -0.1480370E+01 -0.2151687E-01  0.2373008E+00
  0.9710590E+01  0.1183240E+02 -0.1027320E+00  0.2392610E+00 -0.1504131E+01 -0.1593857E-01  0.2387296E+00
  0.8504060E+01  0.1272720E+02 -0.1027320E+00  0.2385863E+00 -0.1530165E+01 -0.9691451E-02  0.2383894E+00
  0.7215620E+01  0.1349950E+02 -0.1027320E+00  0.2389070E+00 -0.1560356E+01 -0.2494200E-02  0.2388940E+00
  0.5857700E+01  0.1414170E+02 -0.1027320E+00  0.2390375E+00 -0.1594840E+01  0.5746745E-02  0.2389684E+00
  0.4443360E+01  0.1464780E+02 -0.1027320E+00  0.2372211E+00 -0.1634971E+01  0.1521326E-01  0.2367328E+00
  0.2986230E+01  0.1501280E+02 -0.1027320E+00  0.2342742E+00 -0.1689425E+01  0.2772656E-01  0.2326277E+00
  0.1500340E+01  0.1523320E+02 -0.1027320E+00  0.2001069E+00 -0.1781621E+01  0.4187569E-01  0.1956763E+00
 -0.6690860E-06  0.1530690E+02 -0.1027320E+00  0.1606846E+00 -0.1855350E+01  0.4510878E-01  0.1542230E+00
 -0.1500340E+01  0.1523320E+02 -0.1027320E+00  0.1046582E+00 -0.1981839E+01  0.4181782E-01  0.9594062E-01
 -0.2986230E+01  0.1501280E+02 -0.1027320E+00  0.3137989E-01  0.2550128E+01  0.2604922E-01 -0.1749672E-01
 -0.4443360E+01  0.1464780E+02 -0.1027320E+00  0.5881355E-01  0.2017112E+01  0.2538655E-01 -0.5305239E-01
 -0.5857700E+01  0.1414170E+02 -0.1027320E+00  0.7712546E-01  0.1939651E+01  0.2780741E-01 -0.7193806E-01
 -0.7215620E+01  0.1349950E+02 -0.1027320E+00  0.8997337E-01  0.1922352E+01  0.3098315E-01 -0.8447041E-01
 -0.8504060E+01  0.1272720E+02 -0.1027320E+00  0.9969576E-01  0.1926037E+01  0.3467583E-01 -0.9347102E-01
 -0.9710590E+01  0.1183240E+02 -0.1027320E+00  0.1090306E+00  0.1928984E+01  0.3822370E-01 -0.1021109E+00
 -0.1082360E+02  0.1082360E+02 -0.1027320E+00  0.1154291E+00  0.1943329E+01  0.4201332E-01 -0.1075116E+00
 -0.1183240E+02  0.9710590E+01 -0.1027320E+00  0.1219592E+00  0.1953971E+01  0.4559644E-01 -0.1131150E+00
 -0.1272720E+02  0.8504060E+01 -0.1027320E+00  0.1280789E+00  0.1964039E+01  0.4907800E-01 -0.1183028E+00
 -0.1349950E+02  0.7215620E+01 -0.1027320E+00  0.1317586E+00  0.1982032E+01  0.5266947E-01 -0.1207736E+00
 -0.1414170E+02  0.5857690E+01 -0.1027320E+00  0.1344269E+00  0.2001113E+01  0.5607737E-01 -0.1221717E+00
 -0.1464780E+02  0.4443360E+01 -0.1027320E+00  0.1378422E+00  0.2014421E+01  0.5916411E-01 -0.1244993E+00
 -0.1501280E+02  0.2986230E+01 -0.1027320E+00  0.1419662E+00  0.2021998E+01  0.6190398E-01 -0.1277588E+00
 -0.1523320E+02  0.1500340E+01 -0.1027320E+00  0.1457538E+00  0.2028893E+01  0.6445839E-01 -0.1307260E+00
 -0.1530690E+02 -0.1338170E-05 -0.1027320E+00  0.1490565E+00  0.2035876E+01  0.6685096E-01 -0.1332246E+00
 -0.1523320E+02 -0.1500340E+01 -0.1027320E+00  0.1518737E+00  0.2042815E+01  0.6905467E-01 -0.1352667E+00
 -0.1501280E+02 -0.2986230E+01 -0.1027320E+00  0.1542995E+00  0.2049485E+01  0.7107274E-01 -0.1369562E+00
 -0.1464780E+02 -0.4443360E+01 -0.1027320E+00  0.1565072E+00  0.2055668E+01  0.7294719E-01 -0.1384674E+00
 -0.1414170E+02 -0.5857700E+01 -0.1027320E+00  0.1592291E+00  0.2059957E+01  0.7481939E-01 -0.1405559E+00
 -0.1349950E+02 -0.7215620E+01 -0.1027320E+00  0.1628186E+00  0.2061907E+01  0.7678609E-01 -0.1435750E+00
 -0.1272720E+02 -0.8504060E+01 -0.1027320E+00  0.1658276E+00  0.2063979E+01  0.7850804E-01 -0.1460660E+00
 -0.1183240E+02 -0.9710600E+01 -0.1027320E+00  0.1671598E+00  0.2067366E+01  0.7963695E-01 -0.1469706E+00
 -0.1082360E+02 -0.1082360E+02 -0.1027320E+00  0.1686867E+00  0.2069557E+01  0.8068924E-01 -0.1481366E+00
 -0.9710600E+01 -0.1183240E+02 -0.1027320E+00  0.1705445E+00  0.2071126E+01  0.8181269E-01 -0.1496399E+00
 -0.8504050E+01 -0.1272720E+02 -0.1027320E+00  0.1706893E+00  0.2075396E+01  0.8252098E-01 -0.1494159E+00
 -0.7215620E+01 -0.1349950E+02 -0.1027320E+00  0.1718698E+00  0.2079849E+01  0.8376072E-01 -0.1500778E+00
 -0.5857690E+01 -0.1414170E+02 -0.1027320E+00  0.1728260E+00  0.2086207E+01  0.8518463E-01 -0.1503742E+00
 -0.4443360E+01 -0.1464780E+02 -0.1027320E+00  0.1718224E+00  0.2098576E+01  0.8653258E-01 -0.1484421E+00
 -0.2986230E+01 -0.1501280E+02 -0.1027320E+00  0.1698847E+00  0.2120473E+01  0.8874973E-01 -0.1448596E+00
 -0.1500340E+01 -0.1523320E+02 -0.1027320E+00  0.1353978E+00  0.2206007E+01  0.8033793E-01 -0.1089880E+00
  0.1825330E-06 -0.1530690E+02 -0.1027320E+00  0.9423611E-01  0.2338219E+01  0.6542651E-01 -0.6782196E-01
  0.1500340E+01 -0.1523320E+02 -0.1027320E+00  0.4422493E-01  0.2927582E+01  0.4321602E-01 -0.9392548E-02
  0.2986230E+01 -0.1501280E+02 -0.1027320E+00  0.1049809E+00 -0.1586031E+01  0.1599340E-02  0.1049688E+00
  0.4443360E+01 -0.1464780E+02 -0.1027320E+00  0.1414251E+00 -0.1490803E+01 -0.1130101E-01  0.1409729E+00
  0.5857700E+01 -0.1414170E+02 -0.1027320E+00  0.1611924E+00 -0.1454569E+01 -0.1869279E-01  0.1601048E+00
  0.7215620E+01 -0.1349950E+02 -0.1027320E+00  0.1744985E+00 -0.1431873E+01 -0.2416407E-01  0.1728173E+00
  0.8504060E+01 -0.1272720E+02 -0.1027320E+00  0.1841532E+00 -0.1415855E+01 -0.2841887E-01  0.1819472E+00
  0.9710600E+01 -0.1183240E+02 -0.1027320E+00  0.1934639E+00 -0.1401444E+01 -0.3260720E-01  0.1906962E+00
  0.1082360E+02 -0.1082360E+02 -0.1027320E+00  0.1993943E+00 -0.1391050E+01 -0.3564762E-01  0.1961819E+00
  0.1183240E+02 -0.9710590E+01 -0.1027320E+00  0.2055133E+00 -0.1381999E+01 -0.3857021E-01  0.2018614E+00
  0.1272720E+02 -0.8504060E+01 -0.1027320E+00  0.2111661E+00 -0.1374712E+01 -0.4114153E-01  0.2071195E+00
