 VARIABLES="X" "Y" "Z" "abs(eta) (m)" "angle(phi) (rad)" "PRE1" "PRE2"
ZONE N=   3200 ,E =    3136 ,F=FEPOINT,ET=QUADRILATERAL
  0.1672760E+02  0.0000000E+00  0.0000000E+00  0.5477975E+00  0.2793499E+01  0.5149432E+00 -0.1868570E+00
  0.1664710E+02  0.1639590E+01  0.0000000E+00  0.5387622E+00  0.2787595E+01  0.5053559E+00 -0.1867622E+00
  0.1640620E+02  0.3263390E+01  0.0000000E+00  0.5270107E+00  0.2778854E+01  0.4927173E+00 -0.1870023E+00
  0.1600730E+02  0.4855770E+01  0.0000000E+00  0.5127391E+00  0.2767611E+01  0.4772986E+00 -0.1873162E+00
  0.1545430E+02  0.6401380E+01  0.0000000E+00  0.4961315E+00  0.2754336E+01  0.4593922E+00 -0.1873640E+00
  0.1475240E+02  0.7885340E+01  0.0000000E+00  0.4781385E+00  0.2735286E+01  0.4392117E+00 -0.1889696E+00
  0.1390850E+02  0.9293360E+01  0.0000000E+00  0.4585779E+00  0.2710634E+01  0.4166482E+00 -0.1915671E+00
  0.1293060E+02  0.1061190E+02  0.0000000E+00  0.4373609E+00  0.2680546E+01  0.3916948E+00 -0.1945758E+00
  0.1182820E+02  0.1182820E+02  0.0000000E+00  0.4129533E+00  0.2649244E+01  0.3639049E+00 -0.1952016E+00
  0.1061190E+02  0.1293060E+02  0.0000000E+00  0.3840629E+00  0.2620231E+01  0.3330369E+00 -0.1912870E+00
  0.9293360E+01  0.1390850E+02  0.0000000E+00  0.3524519E+00  0.2587588E+01  0.2997337E+00 -0.1854239E+00
  0.7885330E+01  0.1475240E+02  0.0000000E+00  0.3130645E+00  0.2566544E+01  0.2627130E+00 -0.1702681E+00
  0.6401380E+01  0.1545430E+02  0.0000000E+00  0.2671028E+00  0.2555223E+01  0.2224846E+00 -0.1477990E+00
  0.4855770E+01  0.1600730E+02  0.0000000E+00  0.2082623E+00  0.2595015E+01  0.1779202E+00 -0.1082478E+00
  0.3263390E+01  0.1640620E+02  0.0000000E+00  0.1311841E+00  0.2869834E+01  0.1263697E+00 -0.3521325E-01
  0.1639590E+01  0.1664710E+02  0.0000000E+00  0.9988829E-01 -0.2313664E+01  0.6756470E-01  0.7357092E-01
 -0.7311870E-06  0.1672760E+02  0.0000000E+00  0.1758129E+00 -0.1598886E+01  0.4937933E-02  0.1757435E+00
 -0.1639590E+01  0.1664710E+02  0.0000000E+00  0.2717368E+00 -0.1336966E+01 -0.6296276E-01  0.2643418E+00
 -0.3263390E+01  0.1640620E+02  0.0000000E+00  0.3646694E+00 -0.1188541E+01 -0.1360269E+00  0.3383496E+00
 -0.4855770E+01  0.1600730E+02  0.0000000E+00  0.4329455E+00 -0.1086639E+01 -0.2015199E+00  0.3831861E+00
 -0.6401380E+01  0.1545430E+02  0.0000000E+00  0.4788283E+00 -0.1004543E+01 -0.2568789E+00  0.4040912E+00
 -0.7885340E+01  0.1475240E+02  0.0000000E+00  0.5143865E+00 -0.9351719E+00 -0.3053811E+00  0.4139274E+00
 -0.9293360E+01  0.1390850E+02  0.0000000E+00  0.5455571E+00 -0.8768128E+00 -0.3489408E+00  0.4193721E+00
 -0.1061190E+02  0.1293060E+02  0.0000000E+00  0.5695825E+00 -0.8232798E+00 -0.3872133E+00  0.4177200E+00
 -0.1182820E+02  0.1182820E+02  0.0000000E+00  0.5914111E+00 -0.7767484E+00 -0.4217923E+00  0.4145579E+00
 -0.1293060E+02  0.1061190E+02  0.0000000E+00  0.6087749E+00 -0.7338268E+00 -0.4520866E+00  0.4077065E+00
 -0.1390850E+02  0.9293360E+01  0.0000000E+00  0.6236895E+00 -0.6968163E+00 -0.4783008E+00  0.4002710E+00
 -0.1475240E+02  0.7885330E+01  0.0000000E+00  0.6372691E+00 -0.6659182E+00 -0.5011165E+00  0.3936930E+00
 -0.1545430E+02  0.6401370E+01  0.0000000E+00  0.6493732E+00 -0.6408519E+00 -0.5205289E+00  0.3882462E+00
 -0.1600730E+02  0.4855770E+01  0.0000000E+00  0.6601347E+00 -0.6214822E+00 -0.5367003E+00  0.3843574E+00
 -0.1640620E+02  0.3263390E+01  0.0000000E+00  0.6683248E+00 -0.6062298E+00 -0.5492306E+00  0.3807935E+00
 -0.1664710E+02  0.1639590E+01  0.0000000E+00  0.6737758E+00 -0.5947648E+00 -0.5580752E+00  0.3775260E+00
 -0.1672760E+02 -0.1462370E-05  0.0000000E+00  0.6763011E+00 -0.5870222E+00 -0.5630841E+00  0.3745925E+00
 -0.1664710E+02 -0.1639590E+01  0.0000000E+00  0.6763931E+00 -0.5838484E+00 -0.5643468E+00  0.3728541E+00
 -0.1640620E+02 -0.3263400E+01  0.0000000E+00  0.6734916E+00 -0.5844800E+00 -0.5616914E+00  0.3716096E+00
 -0.1600730E+02 -0.4855770E+01  0.0000000E+00  0.6674502E+00 -0.5886467E+00 -0.5551136E+00  0.3705924E+00
 -0.1545430E+02 -0.6401380E+01  0.0000000E+00  0.6580139E+00 -0.5959963E+00 -0.5445656E+00  0.3693653E+00
 -0.1475240E+02 -0.7885340E+01  0.0000000E+00  0.6473617E+00 -0.6081945E+00 -0.5312774E+00  0.3698938E+00
 -0.1390850E+02 -0.9293360E+01  0.0000000E+00  0.6350815E+00 -0.6250480E+00 -0.5150098E+00  0.3716092E+00
 -0.1293060E+02 -0.1061190E+02  0.0000000E+00  0.6210651E+00 -0.6462323E+00 -0.4958324E+00  0.3739946E+00
 -0.1182820E+02 -0.1182820E+02  0.0000000E+00  0.6024109E+00 -0.6703744E+00 -0.4720426E+00  0.3742655E+00
 -0.1061190E+02 -0.1293060E+02  0.0000000E+00  0.5766950E+00 -0.6967365E+00 -0.4422908E+00  0.3700756E+00
 -0.9293350E+01 -0.1390850E+02  0.0000000E+00  0.5475427E+00 -0.7273085E+00 -0.4089961E+00  0.3640401E+00
 -0.7885340E+01 -0.1475240E+02  0.0000000E+00  0.5063198E+00 -0.7597567E+00 -0.3670837E+00  0.3487253E+00
 -0.6401370E+01 -0.1545430E+02  0.0000000E+00  0.4560821E+00 -0.7963985E+00 -0.3189318E+00  0.3260268E+00
 -0.4855760E+01 -0.1600730E+02  0.0000000E+00  0.3848021E+00 -0.8380058E+00 -0.2574120E+00  0.2860275E+00
 -0.3263390E+01 -0.1640620E+02  0.0000000E+00  0.2719780E+00 -0.8948717E+00 -0.1701546E+00  0.2121778E+00
 -0.1639590E+01 -0.1664710E+02  0.0000000E+00  0.1160433E+00 -0.1086607E+01 -0.5401712E-01  0.1027044E+00
  0.1994750E-06 -0.1672760E+02  0.0000000E+00  0.6226300E-01 -0.3114325E+01  0.6223986E-01  0.1697563E-02
  0.1639600E+01 -0.1664710E+02  0.0000000E+00  0.1909469E+00  0.2688033E+01  0.1716408E+00 -0.8366687E-01
  0.3263390E+01 -0.1640620E+02  0.0000000E+00  0.3095948E+00  0.2625105E+01  0.2692110E+00 -0.1528868E+00
  0.4855770E+01 -0.1600730E+02  0.0000000E+00  0.3893003E+00  0.2620821E+01  0.3376930E+00 -0.1936961E+00
  0.6401380E+01 -0.1545430E+02  0.0000000E+00  0.4379684E+00  0.2637000E+01  0.3833850E+00 -0.2117362E+00
  0.7885340E+01 -0.1475240E+02  0.0000000E+00  0.4719872E+00  0.2657657E+01  0.4177893E+00 -0.2195999E+00
  0.9293360E+01 -0.1390850E+02  0.0000000E+00  0.4999197E+00  0.2677676E+01  0.4470816E+00 -0.2236913E+00
  0.1061190E+02 -0.1293060E+02  0.0000000E+00  0.5183533E+00  0.2700584E+01  0.4687580E+00 -0.2212602E+00
  0.1182820E+02 -0.1182820E+02  0.0000000E+00  0.5339635E+00  0.2721545E+01  0.4875458E+00 -0.2177526E+00
  0.1293060E+02 -0.1061190E+02  0.0000000E+00  0.5435996E+00  0.2743079E+01  0.5010026E+00 -0.2109430E+00
  0.1390850E+02 -0.9293360E+01  0.0000000E+00  0.5498607E+00  0.2761224E+01  0.5105610E+00 -0.2041426E+00
  0.1475240E+02 -0.7885330E+01  0.0000000E+00  0.5546162E+00  0.2775430E+01  0.5178497E+00 -0.1985720E+00
  0.1545430E+02 -0.6401380E+01  0.0000000E+00  0.5576749E+00  0.2785699E+01  0.5227284E+00 -0.1943098E+00
  0.1600730E+02 -0.4855760E+01  0.0000000E+00  0.5593753E+00  0.2791674E+01  0.5254774E+00 -0.1917660E+00
  0.1640620E+02 -0.3263390E+01  0.0000000E+00  0.5582718E+00  0.2794906E+01  0.5250567E+00 -0.1896917E+00
  0.1664710E+02 -0.1639590E+01  0.0000000E+00  0.5544004E+00  0.2795507E+01  0.5215288E+00 -0.1880625E+00
  0.1672760E+02  0.0000000E+00 -0.2568960E-01  0.5469295E+00  0.2793476E+01  0.5141230E+00 -0.1865729E+00
  0.1664710E+02  0.1639590E+01 -0.2568960E-01  0.5379071E+00  0.2787571E+01  0.5045494E+00 -0.1864778E+00
  0.1640620E+02  0.3263390E+01 -0.2568960E-01  0.5261779E+00  0.2778822E+01  0.4919329E+00 -0.1867224E+00
  0.1600730E+02  0.4855770E+01 -0.2568960E-01  0.5119358E+00  0.2767561E+01  0.4765415E+00 -0.1870464E+00
  0.1545430E+02  0.6401380E+01 -0.2568960E-01  0.4953608E+00  0.2754268E+01  0.4586660E+00 -0.1871039E+00
  0.1475240E+02  0.7885340E+01 -0.2568960E-01  0.4773988E+00  0.2735218E+01  0.4385192E+00 -0.1887073E+00
  0.1390850E+02  0.9293360E+01 -0.2568960E-01  0.4578637E+00  0.2710579E+01  0.4159887E+00 -0.1912919E+00
  0.1293060E+02  0.1061190E+02 -0.2568960E-01  0.4366699E+00  0.2680524E+01  0.3910717E+00 -0.1942768E+00
  0.1182820E+02  0.1182820E+02 -0.2568960E-01  0.4123009E+00  0.2649230E+01  0.3633271E+00 -0.1948986E+00
  0.1061190E+02  0.1293060E+02 -0.2568960E-01  0.3834601E+00  0.2620192E+01  0.3325069E+00 -0.1909997E+00
  0.9293360E+01  0.1390850E+02 -0.2568960E-01  0.3518924E+00  0.2587585E+01  0.2992575E+00 -0.1851303E+00
  0.7885330E+01  0.1475240E+02 -0.2568960E-01  0.3125854E+00  0.2566478E+01  0.2622998E+00 -0.1700249E+00
  0.6401380E+01  0.1545430E+02 -0.2568960E-01  0.2666884E+00  0.2555194E+01  0.2221352E+00 -0.1475760E+00
  0.4855770E+01  0.1600730E+02 -0.2568960E-01  0.2079492E+00  0.2594960E+01  0.1776468E+00 -0.1080948E+00
  0.3263390E+01  0.1640620E+02 -0.2568960E-01  0.1309970E+00  0.2869671E+01  0.1261838E+00 -0.3518352E-01
  0.1639590E+01  0.1664710E+02 -0.2568960E-01  0.9972263E-01 -0.2313915E+01  0.6747111E-01  0.7343196E-01
 -0.7311870E-06  0.1672760E+02 -0.2568960E-01  0.1755402E+00 -0.1598961E+01  0.4943316E-02  0.1754706E+00
 -0.1639590E+01  0.1664710E+02 -0.2568960E-01  0.2713219E+00 -0.1337017E+01 -0.6285317E-01  0.2639414E+00
 -0.3263390E+01  0.1640620E+02 -0.2568960E-01  0.3641156E+00 -0.1188603E+01 -0.1357991E+00  0.3378443E+00
 -0.4855770E+01  0.1600730E+02 -0.2568960E-01  0.4322622E+00 -0.1086671E+01 -0.2011897E+00  0.3825877E+00
 -0.6401380E+01  0.1545430E+02 -0.2568960E-01  0.4780682E+00 -0.1004569E+01 -0.2564605E+00  0.4034566E+00
 -0.7885340E+01  0.1475240E+02 -0.2568960E-01  0.5135804E+00 -0.9352036E+00 -0.3048894E+00  0.4132884E+00
 -0.9293360E+01  0.1390850E+02 -0.2568960E-01  0.5446774E+00 -0.8768255E+00 -0.3483728E+00  0.4187003E+00
 -0.1061190E+02  0.1293060E+02 -0.2568960E-01  0.5686746E+00 -0.8233041E+00 -0.3865860E+00  0.4170637E+00
 -0.1182820E+02  0.1182820E+02 -0.2568960E-01  0.5904621E+00 -0.7767635E+00 -0.4211093E+00  0.4138991E+00
 -0.1293060E+02  0.1061190E+02 -0.2568960E-01  0.6078038E+00 -0.7338492E+00 -0.4513563E+00  0.4070663E+00
 -0.1390850E+02  0.9293360E+01 -0.2568960E-01  0.6227075E+00 -0.6968505E+00 -0.4775341E+00  0.3996572E+00
 -0.1475240E+02  0.7885330E+01 -0.2568960E-01  0.6362684E+00 -0.6659607E+00 -0.5003129E+00  0.3930961E+00
 -0.1545430E+02  0.6401370E+01 -0.2568960E-01  0.6483527E+00 -0.6408882E+00 -0.5196968E+00  0.3876550E+00
 -0.1600730E+02  0.4855770E+01 -0.2568960E-01  0.6590891E+00 -0.6215133E+00 -0.5358383E+00  0.3837653E+00
 -0.1640620E+02  0.3263390E+01 -0.2568960E-01  0.6672601E+00 -0.6062517E+00 -0.5483474E+00  0.3801989E+00
 -0.1664710E+02  0.1639590E+01 -0.2568960E-01  0.6727004E+00 -0.5947840E+00 -0.5571772E+00  0.3769341E+00
 -0.1672760E+02 -0.1462370E-05 -0.2568960E-01  0.6752224E+00 -0.5870401E+00 -0.5621793E+00  0.3740050E+00
 -0.1664710E+02 -0.1639590E+01 -0.2568960E-01  0.6753160E+00 -0.5838651E+00 -0.5634419E+00  0.3722699E+00
 -0.1640620E+02 -0.3263400E+01 -0.2568960E-01  0.6724241E+00 -0.5845022E+00 -0.5607929E+00  0.3710330E+00
 -0.1600730E+02 -0.4855770E+01 -0.2568960E-01  0.6664025E+00 -0.5886725E+00 -0.5542326E+00  0.3700249E+00
 -0.1545430E+02 -0.6401380E+01 -0.2568960E-01  0.6569931E+00 -0.5960279E+00 -0.5437090E+00  0.3688095E+00
 -0.1475240E+02 -0.7885340E+01 -0.2568960E-01  0.6463591E+00 -0.6082273E+00 -0.5304425E+00  0.3693384E+00
 -0.1390850E+02 -0.9293360E+01 -0.2568960E-01  0.6340919E+00 -0.6250705E+00 -0.5141990E+00  0.3710417E+00
 -0.1293060E+02 -0.1061190E+02 -0.2568960E-01  0.6200758E+00 -0.6462491E+00 -0.4950364E+00  0.3734073E+00
 -0.1182820E+02 -0.1182820E+02 -0.2568960E-01  0.6014481E+00 -0.6703891E+00 -0.4712827E+00  0.3736742E+00
 -0.1061190E+02 -0.1293060E+02 -0.2568960E-01  0.5757866E+00 -0.6967558E+00 -0.4415869E+00  0.3695013E+00
 -0.9293350E+01 -0.1390850E+02 -0.2568960E-01  0.5466607E+00 -0.7273212E+00 -0.4083326E+00  0.3634589E+00
 -0.7885340E+01 -0.1475240E+02 -0.2568960E-01  0.5055373E+00 -0.7597744E+00 -0.3665102E+00  0.3481929E+00
 -0.6401370E+01 -0.1545430E+02 -0.2568960E-01  0.4553587E+00 -0.7964154E+00 -0.3184204E+00  0.3255150E+00
 -0.4855760E+01 -0.1600730E+02 -0.2568960E-01  0.3841980E+00 -0.8380240E+00 -0.2570027E+00  0.2855831E+00
 -0.3263390E+01 -0.1640620E+02 -0.2568960E-01  0.2715692E+00 -0.8948786E+00 -0.1698973E+00  0.2118601E+00
 -0.1639590E+01 -0.1664710E+02 -0.2568960E-01  0.1158747E+00 -0.1086606E+01 -0.5393870E-01  0.1025552E+00
  0.1994750E-06 -0.1672760E+02 -0.2568960E-01  0.6217334E-01 -0.3114549E+01  0.6215061E-01  0.1681207E-02
  0.1639600E+01 -0.1664710E+02 -0.2568960E-01  0.1906778E+00  0.2687966E+01  0.1713934E+00 -0.8356033E-01
  0.3263390E+01 -0.1640620E+02 -0.2568960E-01  0.3091508E+00  0.2625054E+01  0.2688172E+00 -0.1526813E+00
  0.4855770E+01 -0.1600730E+02 -0.2568960E-01  0.3887024E+00  0.2620801E+01  0.3371704E+00 -0.1934055E+00
  0.6401380E+01 -0.1545430E+02 -0.2568960E-01  0.4372876E+00  0.2636980E+01  0.3827849E+00 -0.2114146E+00
  0.7885340E+01 -0.1475240E+02 -0.2568960E-01  0.4712651E+00  0.2657630E+01  0.4171442E+00 -0.2192750E+00
  0.9293360E+01 -0.1390850E+02 -0.2568960E-01  0.4991232E+00  0.2677674E+01  0.4463688E+00 -0.2233358E+00
  0.1061190E+02 -0.1293060E+02 -0.2568960E-01  0.5175405E+00  0.2700568E+01  0.4680196E+00 -0.2209205E+00
  0.1182820E+02 -0.1182820E+02 -0.2568960E-01  0.5331154E+00  0.2721535E+01  0.4867693E+00 -0.2174112E+00
  0.1293060E+02 -0.1061190E+02 -0.2568960E-01  0.5427418E+00  0.2743055E+01  0.5002067E+00 -0.2106226E+00
  0.1390850E+02 -0.9293360E+01 -0.2568960E-01  0.5490062E+00  0.2761184E+01  0.5097592E+00 -0.2038462E+00
  0.1475240E+02 -0.7885330E+01 -0.2568960E-01  0.5537638E+00  0.2775385E+01  0.5170448E+00 -0.1982904E+00
  0.1545430E+02 -0.6401380E+01 -0.2568960E-01  0.5568187E+00  0.2785654E+01  0.5219172E+00 -0.1940348E+00
  0.1600730E+02 -0.4855760E+01 -0.2568960E-01  0.5585035E+00  0.2791638E+01  0.5246517E+00 -0.1914856E+00
  0.1640620E+02 -0.3263390E+01 -0.2568960E-01  0.5573952E+00  0.2794878E+01  0.5242268E+00 -0.1894086E+00
  0.1664710E+02 -0.1639590E+01 -0.2568960E-01  0.5535224E+00  0.2795487E+01  0.5206991E+00 -0.1877752E+00
  0.1672760E+02  0.0000000E+00 -0.1027320E+00  0.5443555E+00  0.2793364E+01  0.5116826E+00 -0.1857522E+00
  0.1664710E+02  0.1639590E+01 -0.1027320E+00  0.5353776E+00  0.2787450E+01  0.5021542E+00 -0.1856617E+00
  0.1640620E+02  0.3263390E+01 -0.1027320E+00  0.5237133E+00  0.2778679E+01  0.4896019E+00 -0.1859182E+00
  0.1600730E+02  0.4855770E+01 -0.1027320E+00  0.5095553E+00  0.2767382E+01  0.4742923E+00 -0.1862617E+00
  0.1545430E+02  0.6401380E+01 -0.1027320E+00  0.4930805E+00  0.2754030E+01  0.4565103E+00 -0.1863511E+00
  0.1475240E+02  0.7885340E+01 -0.1027320E+00  0.4752059E+00  0.2734969E+01  0.4364584E+00 -0.1879487E+00
  0.1390850E+02  0.9293360E+01 -0.1027320E+00  0.4557486E+00  0.2710377E+01  0.4140287E+00 -0.1904915E+00
  0.1293060E+02  0.1061190E+02 -0.1027320E+00  0.4346229E+00  0.2680430E+01  0.3892203E+00 -0.1934028E+00
  0.1182820E+02  0.1182820E+02 -0.1027320E+00  0.4103599E+00  0.2649151E+01  0.3616014E+00 -0.1940095E+00
  0.1061190E+02  0.1293060E+02 -0.1027320E+00  0.3816791E+00  0.2620053E+01  0.3309361E+00 -0.1901584E+00
  0.9293360E+01  0.1390850E+02 -0.1027320E+00  0.3502278E+00  0.2587556E+01  0.2978364E+00 -0.1842634E+00
  0.7885330E+01  0.1475240E+02 -0.1027320E+00  0.3111621E+00  0.2566283E+01  0.2610725E+00 -0.1693017E+00
  0.6401380E+01  0.1545430E+02 -0.1027320E+00  0.2654596E+00  0.2555117E+01  0.2211003E+00 -0.1469131E+00
  0.4855770E+01  0.1600730E+02 -0.1027320E+00  0.2070103E+00  0.2594806E+01  0.1768281E+00 -0.1076340E+00
  0.3263390E+01  0.1640620E+02 -0.1027320E+00  0.1304458E+00  0.2869006E+01  0.1256294E+00 -0.3511902E-01
  0.1639590E+01  0.1664710E+02 -0.1027320E+00  0.9923664E-01 -0.2314532E+01  0.6718734E-01  0.7303268E-01
 -0.7311870E-06  0.1672760E+02 -0.1027320E+00  0.1747233E+00 -0.1599164E+01  0.4955821E-02  0.1746529E+00
 -0.1639590E+01  0.1664710E+02 -0.1027320E+00  0.2700813E+00 -0.1337152E+01 -0.6253040E-01  0.2627430E+00
 -0.3263390E+01  0.1640620E+02 -0.1027320E+00  0.3624822E+00 -0.1188760E+01 -0.1351371E+00  0.3363499E+00
 -0.4855770E+01  0.1600730E+02 -0.1027320E+00  0.4302231E+00 -0.1086757E+01 -0.2002078E+00  0.3808002E+00
 -0.6401380E+01  0.1545430E+02 -0.1027320E+00  0.4758082E+00 -0.1004644E+01 -0.2552182E+00  0.4015683E+00
 -0.7885340E+01  0.1475240E+02 -0.1027320E+00  0.5111777E+00 -0.9353097E+00 -0.3034194E+00  0.4113871E+00
 -0.9293360E+01  0.1390850E+02 -0.1027320E+00  0.5420617E+00 -0.8768725E+00 -0.3466802E+00  0.4167058E+00
 -0.1061190E+02  0.1293060E+02 -0.1027320E+00  0.5659800E+00 -0.8233749E+00 -0.3847247E+00  0.4151147E+00
 -0.1182820E+02  0.1182820E+02 -0.1027320E+00  0.5876455E+00 -0.7768184E+00 -0.4190779E+00  0.4119477E+00
 -0.1293060E+02  0.1061190E+02 -0.1027320E+00  0.6049259E+00 -0.7339299E+00 -0.4491864E+00  0.4051751E+00
 -0.1390850E+02  0.9293360E+01 -0.1027320E+00  0.6197984E+00 -0.6969733E+00 -0.4752543E+00  0.3978484E+00
 -0.1475240E+02  0.7885330E+01 -0.1027320E+00  0.6333119E+00 -0.6661006E+00 -0.4979334E+00  0.3913392E+00
 -0.1545430E+02  0.6401370E+01 -0.1027320E+00  0.6453361E+00 -0.6410285E+00 -0.5172247E+00  0.3859239E+00
 -0.1600730E+02  0.4855770E+01 -0.1027320E+00  0.6560000E+00 -0.6216308E+00 -0.5332819E+00  0.3820292E+00
 -0.1640620E+02  0.3263390E+01 -0.1027320E+00  0.6641134E+00 -0.6063447E+00 -0.5457262E+00  0.3784567E+00
 -0.1664710E+02  0.1639590E+01 -0.1027320E+00  0.6695160E+00 -0.5948674E+00 -0.5545084E+00  0.3751961E+00
 -0.1672760E+02 -0.1462370E-05 -0.1027320E+00  0.6720302E+00 -0.5871179E+00 -0.5594925E+00  0.3722804E+00
 -0.1664710E+02 -0.1639590E+01 -0.1027320E+00  0.6721272E+00 -0.5839416E+00 -0.5607530E+00  0.3705549E+00
 -0.1640620E+02 -0.3263400E+01 -0.1027320E+00  0.6692641E+00 -0.5845853E+00 -0.5581267E+00  0.3693358E+00
 -0.1600730E+02 -0.4855770E+01 -0.1027320E+00  0.6632999E+00 -0.5887719E+00 -0.5516156E+00  0.3683570E+00
 -0.1545430E+02 -0.6401380E+01 -0.1027320E+00  0.6539756E+00 -0.5961452E+00 -0.5411688E+00  0.3671790E+00
 -0.1475240E+02 -0.7885340E+01 -0.1027320E+00  0.6433957E+00 -0.6083421E+00 -0.5279684E+00  0.3677056E+00
 -0.1390850E+02 -0.9293360E+01 -0.1027320E+00  0.6311552E+00 -0.6251642E+00 -0.5117829E+00  0.3693712E+00
 -0.1293060E+02 -0.1061190E+02 -0.1027320E+00  0.6171398E+00 -0.6463029E+00 -0.4926724E+00  0.3716657E+00
 -0.1182820E+02 -0.1182820E+02 -0.1027320E+00  0.5985855E+00 -0.6704383E+00 -0.4690214E+00  0.3719189E+00
 -0.1061190E+02 -0.1293060E+02 -0.1027320E+00  0.5730829E+00 -0.6968178E+00 -0.4394906E+00  0.3677934E+00
 -0.9293350E+01 -0.1390850E+02 -0.1027320E+00  0.5440335E+00 -0.7273555E+00 -0.4063578E+00  0.3617261E+00
 -0.7885340E+01 -0.1475240E+02 -0.1027320E+00  0.5032007E+00 -0.7598318E+00 -0.3647962E+00  0.3466044E+00
 -0.6401370E+01 -0.1545430E+02 -0.1027320E+00  0.4532047E+00 -0.7964579E+00 -0.3169004E+00  0.3239887E+00
 -0.4855760E+01 -0.1600730E+02 -0.1027320E+00  0.3824025E+00 -0.8380777E+00 -0.2557864E+00  0.2842622E+00
 -0.3263390E+01 -0.1640620E+02 -0.1027320E+00  0.2703782E+00 -0.8948936E+00 -0.1691491E+00  0.2109335E+00
 -0.1639590E+01 -0.1664710E+02 -0.1027320E+00  0.1153571E+00 -0.1086609E+01 -0.5369744E-01  0.1020972E+00
  0.1994750E-06 -0.1672760E+02 -0.1027320E+00  0.6191096E-01 -0.3115223E+01  0.6188943E-01  0.1632362E-02
  0.1639600E+01 -0.1664710E+02 -0.1027320E+00  0.1898684E+00  0.2687780E+01  0.1706503E+00 -0.8323748E-01
  0.3263390E+01 -0.1640620E+02 -0.1027320E+00  0.3078466E+00  0.2624862E+01  0.2676539E+00 -0.1520887E+00
  0.4855770E+01 -0.1600730E+02 -0.1027320E+00  0.3869201E+00  0.2620744E+01  0.3356135E+00 -0.1925376E+00
  0.6401380E+01 -0.1545430E+02 -0.1027320E+00  0.4352583E+00  0.2636919E+01  0.3809957E+00 -0.2104567E+00
  0.7885340E+01 -0.1475240E+02 -0.1027320E+00  0.4691145E+00  0.2657541E+01  0.4152211E+00 -0.2183115E+00
  0.9293360E+01 -0.1390850E+02 -0.1027320E+00  0.4967518E+00  0.2677642E+01  0.4442410E+00 -0.2222889E+00
  0.1061190E+02 -0.1293060E+02 -0.1027320E+00  0.5151260E+00  0.2700503E+01  0.4658217E+00 -0.2199203E+00
  0.1182820E+02 -0.1182820E+02 -0.1027320E+00  0.5305966E+00  0.2721484E+01  0.4844584E+00 -0.2164087E+00
  0.1293060E+02 -0.1061190E+02 -0.1027320E+00  0.5401992E+00  0.2742964E+01  0.4978445E+00 -0.2096808E+00
  0.1390850E+02 -0.9293360E+01 -0.1027320E+00  0.5464849E+00  0.2761039E+01  0.5073889E+00 -0.2029834E+00
