 VARIABLES="X" "Y" "Z" "abs(eta) (m)" "angle(phi) (rad)" "PRE1" "PRE2"
ZONE N=   3200 ,E =    3136 ,F=FEPOINT,ET=QUADRILATERAL
  0.1530690E+02  0.0000000E+00  0.0000000E+00  0.1824871E-01  0.2932592E+01  0.1785160E-01 -0.3786289E-02
  0.1523320E+02  0.1500340E+01  0.0000000E+00  0.1698680E-01  0.3050450E+01  0.1691629E-01 -0.1546079E-02
  0.1501280E+02  0.2986230E+01  0.0000000E+00  0.1602525E-01 -0.3102952E+01  0.1601329E-01  0.6190642E-03
  0.1464780E+02  0.4443360E+01  0.0000000E+00  0.1548961E-01 -0.2953090E+01  0.1521522E-01  0.2902564E-02
  0.1414170E+02  0.5857700E+01  0.0000000E+00  0.1558238E-01 -0.2781433E+01  0.1458262E-01  0.5491604E-02
  0.1349950E+02  0.7215620E+01  0.0000000E+00  0.1648556E-01 -0.2602809E+01  0.1415011E-01  0.8458621E-02
  0.1272720E+02  0.8504060E+01  0.0000000E+00  0.1818110E-01 -0.2441569E+01  0.1390539E-01  0.1171292E-01
  0.1183240E+02  0.9710600E+01  0.0000000E+00  0.2014459E-01 -0.2316354E+01  0.1366572E-01  0.1480043E-01
  0.1082360E+02  0.1082360E+02  0.0000000E+00  0.2254672E-01 -0.2213942E+01  0.1352161E-01  0.1804219E-01
  0.9710590E+01  0.1183240E+02  0.0000000E+00  0.2623162E-01 -0.2123905E+01  0.1378038E-01  0.2232037E-01
  0.8504060E+01  0.1272720E+02  0.0000000E+00  0.3042803E-01 -0.2057781E+01  0.1423919E-01  0.2689071E-01
  0.7215620E+01  0.1349950E+02  0.0000000E+00  0.3600351E-01 -0.2005310E+01  0.1515637E-01  0.3265788E-01
  0.5857700E+01  0.1414170E+02  0.0000000E+00  0.4329087E-01 -0.1963998E+01  0.1658679E-01  0.3998722E-01
  0.4443360E+01  0.1464780E+02  0.0000000E+00  0.5430888E-01 -0.1935039E+01  0.1934707E-01  0.5074589E-01
  0.2986230E+01  0.1501280E+02  0.0000000E+00  0.7502657E-01 -0.1917156E+01  0.2546973E-01  0.7057109E-01
  0.1500340E+01  0.1523320E+02  0.0000000E+00  0.1321263E+00 -0.1910230E+01  0.4399190E-01  0.1245877E+00
 -0.6690860E-06  0.1530690E+02  0.0000000E+00  0.1514515E+00 -0.1898149E+01  0.4869730E-01  0.1434090E+00
 -0.1500340E+01  0.1523320E+02  0.0000000E+00  0.1521718E+00 -0.1876606E+01  0.4581361E-01  0.1451116E+00
 -0.2986230E+01  0.1501280E+02  0.0000000E+00  0.1255531E+00 -0.1811808E+01  0.2996773E-01  0.1219243E+00
 -0.4443360E+01  0.1464780E+02  0.0000000E+00  0.1123390E+00 -0.1771061E+01  0.2234741E-01  0.1100938E+00
 -0.5857700E+01  0.1414170E+02  0.0000000E+00  0.1045865E+00 -0.1741434E+01  0.1775990E-01  0.1030676E+00
 -0.7215620E+01  0.1349950E+02  0.0000000E+00  0.9942891E-01 -0.1718071E+01  0.1459053E-01  0.9835256E-01
 -0.8504060E+01  0.1272720E+02  0.0000000E+00  0.9479658E-01 -0.1697370E+01  0.1196674E-01  0.9403823E-01
 -0.9710590E+01  0.1183240E+02  0.0000000E+00  0.9080857E-01 -0.1679475E+01  0.9849562E-02  0.9027282E-01
 -0.1082360E+02  0.1082360E+02  0.0000000E+00  0.8750603E-01 -0.1663791E+01  0.8125868E-02  0.8712792E-01
 -0.1183240E+02  0.9710590E+01  0.0000000E+00  0.8469748E-01 -0.1651782E+01  0.6851754E-02  0.8441988E-01
 -0.1272720E+02  0.8504060E+01  0.0000000E+00  0.8200763E-01 -0.1641566E+01  0.5798770E-02  0.8180236E-01
 -0.1349950E+02  0.7215620E+01  0.0000000E+00  0.7937647E-01 -0.1632606E+01  0.4903128E-02  0.7922489E-01
 -0.1414170E+02  0.5857690E+01  0.0000000E+00  0.7698444E-01 -0.1626416E+01  0.4279613E-02  0.7686540E-01
 -0.1464780E+02  0.4443360E+01  0.0000000E+00  0.7470695E-01 -0.1623181E+01  0.3911695E-02  0.7460447E-01
 -0.1501280E+02  0.2986230E+01  0.0000000E+00  0.7245594E-01 -0.1622975E+01  0.3778903E-02  0.7235733E-01
 -0.1523320E+02  0.1500340E+01  0.0000000E+00  0.7012828E-01 -0.1625787E+01  0.3854490E-02  0.7002228E-01
 -0.1530690E+02 -0.1338170E-05  0.0000000E+00  0.6776212E-01 -0.1630787E+01  0.4062668E-02  0.6764022E-01
 -0.1523320E+02 -0.1500340E+01  0.0000000E+00  0.6553768E-01 -0.1635924E+01  0.4265280E-02  0.6539873E-01
 -0.1501280E+02 -0.2986230E+01  0.0000000E+00  0.6339850E-01 -0.1643095E+01  0.4579623E-02  0.6323288E-01
 -0.1464780E+02 -0.4443360E+01  0.0000000E+00  0.6115694E-01 -0.1653980E+01  0.5081394E-02  0.6094547E-01
 -0.1414170E+02 -0.5857700E+01  0.0000000E+00  0.5863606E-01 -0.1670271E+01  0.5823212E-02  0.5834619E-01
 -0.1349950E+02 -0.7215620E+01  0.0000000E+00  0.5578123E-01 -0.1693521E+01  0.6828589E-02  0.5536169E-01
 -0.1272720E+02 -0.8504060E+01  0.0000000E+00  0.5270217E-01 -0.1724327E+01  0.8059650E-02  0.5208224E-01
 -0.1183240E+02 -0.9710600E+01  0.0000000E+00  0.4984153E-01 -0.1758447E+01  0.9297996E-02  0.4896658E-01
 -0.1082360E+02 -0.1082360E+02  0.0000000E+00  0.4691419E-01 -0.1799631E+01  0.1064216E-01  0.4569120E-01
 -0.9710600E+01 -0.1183240E+02  0.0000000E+00  0.4319680E-01 -0.1862825E+01  0.1243615E-01  0.4136793E-01
 -0.8504050E+01 -0.1272720E+02  0.0000000E+00  0.3946068E-01 -0.1944214E+01  0.1439525E-01  0.3674128E-01
 -0.7215620E+01 -0.1349950E+02  0.0000000E+00  0.3519025E-01 -0.2069737E+01  0.1683838E-01  0.3090020E-01
 -0.5857690E+01 -0.1414170E+02  0.0000000E+00  0.3074034E-01 -0.2272496E+01  0.1984339E-01  0.2347782E-01
 -0.4443360E+01 -0.1464780E+02  0.0000000E+00  0.2732745E-01 -0.2663059E+01  0.2425778E-01  0.1258370E-01
 -0.2986230E+01 -0.1501280E+02  0.0000000E+00  0.3325925E-01  0.2915013E+01  0.3240916E-01 -0.7471563E-02
 -0.1500340E+01 -0.1523320E+02  0.0000000E+00  0.8282840E-01  0.2296330E+01  0.5495953E-01 -0.6196767E-01
  0.1825330E-06 -0.1530690E+02  0.0000000E+00  0.1020305E+00  0.2226217E+01  0.6218687E-01 -0.8088896E-01
  0.1500340E+01 -0.1523320E+02  0.0000000E+00  0.1027614E+00  0.2209923E+01  0.6129665E-01 -0.8247808E-01
  0.2986230E+01 -0.1501280E+02  0.0000000E+00  0.7543345E-01  0.2247801E+01  0.4725610E-01 -0.5879683E-01
  0.4443360E+01 -0.1464780E+02  0.0000000E+00  0.6175156E-01  0.2283302E+01  0.4036897E-01 -0.4672902E-01
  0.5857700E+01 -0.1414170E+02  0.0000000E+00  0.5368051E-01  0.2312988E+01  0.3628290E-01 -0.3956195E-01
  0.7215620E+01 -0.1349950E+02  0.0000000E+00  0.4825698E-01  0.2337660E+01  0.3348457E-01 -0.3474939E-01
  0.8504060E+01 -0.1272720E+02  0.0000000E+00  0.4342384E-01  0.2367445E+01  0.3104880E-01 -0.3035789E-01
  0.9710600E+01 -0.1183240E+02  0.0000000E+00  0.3928168E-01  0.2399968E+01  0.2896521E-01 -0.2653426E-01
  0.1082360E+02 -0.1082360E+02  0.0000000E+00  0.3582275E-01  0.2431826E+01  0.2717205E-01 -0.2334414E-01
  0.1183240E+02 -0.9710590E+01  0.0000000E+00  0.3291799E-01  0.2465280E+01  0.2567228E-01 -0.2060408E-01
  0.1272720E+02 -0.8504060E+01  0.0000000E+00  0.3018798E-01  0.2504329E+01  0.2426289E-01 -0.1796180E-01
  0.1349950E+02 -0.7215620E+01  0.0000000E+00  0.2757266E-01  0.2550550E+01  0.2289523E-01 -0.1536425E-01
  0.1414170E+02 -0.5857700E+01  0.0000000E+00  0.2527317E-01  0.2601618E+01  0.2167735E-01 -0.1299330E-01
  0.1464780E+02 -0.4443350E+01  0.0000000E+00  0.2321244E-01  0.2661093E+01  0.2058396E-01 -0.1072930E-01
  0.1501280E+02 -0.2986230E+01  0.0000000E+00  0.2135657E-01  0.2732971E+01  0.1959827E-01 -0.8485919E-02
  0.1523320E+02 -0.1500330E+01  0.0000000E+00  0.1969384E-01  0.2823499E+01  0.1870587E-01 -0.6159379E-02
  0.1530690E+02  0.0000000E+00 -0.2568960E-01  0.1823485E-01  0.2932674E+01  0.1783834E-01 -0.3781951E-02
  0.1523320E+02  0.1500340E+01 -0.2568960E-01  0.1697455E-01  0.3050544E+01  0.1690424E-01 -0.1543370E-02
  0.1501280E+02  0.2986230E+01 -0.2568960E-01  0.1601450E-01 -0.3102826E+01  0.1600247E-01  0.6206792E-03
  0.1464780E+02  0.4443360E+01 -0.2568960E-01  0.1548003E-01 -0.2952967E+01  0.1520546E-01  0.2902643E-02
  0.1414170E+02  0.5857700E+01 -0.2568960E-01  0.1557298E-01 -0.2781406E+01  0.1457368E-01  0.5488679E-02
  0.1349950E+02  0.7215620E+01 -0.2568960E-01  0.1647391E-01 -0.2602920E+01  0.1414104E-01  0.8451069E-02
  0.1272720E+02  0.8504060E+01 -0.2568960E-01  0.1816547E-01 -0.2441747E+01  0.1389553E-01  0.1170036E-01
  0.1183240E+02  0.9710600E+01 -0.2568960E-01  0.2012820E-01 -0.2316473E+01  0.1365636E-01  0.1478676E-01
  0.1082360E+02  0.1082360E+02 -0.2568960E-01  0.2253119E-01 -0.2214005E+01  0.1351344E-01  0.1802891E-01
  0.9710590E+01  0.1183240E+02 -0.2568960E-01  0.2620914E-01 -0.2124005E+01  0.1377080E-01  0.2229986E-01
  0.8504060E+01  0.1272720E+02 -0.2568960E-01  0.3040457E-01 -0.2057842E+01  0.1422985E-01  0.2686911E-01
  0.7215620E+01  0.1349950E+02 -0.2568960E-01  0.3597243E-01 -0.2005362E+01  0.1514498E-01  0.3262891E-01
  0.5857700E+01  0.1414170E+02 -0.2568960E-01  0.4326230E-01 -0.1964034E+01  0.1657730E-01  0.3996022E-01
  0.4443360E+01  0.1464780E+02 -0.2568960E-01  0.5426812E-01 -0.1935071E+01  0.1933418E-01  0.5070718E-01
  0.2986230E+01  0.1501280E+02 -0.2568960E-01  0.7498428E-01 -0.1917189E+01  0.2545768E-01  0.7053048E-01
  0.1500340E+01  0.1523320E+02 -0.2568960E-01  0.1320222E+00 -0.1910242E+01  0.4395869E-01  0.1244890E+00
 -0.6690860E-06  0.1530690E+02 -0.2568960E-01  0.1513412E+00 -0.1898152E+01  0.4866234E-01  0.1433043E+00
 -0.1500340E+01  0.1523320E+02 -0.2568960E-01  0.1520646E+00 -0.1876601E+01  0.4578072E-01  0.1450095E+00
 -0.2986230E+01  0.1501280E+02 -0.2568960E-01  0.1254814E+00 -0.1811835E+01  0.2995389E-01  0.1218538E+00
 -0.4443360E+01  0.1464780E+02 -0.2568960E-01  0.1122643E+00 -0.1771072E+01  0.2233377E-01  0.1100203E+00
 -0.5857700E+01  0.1414170E+02 -0.2568960E-01  0.1045186E+00 -0.1741455E+01  0.1775059E-01  0.1030002E+00
 -0.7215620E+01  0.1349950E+02 -0.2568960E-01  0.9935785E-01 -0.1718077E+01  0.1458063E-01  0.9828219E-01
 -0.8504060E+01  0.1272720E+02 -0.2568960E-01  0.9472980E-01 -0.1697381E+01  0.1195931E-01  0.9397186E-01
 -0.9710590E+01  0.1183240E+02 -0.2568960E-01  0.9074528E-01 -0.1679487E+01  0.9843740E-02  0.9020979E-01
 -0.1082360E+02  0.1082360E+02 -0.2568960E-01  0.8744437E-01 -0.1663811E+01  0.8121893E-02  0.8706637E-01
 -0.1183240E+02  0.9710590E+01 -0.2568960E-01  0.8463656E-01 -0.1651795E+01  0.6847990E-02  0.8435907E-01
 -0.1272720E+02  0.8504060E+01 -0.2568960E-01  0.8194802E-01 -0.1641575E+01  0.5795325E-02  0.8174284E-01
 -0.1349950E+02  0.7215620E+01 -0.2568960E-01  0.7931902E-01 -0.1632619E+01  0.4900609E-02  0.7916749E-01
 -0.1414170E+02  0.5857690E+01 -0.2568960E-01  0.7692774E-01 -0.1626432E+01  0.4277702E-02  0.7680872E-01
 -0.1464780E+02  0.4443360E+01 -0.2568960E-01  0.7465116E-01 -0.1623198E+01  0.3910021E-02  0.7454869E-01
 -0.1501280E+02  0.2986230E+01 -0.2568960E-01  0.7240103E-01 -0.1622986E+01  0.3776895E-02  0.7230245E-01
 -0.1523320E+02  0.1500340E+01 -0.2568960E-01  0.7007504E-01 -0.1625792E+01  0.3851869E-02  0.6996909E-01
 -0.1530690E+02 -0.1338170E-05 -0.2568960E-01  0.6771107E-01 -0.1630790E+01  0.4059773E-02  0.6758925E-01
 -0.1523320E+02 -0.1500340E+01 -0.2568960E-01  0.6548823E-01 -0.1635933E+01  0.4262659E-02  0.6534935E-01
 -0.1501280E+02 -0.2986230E+01 -0.2568960E-01  0.6335014E-01 -0.1643114E+01  0.4577346E-02  0.6318456E-01
 -0.1464780E+02 -0.4443360E+01 -0.2568960E-01  0.6111021E-01 -0.1654010E+01  0.5079337E-02  0.6089875E-01
 -0.1414170E+02 -0.5857700E+01 -0.2568960E-01  0.5859245E-01 -0.1670304E+01  0.5820782E-02  0.5830260E-01
 -0.1349950E+02 -0.7215620E+01 -0.2568960E-01  0.5574210E-01 -0.1693536E+01  0.6824583E-02  0.5532275E-01
 -0.1272720E+02 -0.8504060E+01 -0.2568960E-01  0.5266775E-01 -0.1724316E+01  0.8053799E-02  0.5204833E-01
 -0.1183240E+02 -0.9710600E+01 -0.2568960E-01  0.4980813E-01 -0.1758442E+01  0.9291510E-02  0.4893381E-01
 -0.1082360E+02 -0.1082360E+02 -0.2568960E-01  0.4688038E-01 -0.1799662E+01  0.1063589E-01  0.4565794E-01
 -0.9710600E+01 -0.1183240E+02 -0.2568960E-01  0.4316928E-01 -0.1862798E+01  0.1242713E-01  0.4134190E-01
 -0.8504050E+01 -0.1272720E+02 -0.2568960E-01  0.3943406E-01 -0.1944211E+01  0.1438542E-01  0.3671655E-01
 -0.7215620E+01 -0.1349950E+02 -0.2568960E-01  0.3516885E-01 -0.2069651E+01  0.1682549E-01  0.3088286E-01
 -0.5857690E+01 -0.1414170E+02 -0.2568960E-01  0.3071787E-01 -0.2272604E+01  0.1983144E-01  0.2345851E-01
 -0.4443360E+01 -0.1464780E+02 -0.2568960E-01  0.2730910E-01 -0.2663011E+01  0.2424090E-01  0.1257640E-01
 -0.2986230E+01 -0.1501280E+02 -0.2568960E-01  0.3324369E-01  0.2914738E+01  0.3239194E-01 -0.7476975E-02
 -0.1500340E+01 -0.1523320E+02 -0.2568960E-01  0.8276069E-01  0.2296376E+01  0.5491741E-01 -0.6191453E-01
  0.1825330E-06 -0.1530690E+02 -0.2568960E-01  0.1019563E+00  0.2226224E+01  0.6214218E-01 -0.8082969E-01
  0.1500340E+01 -0.1523320E+02 -0.2568960E-01  0.1026904E+00  0.2209914E+01  0.6125351E-01 -0.8242162E-01
  0.2986230E+01 -0.1501280E+02 -0.2568960E-01  0.7539834E-01  0.2247741E+01  0.4723059E-01 -0.5877228E-01
  0.4443360E+01 -0.1464780E+02 -0.2568960E-01  0.6171400E-01  0.2283270E+01  0.4034293E-01 -0.4670188E-01
  0.5857700E+01 -0.1414170E+02 -0.2568960E-01  0.5365007E-01  0.2312948E+01  0.3626075E-01 -0.3954097E-01
  0.7215620E+01 -0.1349950E+02 -0.2568960E-01  0.4822367E-01  0.2337661E+01  0.3346148E-01 -0.3472537E-01
  0.8504060E+01 -0.1272720E+02 -0.2568960E-01  0.4339522E-01  0.2367436E+01  0.3102806E-01 -0.3033816E-01
  0.9710600E+01 -0.1183240E+02 -0.2568960E-01  0.3925624E-01  0.2399946E+01  0.2894587E-01 -0.2651772E-01
  0.1082360E+02 -0.1082360E+02 -0.2568960E-01  0.3579939E-01  0.2431822E+01  0.2715424E-01 -0.2332902E-01
  0.1183240E+02 -0.9710590E+01 -0.2568960E-01  0.3289576E-01  0.2465287E+01  0.2565510E-01 -0.2058997E-01
  0.1272720E+02 -0.8504060E+01 -0.2568960E-01  0.3016691E-01  0.2504342E+01  0.2424620E-01 -0.1794894E-01
  0.1349950E+02 -0.7215620E+01 -0.2568960E-01  0.2755409E-01  0.2550565E+01  0.2288004E-01 -0.1535355E-01
  0.1414170E+02 -0.5857700E+01 -0.2568960E-01  0.2525558E-01  0.2601657E+01  0.2166276E-01 -0.1298341E-01
  0.1464780E+02 -0.4443350E+01 -0.2568960E-01  0.2319576E-01  0.2661171E+01  0.2057001E-01 -0.1071998E-01
  0.1501280E+02 -0.2986230E+01 -0.2568960E-01  0.2134089E-01  0.2733078E+01  0.1958478E-01 -0.8477600E-02
  0.1523320E+02 -0.1500330E+01 -0.2568960E-01  0.1967906E-01  0.2823603E+01  0.1869247E-01 -0.6152802E-02
  0.1530690E+02  0.0000000E+00 -0.1027320E+00  0.1819360E-01  0.2932778E+01  0.1779839E-01 -0.3771534E-02
  0.1523320E+02  0.1500340E+01 -0.1027320E+00  0.1693739E-01  0.3050701E+01  0.1686748E-01 -0.1537345E-02
  0.1501280E+02  0.2986230E+01 -0.1027320E+00  0.1598178E-01 -0.3102549E+01  0.1596960E-01  0.6238295E-03
  0.1464780E+02  0.4443360E+01 -0.1027320E+00  0.1545074E-01 -0.2952708E+01  0.1517594E-01  0.2901080E-02
  0.1414170E+02  0.5857700E+01 -0.1027320E+00  0.1554316E-01 -0.2781390E+01  0.1454569E-01  0.5478402E-02
  0.1349950E+02  0.7215620E+01 -0.1027320E+00  0.1643741E-01 -0.2603276E+01  0.1411271E-01  0.8427315E-02
  0.1272720E+02  0.8504060E+01 -0.1027320E+00  0.1811773E-01 -0.2442296E+01  0.1386540E-01  0.1166202E-01
  0.1183240E+02  0.9710600E+01 -0.1027320E+00  0.2007813E-01 -0.2316846E+01  0.1362789E-01  0.1474490E-01
  0.1082360E+02  0.1082360E+02 -0.1027320E+00  0.2248421E-01 -0.2214176E+01  0.1348834E-01  0.1798901E-01
  0.9710590E+01  0.1183240E+02 -0.1027320E+00  0.2614183E-01 -0.2124284E+01  0.1374165E-01  0.2223875E-01
  0.8504060E+01  0.1272720E+02 -0.1027320E+00  0.3033406E-01 -0.2058003E+01  0.1420119E-01  0.2680451E-01
  0.7215620E+01  0.1349950E+02 -0.1027320E+00  0.3588535E-01 -0.2005483E+01  0.1511225E-01  0.3254808E-01
  0.5857700E+01  0.1414170E+02 -0.1027320E+00  0.4317792E-01 -0.1964146E+01  0.1654943E-01  0.3988044E-01
  0.4443360E+01  0.1464780E+02 -0.1027320E+00  0.5414522E-01 -0.1935162E+01  0.1929499E-01  0.5059059E-01
  0.2986230E+01  0.1501280E+02 -0.1027320E+00  0.7486148E-01 -0.1917274E+01  0.2542199E-01  0.7041281E-01
  0.1500340E+01  0.1523320E+02 -0.1027320E+00  0.1316917E+00 -0.1910260E+01  0.4385088E-01  0.1241765E+00
 -0.6690860E-06  0.1530690E+02 -0.1027320E+00  0.1510263E+00 -0.1898169E+01  0.4856350E-01  0.1430054E+00
 -0.1500340E+01  0.1523320E+02 -0.1027320E+00  0.1517241E+00 -0.1876570E+01  0.4567369E-01  0.1446862E+00
 -0.2986230E+01  0.1501280E+02 -0.1027320E+00  0.1252635E+00 -0.1811908E+01  0.2991067E-01  0.1216400E+00
 -0.4443360E+01  0.1464780E+02 -0.1027320E+00  0.1120414E+00 -0.1771094E+01  0.2229192E-01  0.1098014E+00
 -0.5857700E+01  0.1414170E+02 -0.1027320E+00  0.1043186E+00 -0.1741513E+01  0.1772250E-01  0.1028021E+00
 -0.7215620E+01  0.1349950E+02 -0.1027320E+00  0.9914656E-01 -0.1718088E+01  0.1455073E-01  0.9807301E-01
 -0.8504060E+01  0.1272720E+02 -0.1027320E+00  0.9453192E-01 -0.1697407E+01  0.1193685E-01  0.9377524E-01
 -0.9710590E+01  0.1183240E+02 -0.1027320E+00  0.9055762E-01 -0.1679514E+01  0.9825798E-02  0.9002297E-01
 -0.1082360E+02  0.1082360E+02 -0.1027320E+00  0.8726202E-01 -0.1663857E+01  0.8108955E-02  0.8688443E-01
 -0.1183240E+02  0.9710590E+01 -0.1027320E+00  0.8445659E-01 -0.1651820E+01  0.6835483E-02  0.8417951E-01
 -0.1272720E+02  0.8504060E+01 -0.1027320E+00  0.8177228E-01 -0.1641594E+01  0.5784440E-02  0.8156743E-01
 -0.1349950E+02  0.7215620E+01 -0.1027320E+00  0.7914943E-01 -0.1632650E+01  0.4892598E-02  0.7899807E-01
 -0.1414170E+02  0.5857690E+01 -0.1027320E+00  0.7676112E-01 -0.1626469E+01  0.4271279E-02  0.7664219E-01
 -0.1464780E+02  0.4443360E+01 -0.1027320E+00  0.7448657E-01 -0.1623231E+01  0.3903908E-02  0.7438420E-01
 -0.1501280E+02  0.2986230E+01 -0.1027320E+00  0.7223921E-01 -0.1623007E+01  0.3769969E-02  0.7214077E-01
 -0.1523320E+02  0.1500340E+01 -0.1027320E+00  0.6991854E-01 -0.1625791E+01  0.3843218E-02  0.6981283E-01
 -0.1530690E+02 -0.1338170E-05 -0.1027320E+00  0.6756107E-01 -0.1630777E+01  0.4049902E-02  0.6743957E-01
 -0.1523320E+02 -0.1500340E+01 -0.1027320E+00  0.6534245E-01 -0.1635938E+01  0.4253475E-02  0.6520386E-01
 -0.1501280E+02 -0.2986230E+01 -0.1027320E+00  0.6320745E-01 -0.1643158E+01  0.4569803E-02  0.6304204E-01
 -0.1464780E+02 -0.4443360E+01 -0.1027320E+00  0.6097224E-01 -0.1654079E+01  0.5072081E-02  0.6076091E-01
 -0.1414170E+02 -0.5857700E+01 -0.1027320E+00  0.5846303E-01 -0.1670370E+01  0.5811742E-02  0.5817345E-01
 -0.1349950E+02 -0.7215620E+01 -0.1027320E+00  0.5562560E-01 -0.1693558E+01  0.6811555E-02  0.5520698E-01
 -0.1272720E+02 -0.8504060E+01 -0.1027320E+00  0.5256520E-01 -0.1724260E+01  0.8035227E-02  0.5194743E-01
 -0.1183240E+02 -0.9710600E+01 -0.1027320E+00  0.4970871E-01 -0.1758415E+01  0.9271682E-02  0.4883638E-01
 -0.1082360E+02 -0.1082360E+02 -0.1027320E+00  0.4677934E-01 -0.1799741E+01  0.1061658E-01  0.4555869E-01
 -0.9710600E+01 -0.1183240E+02 -0.1027320E+00  0.4308670E-01 -0.1862704E+01  0.1239946E-01  0.4126400E-01
 -0.8504050E+01 -0.1272720E+02 -0.1027320E+00  0.3935378E-01 -0.1944199E+01  0.1435569E-01  0.3664197E-01
 -0.7215620E+01 -0.1349950E+02 -0.1027320E+00  0.3510004E-01 -0.2069514E+01  0.1678834E-01  0.3082473E-01
 -0.5857690E+01 -0.1414170E+02 -0.1027320E+00  0.3064975E-01 -0.2272957E+01  0.1979571E-01  0.2339951E-01
 -0.4443360E+01 -0.1464780E+02 -0.1027320E+00  0.2725350E-01 -0.2662864E+01  0.2418970E-01  0.1255435E-01
 -0.2986230E+01 -0.1501280E+02 -0.1027320E+00  0.3319909E-01  0.2913789E+01  0.3234138E-01 -0.7497640E-02
 -0.1500340E+01 -0.1523320E+02 -0.1027320E+00  0.8254009E-01  0.2296574E+01  0.5478329E-01 -0.6173862E-01
  0.1825330E-06 -0.1530690E+02 -0.1027320E+00  0.1017501E+00  0.2226198E+01  0.6201443E-01 -0.8066785E-01
  0.1500340E+01 -0.1523320E+02 -0.1027320E+00  0.1024578E+00  0.2209910E+01  0.6111447E-01 -0.8223518E-01
  0.2986230E+01 -0.1501280E+02 -0.1027320E+00  0.7529081E-01  0.2247556E+01  0.4715242E-01 -0.5869716E-01
  0.4443360E+01 -0.1464780E+02 -0.1027320E+00  0.6160180E-01  0.2283154E+01  0.4026414E-01 -0.4662168E-01
  0.5857700E+01 -0.1414170E+02 -0.1027320E+00  0.5356168E-01  0.2312786E+01  0.3619460E-01 -0.3948170E-01
  0.7215620E+01 -0.1349950E+02 -0.1027320E+00  0.4812460E-01  0.2337632E+01  0.3339174E-01 -0.3465499E-01
  0.8504060E+01 -0.1272720E+02 -0.1027320E+00  0.4331026E-01  0.2367376E+01  0.3096548E-01 -0.3028064E-01
  0.9710600E+01 -0.1183240E+02 -0.1027320E+00  0.3918161E-01  0.2399844E+01  0.2888816E-01 -0.2647023E-01
  0.1082360E+02 -0.1082360E+02 -0.1027320E+00  0.3573120E-01  0.2431754E+01  0.2710094E-01 -0.2328644E-01
  0.1183240E+02 -0.9710590E+01 -0.1027320E+00  0.3282988E-01  0.2465250E+01  0.2560295E-01 -0.2054970E-01
  0.1272720E+02 -0.8504060E+01 -0.1027320E+00  0.3010516E-01  0.2504317E+01  0.2419612E-01 -0.1791281E-01
