 VARIABLES="X" "Y" "Z" "abs(eta) (m)" "angle(phi) (rad)" "PRE1" "PRE2"
ZONE N=   3200 ,E =    3136 ,F=FEPOINT,ET=QUADRILATERAL
  0.1530690E+02  0.0000000E+00  0.0000000E+00  0.2717192E+00  0.1991613E+01  0.1109988E+00 -0.2480132E+00
  0.1523320E+02  0.1500340E+01  0.0000000E+00  0.2725658E+00  0.1994166E+01  0.1119796E+00 -0.2485009E+00
  0.1501280E+02  0.2986230E+01  0.0000000E+00  0.2725953E+00  0.1995914E+01  0.1124260E+00 -0.2483316E+00
  0.1464780E+02  0.4443360E+01  0.0000000E+00  0.2721064E+00  0.1996639E+01  0.1124040E+00 -0.2478049E+00
  0.1414170E+02  0.5857700E+01  0.0000000E+00  0.2726808E+00  0.1994866E+01  0.1122009E+00 -0.2485272E+00
  0.1349950E+02  0.7215620E+01  0.0000000E+00  0.2746856E+00  0.1990184E+01  0.1118523E+00 -0.2508809E+00
  0.1272720E+02  0.8504060E+01  0.0000000E+00  0.2753450E+00  0.1985251E+01  0.1108789E+00 -0.2520332E+00
  0.1183240E+02  0.9710600E+01  0.0000000E+00  0.2724460E+00  0.1981820E+01  0.1088552E+00 -0.2497546E+00
  0.1082360E+02  0.1082360E+02  0.0000000E+00  0.2695109E+00  0.1977179E+01  0.1065347E+00 -0.2475610E+00
  0.9710590E+01  0.1183240E+02  0.0000000E+00  0.2671019E+00  0.1971320E+01  0.1041431E+00 -0.2459627E+00
  0.8504060E+01  0.1272720E+02  0.0000000E+00  0.2606810E+00  0.1967646E+01  0.1007571E+00 -0.2404217E+00
  0.7215620E+01  0.1349950E+02  0.0000000E+00  0.2551510E+00  0.1962626E+01  0.9743696E-01 -0.2358137E+00
  0.5857700E+01  0.1414170E+02  0.0000000E+00  0.2469855E+00  0.1958641E+01  0.9340838E-01 -0.2286411E+00
  0.4443360E+01  0.1464780E+02  0.0000000E+00  0.2325225E+00  0.1959675E+01  0.8816110E-01 -0.2151612E+00
  0.2986230E+01  0.1501280E+02  0.0000000E+00  0.2059773E+00  0.1969563E+01  0.7997733E-01 -0.1898164E+00
  0.1500340E+01  0.1523320E+02  0.0000000E+00  0.9489321E-01  0.2125680E+01  0.4999393E-01 -0.8065561E-01
 -0.6690860E-06  0.1530690E+02  0.0000000E+00  0.2832532E-01  0.3132713E+01  0.2832420E-01 -0.2515102E-03
 -0.1500340E+01  0.1523320E+02  0.0000000E+00  0.8796006E-01 -0.1655510E+01  0.7442531E-02  0.8764462E-01
 -0.2986230E+01  0.1501280E+02  0.0000000E+00  0.2315180E+00 -0.1488292E+01 -0.1907963E-01  0.2307304E+00
 -0.4443360E+01  0.1464780E+02  0.0000000E+00  0.2713520E+00 -0.1463076E+01 -0.2917369E-01  0.2697791E+00
 -0.5857700E+01  0.1414170E+02  0.0000000E+00  0.2927496E+00 -0.1444115E+01 -0.3698670E-01  0.2904037E+00
 -0.7215620E+01  0.1349950E+02  0.0000000E+00  0.3060645E+00 -0.1428290E+01 -0.4346852E-01  0.3029619E+00
 -0.8504060E+01  0.1272720E+02  0.0000000E+00  0.3154268E+00 -0.1414209E+01 -0.4919013E-01  0.3115676E+00
 -0.9710590E+01  0.1183240E+02  0.0000000E+00  0.3252472E+00 -0.1401250E+01 -0.5488054E-01  0.3205837E+00
 -0.1082360E+02  0.1082360E+02  0.0000000E+00  0.3303879E+00 -0.1389724E+01 -0.5949789E-01  0.3249864E+00
 -0.1183240E+02  0.9710590E+01  0.0000000E+00  0.3360509E+00 -0.1379942E+01 -0.6374797E-01  0.3299491E+00
 -0.1272720E+02  0.8504060E+01  0.0000000E+00  0.3414412E+00 -0.1371905E+01 -0.6746300E-01  0.3347101E+00
 -0.1349950E+02  0.7215620E+01  0.0000000E+00  0.3427689E+00 -0.1364985E+01 -0.7004877E-01  0.3355350E+00
 -0.1414170E+02  0.5857690E+01  0.0000000E+00  0.3425531E+00 -0.1359255E+01 -0.7192504E-01  0.3349170E+00
 -0.1464780E+02  0.4443360E+01  0.0000000E+00  0.3438813E+00 -0.1355390E+01 -0.7350267E-01  0.3359341E+00
 -0.1501280E+02  0.2986230E+01  0.0000000E+00  0.3464979E+00 -0.1353578E+01 -0.7467531E-01  0.3383555E+00
 -0.1523320E+02  0.1500340E+01  0.0000000E+00  0.3485677E+00 -0.1353409E+01 -0.7517888E-01  0.3403639E+00
 -0.1530690E+02 -0.1338170E-05  0.0000000E+00  0.3497776E+00 -0.1354807E+01 -0.7496213E-01  0.3416505E+00
 -0.1523320E+02 -0.1500340E+01  0.0000000E+00  0.3500768E+00 -0.1357769E+01 -0.7401322E-01  0.3421634E+00
 -0.1501280E+02 -0.2986230E+01  0.0000000E+00  0.3495713E+00 -0.1362337E+01 -0.7234490E-01  0.3420033E+00
 -0.1464780E+02 -0.4443360E+01  0.0000000E+00  0.3485647E+00 -0.1368731E+01 -0.6995465E-01  0.3414728E+00
 -0.1414170E+02 -0.5857700E+01  0.0000000E+00  0.3486551E+00 -0.1377724E+01 -0.6689832E-01  0.3421769E+00
 -0.1349950E+02 -0.7215620E+01  0.0000000E+00  0.3502486E+00 -0.1389300E+01 -0.6322032E-01  0.3444957E+00
 -0.1272720E+02 -0.8504060E+01  0.0000000E+00  0.3505605E+00 -0.1402263E+01 -0.5880201E-01  0.3455937E+00
 -0.1183240E+02 -0.9710600E+01  0.0000000E+00  0.3474018E+00 -0.1415808E+01 -0.5362782E-01  0.3432376E+00
 -0.1082360E+02 -0.1082360E+02  0.0000000E+00  0.3442800E+00 -0.1431533E+01 -0.4779081E-01  0.3409469E+00
 -0.9710600E+01 -0.1183240E+02  0.0000000E+00  0.3417336E+00 -0.1449679E+01 -0.4128879E-01  0.3392301E+00
 -0.8504050E+01 -0.1272720E+02  0.0000000E+00  0.3352695E+00 -0.1469030E+01 -0.3406019E-01  0.3335350E+00
 -0.7215620E+01 -0.1349950E+02  0.0000000E+00  0.3297827E+00 -0.1491169E+01 -0.2623200E-01  0.3287378E+00
 -0.5857690E+01 -0.1414170E+02  0.0000000E+00  0.3218038E+00 -0.1515529E+01 -0.1777627E-01  0.3213125E+00
 -0.4443360E+01 -0.1464780E+02  0.0000000E+00  0.3076194E+00 -0.1543349E+01 -0.8442188E-02  0.3075035E+00
 -0.2986230E+01 -0.1501280E+02  0.0000000E+00  0.2816063E+00 -0.1576831E+01  0.1699302E-02  0.2816012E+00
 -0.1500340E+01 -0.1523320E+02  0.0000000E+00  0.1716768E+00 -0.1636658E+01  0.1129869E-01  0.1713046E+00
  0.1825330E-06 -0.1530690E+02  0.0000000E+00  0.9284911E-01 -0.1790484E+01  0.2023413E-01  0.9061754E-01
  0.1500340E+01 -0.1523320E+02  0.0000000E+00  0.3041043E-01 -0.3045618E+01  0.3027048E-01  0.2914162E-02
  0.2986230E+01 -0.1501280E+02  0.0000000E+00  0.1461174E+00  0.1881239E+01  0.4463603E-01 -0.1391327E+00
  0.4443360E+01 -0.1464780E+02  0.0000000E+00  0.1855915E+00  0.1864007E+01  0.5364111E-01 -0.1776706E+00
  0.5857700E+01 -0.1414170E+02  0.0000000E+00  0.2072092E+00  0.1870040E+01  0.6108469E-01 -0.1980008E+00
  0.7215620E+01 -0.1349950E+02  0.0000000E+00  0.2209958E+00  0.1882691E+01  0.6781521E-01 -0.2103336E+00
  0.8504060E+01 -0.1272720E+02  0.0000000E+00  0.2309534E+00  0.1897103E+01  0.7403133E-01 -0.2187666E+00
  0.9710600E+01 -0.1183240E+02  0.0000000E+00  0.2412269E+00  0.1908112E+01  0.7983524E-01 -0.2276329E+00
  0.1082360E+02 -0.1082360E+02  0.0000000E+00  0.2470177E+00  0.1922313E+01  0.8505370E-01 -0.2319129E+00
  0.1183240E+02 -0.9710590E+01  0.0000000E+00  0.2532877E+00  0.1934012E+01  0.8998857E-01 -0.2367630E+00
  0.1272720E+02 -0.8504060E+01  0.0000000E+00  0.2592956E+00  0.1944186E+01  0.9458410E-01 -0.2414292E+00
  0.1349950E+02 -0.7215620E+01  0.0000000E+00  0.2614702E+00  0.1957320E+01  0.9856658E-01 -0.2421802E+00
  0.1414170E+02 -0.5857700E+01  0.0000000E+00  0.2621336E+00  0.1970245E+01  0.1019466E+00 -0.2414973E+00
  0.1464780E+02 -0.4443350E+01  0.0000000E+00  0.2641692E+00  0.1979132E+01  0.1048968E+00 -0.2424500E+00
  0.1501280E+02 -0.2986230E+01  0.0000000E+00  0.2673463E+00  0.1984362E+01  0.1074404E+00 -0.2448073E+00
  0.1523320E+02 -0.1500330E+01  0.0000000E+00  0.2699599E+00  0.1988363E+01  0.1094789E+00 -0.2467645E+00
  0.1530690E+02  0.0000000E+00 -0.2568960E-01  0.2714919E+00  0.1991596E+01  0.1109018E+00 -0.2478077E+00
  0.1523320E+02  0.1500340E+01 -0.2568960E-01  0.2723386E+00  0.1994142E+01  0.1118803E+00 -0.2482964E+00
  0.1501280E+02  0.2986230E+01 -0.2568960E-01  0.2723711E+00  0.1995897E+01  0.1123293E+00 -0.2481293E+00
  0.1464780E+02  0.4443360E+01 -0.2568960E-01  0.2718843E+00  0.1996615E+01  0.1123064E+00 -0.2476052E+00
  0.1414170E+02  0.5857700E+01 -0.2568960E-01  0.2724506E+00  0.1994857E+01  0.1121039E+00 -0.2483184E+00
  0.1349950E+02  0.7215620E+01 -0.2568960E-01  0.2744354E+00  0.1990193E+01  0.1117528E+00 -0.2506514E+00
  0.1272720E+02  0.8504060E+01 -0.2568960E-01  0.2750856E+00  0.1985269E+01  0.1107789E+00 -0.2517938E+00
  0.1183240E+02  0.9710600E+01 -0.2568960E-01  0.2722048E+00  0.1981815E+01  0.1087576E+00 -0.2495341E+00
  0.1082360E+02  0.1082360E+02 -0.2568960E-01  0.2692796E+00  0.1977179E+01  0.1064432E+00 -0.2473486E+00
  0.9710590E+01  0.1183240E+02 -0.2568960E-01  0.2668608E+00  0.1971328E+01  0.1040511E+00 -0.2457398E+00
  0.8504060E+01  0.1272720E+02 -0.2568960E-01  0.2604708E+00  0.1967633E+01  0.1006728E+00 -0.2402291E+00
  0.7215620E+01  0.1349950E+02 -0.2568960E-01  0.2549429E+00  0.1962608E+01  0.9735346E-01 -0.2356230E+00
  0.5857700E+01  0.1414170E+02 -0.2568960E-01  0.2467746E+00  0.1958648E+01  0.9333037E-01 -0.2284451E+00
  0.4443360E+01  0.1464780E+02 -0.2568960E-01  0.2323490E+00  0.1959651E+01  0.8809016E-01 -0.2150027E+00
  0.2986230E+01  0.1501280E+02 -0.2568960E-01  0.2058270E+00  0.1969545E+01  0.7991557E-01 -0.1896794E+00
  0.1500340E+01  0.1523320E+02 -0.2568960E-01  0.9483603E-01  0.2125560E+01  0.4995419E-01 -0.8061297E-01
 -0.6690860E-06  0.1530690E+02 -0.2568960E-01  0.2830392E-01  0.3132442E+01  0.2830273E-01 -0.2589860E-03
 -0.1500340E+01  0.1523320E+02 -0.2568960E-01  0.8787493E-01 -0.1655509E+01  0.7435237E-02  0.8755981E-01
 -0.2986230E+01  0.1501280E+02 -0.2568960E-01  0.2313342E+00 -0.1488291E+01 -0.1906471E-01  0.2305473E+00
 -0.4443360E+01  0.1464780E+02 -0.2568960E-01  0.2711389E+00 -0.1463079E+01 -0.2914982E-01  0.2695674E+00
 -0.5857700E+01  0.1414170E+02 -0.2568960E-01  0.2924975E+00 -0.1444122E+01 -0.3695288E-01  0.2901538E+00
 -0.7215620E+01  0.1349950E+02 -0.2568960E-01  0.3058080E+00 -0.1428299E+01 -0.4342961E-01  0.3027084E+00
 -0.8504060E+01  0.1272720E+02 -0.2568960E-01  0.3151666E+00 -0.1414219E+01 -0.4914657E-01  0.3113111E+00
 -0.9710590E+01  0.1183240E+02 -0.2568960E-01  0.3249509E+00 -0.1401262E+01 -0.5482692E-01  0.3202922E+00
 -0.1082360E+02  0.1082360E+02 -0.2568960E-01  0.3301013E+00 -0.1389734E+01 -0.5944298E-01  0.3247051E+00
 -0.1183240E+02  0.9710590E+01 -0.2568960E-01  0.3357514E+00 -0.1379950E+01 -0.6368873E-01  0.3296555E+00
 -0.1272720E+02  0.8504060E+01 -0.2568960E-01  0.3411191E+00 -0.1371910E+01 -0.6739757E-01  0.3343947E+00
 -0.1349950E+02  0.7215620E+01 -0.2568960E-01  0.3424553E+00 -0.1364993E+01 -0.6998201E-01  0.3352285E+00
 -0.1414170E+02  0.5857690E+01 -0.2568960E-01  0.3422604E+00 -0.1359266E+01 -0.7185971E-01  0.3346317E+00
 -0.1464780E+02  0.4443360E+01 -0.2568960E-01  0.3435954E+00 -0.1355397E+01 -0.7343918E-01  0.3356553E+00
 -0.1501280E+02  0.2986230E+01 -0.2568960E-01  0.3462062E+00 -0.1353594E+01 -0.7460678E-01  0.3380719E+00
 -0.1523320E+02  0.1500340E+01 -0.2568960E-01  0.3482722E+00 -0.1353418E+01 -0.7511187E-01  0.3400761E+00
 -0.1530690E+02 -0.1338170E-05 -0.2568960E-01  0.3494792E+00 -0.1354819E+01 -0.7489424E-01  0.3413599E+00
 -0.1523320E+02 -0.1500340E+01 -0.2568960E-01  0.3497790E+00 -0.1357778E+01 -0.7394703E-01  0.3418730E+00
 -0.1501280E+02 -0.2986230E+01 -0.2568960E-01  0.3492756E+00 -0.1362352E+01 -0.7227840E-01  0.3417152E+00
 -0.1464780E+02 -0.4443360E+01 -0.2568960E-01  0.3482725E+00 -0.1368748E+01 -0.6989013E-01  0.3411878E+00
 -0.1414170E+02 -0.5857700E+01 -0.2568960E-01  0.3483557E+00 -0.1377737E+01 -0.6683625E-01  0.3418839E+00
 -0.1349950E+02 -0.7215620E+01 -0.2568960E-01  0.3499287E+00 -0.1389305E+01 -0.6316090E-01  0.3441814E+00
 -0.1272720E+02 -0.8504060E+01 -0.2568960E-01  0.3502314E+00 -0.1402269E+01 -0.5874463E-01  0.3452696E+00
 -0.1183240E+02 -0.9710600E+01 -0.2568960E-01  0.3470918E+00 -0.1415820E+01 -0.5357598E-01  0.3429320E+00
 -0.1082360E+02 -0.1082360E+02 -0.2568960E-01  0.3439787E+00 -0.1431544E+01 -0.4774509E-01  0.3406490E+00
 -0.9710600E+01 -0.1183240E+02 -0.2568960E-01  0.3414246E+00 -0.1449681E+01 -0.4125059E-01  0.3389235E+00
 -0.8504050E+01 -0.1272720E+02 -0.2568960E-01  0.3349898E+00 -0.1469049E+01 -0.3402556E-01  0.3332573E+00
 -0.7215620E+01 -0.1349950E+02 -0.2568960E-01  0.3295053E+00 -0.1491177E+01 -0.2620729E-01  0.3284615E+00
 -0.5857690E+01 -0.1414170E+02 -0.2568960E-01  0.3215241E+00 -0.1515540E+01 -0.1775727E-01  0.3210334E+00
 -0.4443360E+01 -0.1464780E+02 -0.2568960E-01  0.3073752E+00 -0.1543361E+01 -0.8431777E-02  0.3072596E+00
 -0.2986230E+01 -0.1501280E+02 -0.2568960E-01  0.2813854E+00 -0.1576848E+01  0.1702944E-02  0.2813802E+00
 -0.1500340E+01 -0.1523320E+02 -0.2568960E-01  0.1715480E+00 -0.1636660E+01  0.1129068E-01  0.1711761E+00
  0.1825330E-06 -0.1530690E+02 -0.2568960E-01  0.9277103E-01 -0.1790508E+01  0.2021925E-01  0.9054086E-01
  0.1500340E+01 -0.1523320E+02 -0.2568960E-01  0.3038466E-01 -0.3045494E+01  0.3024446E-01  0.2915430E-02
  0.2986230E+01 -0.1501280E+02 -0.2568960E-01  0.1460116E+00  0.1881216E+01  0.4460051E-01 -0.1390330E+00
  0.4443360E+01 -0.1464780E+02 -0.2568960E-01  0.1854565E+00  0.1863984E+01  0.5359798E-01 -0.1775426E+00
  0.5857700E+01 -0.1414170E+02 -0.2568960E-01  0.2070356E+00  0.1870039E+01  0.6103345E-01 -0.1978349E+00
  0.7215620E+01 -0.1349950E+02 -0.2568960E-01  0.2208162E+00  0.1882671E+01  0.6775595E-01 -0.2101640E+00
  0.8504060E+01 -0.1272720E+02 -0.2568960E-01  0.2307701E+00  0.1897077E+01  0.7396700E-01 -0.2185949E+00
  0.9710600E+01 -0.1183240E+02 -0.2568960E-01  0.2410082E+00  0.1908113E+01  0.7976308E-01 -0.2274265E+00
  0.1082360E+02 -0.1082360E+02 -0.2568960E-01  0.2468067E+00  0.1922306E+01  0.8497933E-01 -0.2317155E+00
  0.1183240E+02 -0.9710590E+01 -0.2568960E-01  0.2530642E+00  0.1934006E+01  0.8990766E-01 -0.2365546E+00
  0.1272720E+02 -0.8504060E+01 -0.2568960E-01  0.2590494E+00  0.1944208E+01  0.9449957E-01 -0.2411979E+00
  0.1349950E+02 -0.7215620E+01 -0.2568960E-01  0.2612315E+00  0.1957325E+01  0.9847783E-01 -0.2419587E+00
  0.1414170E+02 -0.5857700E+01 -0.2568960E-01  0.2619122E+00  0.1970223E+01  0.1018551E+00 -0.2412955E+00
  0.1464780E+02 -0.4443350E+01 -0.2568960E-01  0.2639548E+00  0.1979108E+01  0.1048061E+00 -0.2422557E+00
  0.1501280E+02 -0.2986230E+01 -0.2568960E-01  0.2671277E+00  0.1984334E+01  0.1073457E+00 -0.2446101E+00
  0.1523320E+02 -0.1500330E+01 -0.2568960E-01  0.2697350E+00  0.1988342E+01  0.1093824E+00 -0.2465613E+00
  0.1530690E+02  0.0000000E+00 -0.1027320E+00  0.2708332E+00  0.1991504E+01  0.1106101E+00 -0.2472165E+00
  0.1523320E+02  0.1500340E+01 -0.1027320E+00  0.2716805E+00  0.1994058E+01  0.1115892E+00 -0.2477058E+00
  0.1501280E+02  0.2986230E+01 -0.1027320E+00  0.2717179E+00  0.1995806E+01  0.1120374E+00 -0.2475444E+00
  0.1464780E+02  0.4443360E+01 -0.1027320E+00  0.2712415E+00  0.1996533E+01  0.1120206E+00 -0.2470291E+00
  0.1414170E+02  0.5857700E+01 -0.1027320E+00  0.2717825E+00  0.1994792E+01  0.1118128E+00 -0.2477169E+00
  0.1349950E+02  0.7215620E+01 -0.1027320E+00  0.2737035E+00  0.1990176E+01  0.1114504E+00 -0.2499848E+00
  0.1272720E+02  0.8504060E+01 -0.1027320E+00  0.2743247E+00  0.1985281E+01  0.1104755E+00 -0.2510961E+00
  0.1183240E+02  0.9710600E+01 -0.1027320E+00  0.2715016E+00  0.1981802E+01  0.1084733E+00 -0.2488908E+00
  0.1082360E+02  0.1082360E+02 -0.1027320E+00  0.2686001E+00  0.1977157E+01  0.1061692E+00 -0.2467268E+00
  0.9710590E+01  0.1183240E+02 -0.1027320E+00  0.2661506E+00  0.1971326E+01  0.1037738E+00 -0.2450860E+00
  0.8504060E+01  0.1272720E+02 -0.1027320E+00  0.2598481E+00  0.1967585E+01  0.1004206E+00 -0.2396597E+00
  0.7215620E+01  0.1349950E+02 -0.1027320E+00  0.2542971E+00  0.1962596E+01  0.9710391E-01 -0.2350274E+00
  0.5857700E+01  0.1414170E+02 -0.1027320E+00  0.2461541E+00  0.1958647E+01  0.9309536E-01 -0.2278708E+00
  0.4443360E+01  0.1464780E+02 -0.1027320E+00  0.2318342E+00  0.1959599E+01  0.8788382E-01 -0.2145310E+00
  0.2986230E+01  0.1501280E+02 -0.1027320E+00  0.2053481E+00  0.1969518E+01  0.7972448E-01 -0.1892402E+00
  0.1500340E+01  0.1523320E+02 -0.1027320E+00  0.9473254E-01  0.2125078E+01  0.4986085E-01 -0.8054905E-01
 -0.6690860E-06  0.1530690E+02 -0.1027320E+00  0.2823733E-01  0.3131746E+01  0.2823596E-01 -0.2780326E-03
 -0.1500340E+01  0.1523320E+02 -0.1027320E+00  0.8776122E-01 -0.1655214E+01  0.7399833E-02  0.8744869E-01
 -0.2986230E+01  0.1501280E+02 -0.1027320E+00  0.2307601E+00 -0.1488309E+01 -0.1901320E-01  0.2299754E+00
 -0.4443360E+01  0.1464780E+02 -0.1027320E+00  0.2705082E+00 -0.1463084E+01 -0.2908069E-01  0.2689405E+00
 -0.5857700E+01  0.1414170E+02 -0.1027320E+00  0.2917472E+00 -0.1444155E+01 -0.3684869E-01  0.2894108E+00
 -0.7215620E+01  0.1349950E+02 -0.1027320E+00  0.3050161E+00 -0.1428326E+01 -0.4330896E-01  0.3019257E+00
 -0.8504060E+01  0.1272720E+02 -0.1027320E+00  0.3143939E+00 -0.1414234E+01 -0.4902136E-01  0.3105486E+00
 -0.9710590E+01  0.1183240E+02 -0.1027320E+00  0.3240777E+00 -0.1401289E+01 -0.5467103E-01  0.3194330E+00
 -0.1082360E+02  0.1082360E+02 -0.1027320E+00  0.3292565E+00 -0.1389764E+01 -0.5928095E-01  0.3238760E+00
 -0.1183240E+02  0.9710590E+01 -0.1027320E+00  0.3348714E+00 -0.1379979E+01 -0.6351203E-01  0.3287933E+00
 -0.1272720E+02  0.8504060E+01 -0.1027320E+00  0.3401717E+00 -0.1371932E+01 -0.6720310E-01  0.3334674E+00
 -0.1349950E+02  0.7215620E+01 -0.1027320E+00  0.3415365E+00 -0.1365008E+01 -0.6978922E-01  0.3343301E+00
 -0.1414170E+02  0.5857690E+01 -0.1027320E+00  0.3414053E+00 -0.1359291E+01 -0.7167182E-01  0.3337975E+00
 -0.1464780E+02  0.4443360E+01 -0.1027320E+00  0.3427615E+00 -0.1355435E+01 -0.7324813E-01  0.3348435E+00
 -0.1501280E+02  0.2986230E+01 -0.1027320E+00  0.3453586E+00 -0.1353626E+01 -0.7441339E-01  0.3372464E+00
 -0.1523320E+02  0.1500340E+01 -0.1027320E+00  0.3474099E+00 -0.1353456E+01 -0.7491313E-01  0.3392369E+00
 -0.1530690E+02 -0.1338170E-05 -0.1027320E+00  0.3486098E+00 -0.1354865E+01 -0.7469206E-01  0.3405141E+00
 -0.1523320E+02 -0.1500340E+01 -0.1027320E+00  0.3489116E+00 -0.1357826E+01 -0.7374733E-01  0.3410288E+00
 -0.1501280E+02 -0.2986230E+01 -0.1027320E+00  0.3484160E+00 -0.1362401E+01 -0.7208382E-01  0.3408777E+00
 -0.1464780E+02 -0.4443360E+01 -0.1027320E+00  0.3474206E+00 -0.1368800E+01 -0.6970159E-01  0.3403568E+00
 -0.1414170E+02 -0.5857700E+01 -0.1027320E+00  0.3474802E+00 -0.1377784E+01 -0.6665249E-01  0.3410278E+00
 -0.1349950E+02 -0.7215620E+01 -0.1027320E+00  0.3489916E+00 -0.1389326E+01 -0.6298450E-01  0.3432610E+00
 -0.1272720E+02 -0.8504060E+01 -0.1027320E+00  0.3492651E+00 -0.1402277E+01 -0.5857964E-01  0.3443175E+00
 -0.1183240E+02 -0.9710600E+01 -0.1027320E+00  0.3461810E+00 -0.1415847E+01 -0.5342609E-01  0.3420335E+00
 -0.1082360E+02 -0.1082360E+02 -0.1027320E+00  0.3430925E+00 -0.1431588E+01 -0.4760736E-01  0.3397734E+00
 -0.9710600E+01 -0.1183240E+02 -0.1027320E+00  0.3405088E+00 -0.1449711E+01 -0.4112992E-01  0.3380156E+00
 -0.8504050E+01 -0.1272720E+02 -0.1027320E+00  0.3341618E+00 -0.1469090E+01 -0.3392788E-01  0.3324349E+00
 -0.7215620E+01 -0.1349950E+02 -0.1027320E+00  0.3286535E+00 -0.1491214E+01 -0.2612751E-01  0.3276134E+00
 -0.5857690E+01 -0.1414170E+02 -0.1027320E+00  0.3206940E+00 -0.1515580E+01 -0.1769858E-01  0.3202052E+00
 -0.4443360E+01 -0.1464780E+02 -0.1027320E+00  0.3066524E+00 -0.1543403E+01 -0.8399219E-02  0.3065374E+00
 -0.2986230E+01 -0.1501280E+02 -0.1027320E+00  0.2806958E+00 -0.1576888E+01  0.1709783E-02  0.2806906E+00
 -0.1500340E+01 -0.1523320E+02 -0.1027320E+00  0.1712336E+00 -0.1636654E+01  0.1126899E-01  0.1708624E+00
  0.1825330E-06 -0.1530690E+02 -0.1027320E+00  0.9253806E-01 -0.1790587E+01  0.2017563E-01  0.9031188E-01
  0.1500340E+01 -0.1523320E+02 -0.1027320E+00  0.3030495E-01 -0.3049773E+01  0.3017729E-01  0.2778675E-02
  0.2986230E+01 -0.1501280E+02 -0.1027320E+00  0.1456728E+00  0.1881197E+01  0.4449434E-01 -0.1387113E+00
  0.4443360E+01 -0.1464780E+02 -0.1027320E+00  0.1850582E+00  0.1863880E+01  0.5346438E-01 -0.1771668E+00
  0.5857700E+01 -0.1414170E+02 -0.1027320E+00  0.2065202E+00  0.1870026E+01  0.6087892E-01 -0.1973432E+00
  0.7215620E+01 -0.1349950E+02 -0.1027320E+00  0.2202588E+00  0.1882657E+01  0.6758194E-01 -0.2096345E+00
  0.8504060E+01 -0.1272720E+02 -0.1027320E+00  0.2302273E+00  0.1897004E+01  0.7377706E-01 -0.2180861E+00
  0.9710600E+01 -0.1183240E+02 -0.1027320E+00  0.2403660E+00  0.1908126E+01  0.7955348E-01 -0.2268194E+00
  0.1082360E+02 -0.1082360E+02 -0.1027320E+00  0.2461895E+00  0.1922268E+01  0.8475812E-01 -0.2311392E+00
  0.1183240E+02 -0.9710590E+01 -0.1027320E+00  0.2524109E+00  0.1933991E+01  0.8967216E-01 -0.2359452E+00
  0.1272720E+02 -0.8504060E+01 -0.1027320E+00  0.2583300E+00  0.1944236E+01  0.9424395E-01 -0.2405254E+00
