 VARIABLES="X" "Y" "Z" "abs(eta) (m)" "angle(phi) (rad)" "PRE1" "PRE2"
ZONE N=   3200 ,E =    3136 ,F=FEPOINT,ET=QUADRILATERAL
  0.1530690E+02  0.0000000E+00  0.0000000E+00  0.6732734E+00 -0.9464798E+00 -0.3935572E+00  0.5462691E+00
  0.1523320E+02  0.1500340E+01  0.0000000E+00  0.6729459E+00 -0.9495758E+00 -0.3916734E+00  0.5472186E+00
  0.1501280E+02  0.2986230E+01  0.0000000E+00  0.6728582E+00 -0.9568692E+00 -0.3876214E+00  0.5499889E+00
  0.1464780E+02  0.4443360E+01  0.0000000E+00  0.6728201E+00 -0.9682450E+00 -0.3813183E+00  0.5543313E+00
  0.1414170E+02  0.5857700E+01  0.0000000E+00  0.6713211E+00 -0.9827771E+00 -0.3723912E+00  0.5585667E+00
  0.1349950E+02  0.7215620E+01  0.0000000E+00  0.6643327E+00 -0.9983815E+00 -0.3598448E+00  0.5584350E+00
  0.1272720E+02  0.8504060E+01  0.0000000E+00  0.6535164E+00 -0.1015958E+01 -0.3442765E+00  0.5554795E+00
  0.1183240E+02  0.9710600E+01  0.0000000E+00  0.6414005E+00 -0.1036854E+01 -0.3264284E+00  0.5521224E+00
  0.1082360E+02  0.1082360E+02  0.0000000E+00  0.6296617E+00 -0.1062186E+01 -0.3066225E+00  0.5499605E+00
  0.9710590E+01  0.1183240E+02  0.0000000E+00  0.6150528E+00 -0.1090583E+01 -0.2841347E+00  0.5454882E+00
  0.8504060E+01  0.1272720E+02  0.0000000E+00  0.5951968E+00 -0.1121238E+01 -0.2586532E+00  0.5360577E+00
  0.7215620E+01  0.1349950E+02  0.0000000E+00  0.5786218E+00 -0.1157899E+01 -0.2321807E+00  0.5299956E+00
  0.5857700E+01  0.1414170E+02  0.0000000E+00  0.5506045E+00 -0.1196726E+01 -0.2011949E+00  0.5125290E+00
  0.4443360E+01  0.1464780E+02  0.0000000E+00  0.5143562E+00 -0.1241078E+01 -0.1665367E+00  0.4866496E+00
  0.2986230E+01  0.1501280E+02  0.0000000E+00  0.4535646E+00 -0.1291562E+01 -0.1250113E+00  0.4359966E+00
  0.1500340E+01  0.1523320E+02  0.0000000E+00  0.2506978E+00 -0.1356219E+01 -0.5338217E-01  0.2449484E+00
 -0.6690860E-06  0.1530690E+02  0.0000000E+00  0.1111700E+00 -0.1629268E+01  0.6496548E-02  0.1109800E+00
 -0.1500340E+01  0.1523320E+02  0.0000000E+00  0.7600912E-01  0.2769498E+01  0.7080766E-01 -0.2763442E-01
 -0.2986230E+01  0.1501280E+02  0.0000000E+00  0.2883655E+00  0.2164859E+01  0.1614074E+00 -0.2389609E+00
 -0.4443360E+01  0.1464780E+02  0.0000000E+00  0.3602473E+00  0.2172361E+01  0.2038758E+00 -0.2970064E+00
 -0.5857700E+01  0.1414170E+02  0.0000000E+00  0.4026816E+00  0.2196778E+01  0.2359282E+00 -0.3263286E+00
 -0.7215620E+01  0.1349950E+02  0.0000000E+00  0.4354381E+00  0.2222298E+01  0.2640416E+00 -0.3462491E+00
 -0.8504060E+01  0.1272720E+02  0.0000000E+00  0.4561485E+00  0.2252760E+01  0.2875190E+00 -0.3541246E+00
 -0.9710590E+01  0.1183240E+02  0.0000000E+00  0.4793873E+00  0.2275515E+01  0.3105564E+00 -0.3651944E+00
 -0.1082360E+02  0.1082360E+02  0.0000000E+00  0.4965888E+00  0.2298445E+01  0.3302887E+00 -0.3708231E+00
 -0.1183240E+02  0.9710590E+01  0.0000000E+00  0.5107566E+00  0.2319835E+01  0.3477921E+00 -0.3740495E+00
 -0.1272720E+02  0.8504060E+01  0.0000000E+00  0.5252846E+00  0.2336675E+01  0.3641120E+00 -0.3786112E+00
 -0.1349950E+02  0.7215620E+01  0.0000000E+00  0.5383078E+00  0.2350831E+01  0.3785939E+00 -0.3826773E+00
 -0.1414170E+02  0.5857690E+01  0.0000000E+00  0.5474096E+00  0.2364767E+01  0.3903811E+00 -0.3837445E+00
 -0.1464780E+02  0.4443360E+01  0.0000000E+00  0.5510589E+00  0.2379881E+01  0.3987771E+00 -0.3803193E+00
 -0.1501280E+02  0.2986230E+01  0.0000000E+00  0.5531426E+00  0.2392193E+01  0.4049546E+00 -0.3768003E+00
 -0.1523320E+02  0.1500340E+01  0.0000000E+00  0.5551197E+00  0.2400008E+01  0.4093449E+00 -0.3749595E+00
 -0.1530690E+02 -0.1338170E-05  0.0000000E+00  0.5571708E+00  0.2403103E+01  0.4120199E+00 -0.3750718E+00
 -0.1523320E+02 -0.1500340E+01  0.0000000E+00  0.5582173E+00  0.2402888E+01  0.4127131E+00 -0.3758650E+00
 -0.1501280E+02 -0.2986230E+01  0.0000000E+00  0.5593916E+00  0.2398324E+01  0.4118582E+00 -0.3785390E+00
 -0.1464780E+02 -0.4443360E+01  0.0000000E+00  0.5605146E+00  0.2389683E+01  0.4093920E+00 -0.3828508E+00
 -0.1414170E+02 -0.5857700E+01  0.0000000E+00  0.5601001E+00  0.2378487E+01  0.4047805E+00 -0.3871239E+00
 -0.1349950E+02 -0.7215620E+01  0.0000000E+00  0.5541340E+00  0.2368188E+01  0.3965031E+00 -0.3871043E+00
 -0.1272720E+02 -0.8504060E+01  0.0000000E+00  0.5441233E+00  0.2357254E+01  0.3851605E+00 -0.3843456E+00
 -0.1183240E+02 -0.9710600E+01  0.0000000E+00  0.5326385E+00  0.2343767E+01  0.3719230E+00 -0.3812836E+00
 -0.1082360E+02 -0.1082360E+02  0.0000000E+00  0.5215402E+00  0.2326713E+01  0.3577535E+00 -0.3794952E+00
 -0.9710600E+01 -0.1183240E+02  0.0000000E+00  0.5074005E+00  0.2308426E+01  0.3412449E+00 -0.3755092E+00
 -0.8504050E+01 -0.1272720E+02  0.0000000E+00  0.4874457E+00  0.2289991E+01  0.3211192E+00 -0.3667231E+00
 -0.7215620E+01 -0.1349950E+02  0.0000000E+00  0.4704901E+00  0.2265486E+01  0.3011827E+00 -0.3614552E+00
 -0.5857690E+01 -0.1414170E+02  0.0000000E+00  0.4416158E+00  0.2244923E+01  0.2756633E+00 -0.3450134E+00
 -0.4443360E+01 -0.1464780E+02  0.0000000E+00  0.4039808E+00  0.2225363E+01  0.2459500E+00 -0.3204826E+00
 -0.2986230E+01 -0.1501280E+02  0.0000000E+00  0.3400509E+00  0.2214030E+01  0.2039578E+00 -0.2720953E+00
 -0.1500340E+01 -0.1523320E+02  0.0000000E+00  0.1284396E+00  0.2412048E+01  0.9574888E-01 -0.8560891E-01
  0.1825330E-06 -0.1530690E+02  0.0000000E+00  0.5043085E-01 -0.1933425E+01  0.1788947E-01  0.4715121E-01
  0.1500340E+01 -0.1523320E+02  0.0000000E+00  0.1946976E+00 -0.1279253E+01 -0.5596214E-01  0.1864817E+00
  0.2986230E+01 -0.1501280E+02  0.0000000E+00  0.4278425E+00 -0.1220192E+01 -0.1469492E+00  0.4018148E+00
  0.4443360E+01 -0.1464780E+02  0.0000000E+00  0.4990622E+00 -0.1182269E+01 -0.1890578E+00  0.4618660E+00
  0.5857700E+01 -0.1414170E+02  0.0000000E+00  0.5402087E+00 -0.1146642E+01 -0.2223231E+00  0.4923392E+00
  0.7215620E+01 -0.1349950E+02  0.0000000E+00  0.5715604E+00 -0.1114689E+01 -0.2517476E+00  0.5131320E+00
  0.8504060E+01 -0.1272720E+02  0.0000000E+00  0.5901197E+00 -0.1084483E+01 -0.2758042E+00  0.5217023E+00
  0.9710600E+01 -0.1183240E+02  0.0000000E+00  0.6117780E+00 -0.1058951E+01 -0.2996408E+00  0.5333739E+00
  0.1082360E+02 -0.1082360E+02  0.0000000E+00  0.6274146E+00 -0.1035092E+01 -0.3202619E+00  0.5395195E+00
  0.1183240E+02 -0.9710590E+01  0.0000000E+00  0.6398780E+00 -0.1013934E+01 -0.3381914E+00  0.5432039E+00
  0.1272720E+02 -0.8504060E+01  0.0000000E+00  0.6528473E+00 -0.9967549E+00 -0.3545157E+00  0.5482045E+00
  0.1349950E+02 -0.7215620E+01  0.0000000E+00  0.6642881E+00 -0.9826107E+00 -0.3685819E+00  0.5526537E+00
  0.1414170E+02 -0.5857700E+01  0.0000000E+00  0.6714548E+00 -0.9703943E+00 -0.3793546E+00  0.5540231E+00
  0.1464780E+02 -0.4443350E+01  0.0000000E+00  0.6728176E+00 -0.9591995E+00 -0.3863154E+00  0.5508574E+00
  0.1501280E+02 -0.2986230E+01  0.0000000E+00  0.6727096E+00 -0.9509781E+00 -0.3907684E+00  0.5475749E+00
  0.1523320E+02 -0.1500330E+01  0.0000000E+00  0.6727914E+00 -0.9466777E+00 -0.3931674E+00  0.5459558E+00
  0.1530690E+02  0.0000000E+00 -0.2568960E-01  0.6723892E+00 -0.9465008E+00 -0.3930289E+00  0.5455599E+00
  0.1523320E+02  0.1500340E+01 -0.2568960E-01  0.6720601E+00 -0.9495962E+00 -0.3911467E+00  0.5465062E+00
  0.1501280E+02  0.2986230E+01 -0.2568960E-01  0.6719603E+00 -0.9568818E+00 -0.3870972E+00  0.5492598E+00
  0.1464780E+02  0.4443360E+01 -0.2568960E-01  0.6719005E+00 -0.9682468E+00 -0.3807961E+00  0.5535743E+00
  0.1414170E+02  0.5857700E+01 -0.2568960E-01  0.6703830E+00 -0.9827676E+00 -0.3718762E+00  0.5577826E+00
  0.1349950E+02  0.7215620E+01 -0.2568960E-01  0.6634145E+00 -0.9983795E+00 -0.3593486E+00  0.5576625E+00
  0.1272720E+02  0.8504060E+01 -0.2568960E-01  0.6526374E+00 -0.1015967E+01 -0.3438080E+00  0.5547356E+00
  0.1183240E+02  0.9710600E+01 -0.2568960E-01  0.6405547E+00 -0.1036874E+01 -0.3259870E+00  0.5514008E+00
  0.1082360E+02  0.1082360E+02 -0.2568960E-01  0.6288244E+00 -0.1062201E+01 -0.3062067E+00  0.5492336E+00
  0.9710590E+01  0.1183240E+02 -0.2568960E-01  0.6142352E+00 -0.1090594E+01 -0.2837514E+00  0.5447659E+00
  0.8504060E+01  0.1272720E+02 -0.2568960E-01  0.5944473E+00 -0.1121263E+01 -0.2583143E+00  0.5353889E+00
  0.7215620E+01  0.1349950E+02 -0.2568960E-01  0.5778567E+00 -0.1157904E+01 -0.2318710E+00  0.5292960E+00
  0.5857700E+01  0.1414170E+02 -0.2568960E-01  0.5499019E+00 -0.1196743E+01 -0.2009295E+00  0.5118783E+00
  0.4443360E+01  0.1464780E+02 -0.2568960E-01  0.5137045E+00 -0.1241090E+01 -0.1663194E+00  0.4860352E+00
  0.2986230E+01  0.1501280E+02 -0.2568960E-01  0.4529903E+00 -0.1291568E+01 -0.1248505E+00  0.4354452E+00
  0.1500340E+01  0.1523320E+02 -0.2568960E-01  0.2504018E+00 -0.1356210E+01 -0.5332126E-01  0.2446587E+00
 -0.6690860E-06  0.1530690E+02 -0.2568960E-01  0.1110167E+00 -0.1629329E+01  0.6494398E-02  0.1108266E+00
 -0.1500340E+01  0.1523320E+02 -0.2568960E-01  0.7593248E-01  0.2769058E+01  0.7072410E-01 -0.2763771E-01
 -0.2986230E+01  0.1501280E+02 -0.2568960E-01  0.2880118E+00  0.2164818E+01  0.1611997E+00 -0.2386744E+00
 -0.4443360E+01  0.1464780E+02 -0.2568960E-01  0.3598022E+00  0.2172321E+01  0.2036121E+00 -0.2966475E+00
 -0.5857700E+01  0.1414170E+02 -0.2568960E-01  0.4021824E+00  0.2196737E+01  0.2356223E+00 -0.3259337E+00
 -0.7215620E+01  0.1349950E+02 -0.2568960E-01  0.4348718E+00  0.2222283E+01  0.2636930E+00 -0.3458026E+00
 -0.8504060E+01  0.1272720E+02 -0.2568960E-01  0.4555902E+00  0.2252706E+01  0.2871479E+00 -0.3537068E+00
 -0.9710590E+01  0.1183240E+02 -0.2568960E-01  0.4787560E+00  0.2275496E+01  0.3101407E+00 -0.3647192E+00
 -0.1082360E+02  0.1082360E+02 -0.2568960E-01  0.4959362E+00  0.2298426E+01  0.3298478E+00 -0.3703419E+00
 -0.1183240E+02  0.9710590E+01 -0.2568960E-01  0.5100945E+00  0.2319809E+01  0.3473315E+00 -0.3735736E+00
 -0.1272720E+02  0.8504060E+01 -0.2568960E-01  0.5245863E+00  0.2336663E+01  0.3636230E+00 -0.3781125E+00
 -0.1349950E+02  0.7215620E+01 -0.2568960E-01  0.5375679E+00  0.2350843E+01  0.3780784E+00 -0.3821464E+00
 -0.1414170E+02  0.5857690E+01 -0.2568960E-01  0.5466471E+00  0.2364789E+01  0.3898458E+00 -0.3832013E+00
 -0.1464780E+02  0.4443360E+01 -0.2568960E-01  0.5503121E+00  0.2379884E+01  0.3982376E+00 -0.3798029E+00
 -0.1501280E+02  0.2986230E+01 -0.2568960E-01  0.5524110E+00  0.2392174E+01  0.4044119E+00 -0.3763096E+00
 -0.1523320E+02  0.1500340E+01 -0.2568960E-01  0.5543987E+00  0.2399974E+01  0.4088004E+00 -0.3744865E+00
 -0.1530690E+02 -0.1338170E-05 -0.2568960E-01  0.5564490E+00  0.2403072E+01  0.4114747E+00 -0.3745985E+00
 -0.1523320E+02 -0.1500340E+01 -0.2568960E-01  0.5574920E+00  0.2402858E+01  0.4121658E+00 -0.3753887E+00
 -0.1501280E+02 -0.2986230E+01 -0.2568960E-01  0.5586512E+00  0.2398301E+01  0.4113042E+00 -0.3780476E+00
 -0.1464780E+02 -0.4443360E+01 -0.2568960E-01  0.5597529E+00  0.2389683E+01  0.4088357E+00 -0.3823307E+00
 -0.1414170E+02 -0.5857700E+01 -0.2568960E-01  0.5593188E+00  0.2378504E+01  0.4042225E+00 -0.3865769E+00
 -0.1349950E+02 -0.7215620E+01 -0.2568960E-01  0.5533713E+00  0.2368199E+01  0.3959615E+00 -0.3865673E+00
 -0.1272720E+02 -0.8504060E+01 -0.2568960E-01  0.5433984E+00  0.2357246E+01  0.3846444E+00 -0.3838365E+00
 -0.1183240E+02 -0.9710600E+01 -0.2568960E-01  0.5319466E+00  0.2343745E+01  0.3714310E+00 -0.3807968E+00
 -0.1082360E+02 -0.1082360E+02 -0.2568960E-01  0.5208573E+00  0.2326699E+01  0.3572800E+00 -0.3790031E+00
 -0.9710600E+01 -0.1183240E+02 -0.2568960E-01  0.5067326E+00  0.2308408E+01  0.3407889E+00 -0.3750211E+00
 -0.8504050E+01 -0.1272720E+02 -0.2568960E-01  0.4868459E+00  0.2289943E+01  0.3207062E+00 -0.3662873E+00
 -0.7215620E+01 -0.1349950E+02 -0.2568960E-01  0.4698766E+00  0.2265474E+01  0.3007856E+00 -0.3609875E+00
 -0.5857690E+01 -0.1414170E+02 -0.2568960E-01  0.4410672E+00  0.2244891E+01  0.2753097E+00 -0.3445937E+00
 -0.4443360E+01 -0.1464780E+02 -0.2568960E-01  0.4034833E+00  0.2225325E+01  0.2456348E+00 -0.3200974E+00
 -0.2986230E+01 -0.1501280E+02 -0.2568960E-01  0.3396367E+00  0.2213988E+01  0.2036979E+00 -0.2717724E+00
 -0.1500340E+01 -0.1523320E+02 -0.2568960E-01  0.1283106E+00  0.2411864E+01  0.9563699E-01 -0.8554053E-01
  0.1825330E-06 -0.1530690E+02 -0.2568960E-01  0.5036324E-01 -0.1933498E+01  0.1786896E-01  0.4708669E-01
  0.1500340E+01 -0.1523320E+02 -0.2568960E-01  0.1944721E+00 -0.1279235E+01 -0.5590071E-01  0.1862647E+00
  0.2986230E+01 -0.1501280E+02 -0.2568960E-01  0.4272961E+00 -0.1220195E+01 -0.1467602E+00  0.4013021E+00
  0.4443360E+01 -0.1464780E+02 -0.2568960E-01  0.4984266E+00 -0.1182270E+01 -0.1888166E+00  0.4612780E+00
  0.5857700E+01 -0.1414170E+02 -0.2568960E-01  0.5395216E+00 -0.1146646E+01 -0.2220383E+00  0.4917139E+00
  0.7215620E+01 -0.1349950E+02 -0.2568960E-01  0.5708038E+00 -0.1114696E+01 -0.2514108E+00  0.5124545E+00
  0.8504060E+01 -0.1272720E+02 -0.2568960E-01  0.5893801E+00 -0.1084499E+01 -0.2754499E+00  0.5210531E+00
  0.9710600E+01 -0.1183240E+02 -0.2568960E-01  0.6109647E+00 -0.1058958E+01 -0.2992390E+00  0.5326667E+00
  0.1082360E+02 -0.1082360E+02 -0.2568960E-01  0.6265829E+00 -0.1035099E+01 -0.3198334E+00  0.5388067E+00
  0.1183240E+02 -0.9710590E+01 -0.2568960E-01  0.6390368E+00 -0.1013952E+01 -0.3377372E+00  0.5424957E+00
  0.1272720E+02 -0.8504060E+01 -0.2568960E-01  0.6519700E+00 -0.9967643E+00 -0.3540342E+00  0.5474712E+00
  0.1349950E+02 -0.7215620E+01 -0.2568960E-01  0.6633695E+00 -0.9826074E+00 -0.3680740E+00  0.5518882E+00
  0.1414170E+02 -0.5857700E+01 -0.2568960E-01  0.6705140E+00 -0.9703895E+00 -0.3788258E+00  0.5532451E+00
  0.1464780E+02 -0.4443350E+01 -0.2568960E-01  0.6718966E+00 -0.9592040E+00 -0.3857842E+00  0.5501052E+00
  0.1501280E+02 -0.2986230E+01 -0.2568960E-01  0.6718131E+00 -0.9509889E+00 -0.3902417E+00  0.5468494E+00
  0.1523320E+02 -0.1500330E+01 -0.2568960E-01  0.6719062E+00 -0.9466975E+00 -0.3926393E+00  0.5452452E+00
  0.1530690E+02  0.0000000E+00 -0.1027320E+00  0.6698068E+00 -0.9465830E+00 -0.3914747E+00  0.5434967E+00
  0.1523320E+02  0.1500340E+01 -0.1027320E+00  0.6694695E+00 -0.9496782E+00 -0.3895943E+00  0.5444315E+00
  0.1501280E+02  0.2986230E+01 -0.1027320E+00  0.6693300E+00 -0.9569440E+00 -0.3855480E+00  0.5471338E+00
  0.1464780E+02  0.4443360E+01 -0.1027320E+00  0.6692021E+00 -0.9682722E+00 -0.3792528E+00  0.5513608E+00
  0.1414170E+02  0.5857700E+01 -0.1027320E+00  0.6676227E+00 -0.9827653E+00 -0.3703463E+00  0.5554852E+00
  0.1349950E+02  0.7215620E+01 -0.1027320E+00  0.6607121E+00 -0.9983853E+00 -0.3578816E+00  0.5553929E+00
  0.1272720E+02  0.8504060E+01 -0.1027320E+00  0.6500512E+00 -0.1016007E+01 -0.3424235E+00  0.5525512E+00
  0.1183240E+02  0.9710600E+01 -0.1027320E+00  0.6380624E+00 -0.1036934E+01 -0.3246858E+00  0.5492747E+00
  0.1082360E+02  0.1082360E+02 -0.1027320E+00  0.6263510E+00 -0.1062240E+01 -0.3049809E+00  0.5470852E+00
  0.9710590E+01  0.1183240E+02 -0.1027320E+00  0.6118125E+00 -0.1090620E+01 -0.2826182E+00  0.5426247E+00
  0.8504060E+01  0.1272720E+02 -0.1027320E+00  0.5922185E+00 -0.1121340E+01 -0.2573048E+00  0.5334013E+00
  0.7215620E+01  0.1349950E+02 -0.1027320E+00  0.5755317E+00 -0.1157917E+01 -0.2309313E+00  0.5271692E+00
  0.5857700E+01  0.1414170E+02 -0.1027320E+00  0.5478107E+00 -0.1196787E+01 -0.2001429E+00  0.5099405E+00
  0.4443360E+01  0.1464780E+02 -0.1027320E+00  0.5117501E+00 -0.1241113E+01 -0.1656756E+00  0.4841898E+00
  0.2986230E+01  0.1501280E+02 -0.1027320E+00  0.4512269E+00 -0.1291576E+01 -0.1243611E+00  0.4337511E+00
  0.1500340E+01  0.1523320E+02 -0.1027320E+00  0.2495704E+00 -0.1356217E+01 -0.5314253E-01  0.2438468E+00
 -0.6690860E-06  0.1530690E+02 -0.1027320E+00  0.1105620E+00 -0.1629419E+01  0.6477736E-02  0.1103721E+00
 -0.1500340E+01  0.1523320E+02 -0.1027320E+00  0.7576621E-01  0.2766889E+01  0.7050927E-01 -0.2773016E-01
 -0.2986230E+01  0.1501280E+02 -0.1027320E+00  0.2869121E+00  0.2164748E+01  0.1605675E+00 -0.2377743E+00
 -0.4443360E+01  0.1464780E+02 -0.1027320E+00  0.3584627E+00  0.2172207E+01  0.2028205E+00 -0.2955662E+00
 -0.5857700E+01  0.1414170E+02 -0.1027320E+00  0.4006934E+00  0.2196612E+01  0.2347097E+00 -0.3247562E+00
 -0.7215620E+01  0.1349950E+02 -0.1027320E+00  0.4331340E+00  0.2222262E+01  0.2626319E+00 -0.3444263E+00
 -0.8504060E+01  0.1272720E+02 -0.1027320E+00  0.4539327E+00  0.2252535E+01  0.2860429E+00 -0.3524689E+00
 -0.9710590E+01  0.1183240E+02 -0.1027320E+00  0.4768838E+00  0.2275425E+01  0.3089021E+00 -0.3633148E+00
 -0.1082360E+02  0.1082360E+02 -0.1027320E+00  0.4940109E+00  0.2298346E+01  0.3285379E+00 -0.3689305E+00
 -0.1183240E+02  0.9710590E+01 -0.1027320E+00  0.5081452E+00  0.2319700E+01  0.3459638E+00 -0.3721835E+00
 -0.1272720E+02  0.8504060E+01 -0.1027320E+00  0.5225297E+00  0.2336599E+01  0.3621735E+00 -0.3766532E+00
 -0.1349950E+02  0.7215620E+01 -0.1027320E+00  0.5353890E+00  0.2350843E+01  0.3765459E+00 -0.3805977E+00
 -0.1414170E+02  0.5857690E+01 -0.1027320E+00  0.5444059E+00  0.2364815E+01  0.3882571E+00 -0.3816206E+00
 -0.1464780E+02  0.4443360E+01 -0.1027320E+00  0.5481161E+00  0.2379844E+01  0.3966333E+00 -0.3783032E+00
 -0.1501280E+02  0.2986230E+01 -0.1027320E+00  0.5502732E+00  0.2392062E+01  0.4028047E+00 -0.3748987E+00
 -0.1523320E+02  0.1500340E+01 -0.1027320E+00  0.5522897E+00  0.2399827E+01  0.4071902E+00 -0.3731220E+00
 -0.1530690E+02 -0.1338170E-05 -0.1027320E+00  0.5543371E+00  0.2402919E+01  0.4098561E+00 -0.3732395E+00
 -0.1523320E+02 -0.1500340E+01 -0.1027320E+00  0.5553727E+00  0.2402714E+01  0.4105448E+00 -0.3740211E+00
 -0.1501280E+02 -0.2986230E+01 -0.1027320E+00  0.5564868E+00  0.2398198E+01  0.4096717E+00 -0.3766253E+00
 -0.1464780E+02 -0.4443360E+01 -0.1027320E+00  0.5575211E+00  0.2389643E+01  0.4071902E+00 -0.3808226E+00
 -0.1414170E+02 -0.5857700E+01 -0.1027320E+00  0.5570217E+00  0.2378515E+01  0.4025665E+00 -0.3849850E+00
 -0.1349950E+02 -0.7215620E+01 -0.1027320E+00  0.5511256E+00  0.2368187E+01  0.3943502E+00 -0.3850032E+00
 -0.1272720E+02 -0.8504060E+01 -0.1027320E+00  0.5412697E+00  0.2357182E+01  0.3831131E+00 -0.3823574E+00
 -0.1183240E+02 -0.9710600E+01 -0.1027320E+00  0.5299099E+00  0.2343648E+01  0.3699723E+00 -0.3793744E+00
 -0.1082360E+02 -0.1082360E+02 -0.1027320E+00  0.5188325E+00  0.2326624E+01  0.3558627E+00 -0.3775565E+00
 -0.9710600E+01 -0.1183240E+02 -0.1027320E+00  0.5047531E+00  0.2308337E+01  0.3394312E+00 -0.3735801E+00
 -0.8504050E+01 -0.1272720E+02 -0.1027320E+00  0.4850696E+00  0.2289798E+01  0.3194834E+00 -0.3649971E+00
 -0.7215620E+01 -0.1349950E+02 -0.1027320E+00  0.4680017E+00  0.2265443E+01  0.2995745E+00 -0.3595562E+00
 -0.5857690E+01 -0.1414170E+02 -0.1027320E+00  0.4394324E+00  0.2244780E+01  0.2742512E+00 -0.3433469E+00
 -0.4443360E+01 -0.1464780E+02 -0.1027320E+00  0.4019869E+00  0.2225199E+01  0.2446836E+00 -0.3189411E+00
 -0.2986230E+01 -0.1501280E+02 -0.1027320E+00  0.3383452E+00  0.2213898E+01  0.2028991E+00 -0.2707571E+00
 -0.1500340E+01 -0.1523320E+02 -0.1027320E+00  0.1279807E+00  0.2411202E+01  0.9533465E-01 -0.8538368E-01
  0.1825330E-06 -0.1530690E+02 -0.1027320E+00  0.5015580E-01 -0.1933776E+01  0.1780840E-01  0.4688779E-01
  0.1500340E+01 -0.1523320E+02 -0.1027320E+00  0.1938860E+00 -0.1279247E+01 -0.5573000E-01  0.1857039E+00
  0.2986230E+01 -0.1501280E+02 -0.1027320E+00  0.4256203E+00 -0.1220188E+01 -0.1461876E+00  0.3997272E+00
  0.4443360E+01 -0.1464780E+02 -0.1027320E+00  0.4965205E+00 -0.1182267E+01 -0.1880956E+00  0.4595135E+00
  0.5857700E+01 -0.1414170E+02 -0.1027320E+00  0.5374713E+00 -0.1146677E+01 -0.2211794E+00  0.4898521E+00
  0.7215620E+01 -0.1349950E+02 -0.1027320E+00  0.5685017E+00 -0.1114709E+01 -0.2503901E+00  0.5103909E+00
  0.8504060E+01 -0.1272720E+02 -0.1027320E+00  0.5871799E+00 -0.1084557E+01 -0.2743915E+00  0.5191238E+00
  0.9710600E+01 -0.1183240E+02 -0.1027320E+00  0.6085501E+00 -0.1058983E+01 -0.2980427E+00  0.5305693E+00
  0.1082360E+02 -0.1082360E+02 -0.1027320E+00  0.6241189E+00 -0.1035138E+01 -0.3185546E+00  0.5367004E+00
  0.1183240E+02 -0.9710590E+01 -0.1027320E+00  0.6365559E+00 -0.1014009E+01 -0.3363952E+00  0.5404087E+00
  0.1272720E+02 -0.8504060E+01 -0.1027320E+00  0.6493854E+00 -0.9968030E+00 -0.3526096E+00  0.5453145E+00
