 VARIABLES="X" "Y" "Z" "abs(eta) (m)" "angle(phi) (rad)" "PRE1" "PRE2"
ZONE N=   3200 ,E =    3136 ,F=FEPOINT,ET=QUADRILATERAL
  0.1672760E+02  0.0000000E+00  0.0000000E+00  0.5238717E+00 -0.8926699E+00 -0.3286431E+00  0.4079648E+00
  0.1664710E+02  0.1639590E+01  0.0000000E+00  0.5236041E+00 -0.8990563E+00 -0.3258644E+00  0.4098458E+00
  0.1640620E+02  0.3263390E+01  0.0000000E+00  0.5216439E+00 -0.9086679E+00 -0.3207051E+00  0.4114130E+00
  0.1600730E+02  0.4855770E+01  0.0000000E+00  0.5193001E+00 -0.9230221E+00 -0.3133524E+00  0.4141049E+00
  0.1545430E+02  0.6401380E+01  0.0000000E+00  0.5176167E+00 -0.9432393E+00 -0.3039285E+00  0.4189923E+00
  0.1475240E+02  0.7885340E+01  0.0000000E+00  0.5155321E+00 -0.9682997E+00 -0.2921527E+00  0.4247589E+00
  0.1390850E+02  0.9293360E+01  0.0000000E+00  0.5103220E+00 -0.9954584E+00 -0.2776756E+00  0.4281645E+00
  0.1293060E+02  0.1061190E+02  0.0000000E+00  0.4991404E+00 -0.1022336E+01 -0.2602388E+00  0.4259306E+00
  0.1182820E+02  0.1182820E+02  0.0000000E+00  0.4875506E+00 -0.1054299E+01 -0.2407705E+00  0.4239519E+00
  0.1061190E+02  0.1293060E+02  0.0000000E+00  0.4743713E+00 -0.1091011E+01 -0.2189644E+00  0.4208120E+00
  0.9293360E+01  0.1390850E+02  0.0000000E+00  0.4563199E+00 -0.1130628E+01 -0.1944340E+00  0.4128235E+00
  0.7885330E+01  0.1475240E+02  0.0000000E+00  0.4379856E+00 -0.1178212E+01 -0.1675634E+00  0.4046651E+00
  0.6401380E+01  0.1545430E+02  0.0000000E+00  0.4137186E+00 -0.1231617E+01 -0.1376498E+00  0.3901482E+00
  0.4855770E+01  0.1600730E+02  0.0000000E+00  0.3778509E+00 -0.1292205E+01 -0.1039095E+00  0.3632825E+00
  0.3263390E+01  0.1640620E+02  0.0000000E+00  0.3255155E+00 -0.1368460E+01 -0.6541523E-01  0.3188749E+00
  0.1639590E+01  0.1664710E+02  0.0000000E+00  0.2443405E+00 -0.1472836E+01 -0.2389735E-01  0.2431690E+00
 -0.7311870E-06  0.1672760E+02  0.0000000E+00  0.1572991E+00 -0.1657534E+01  0.1362666E-01  0.1567077E+00
 -0.1639590E+01  0.1664710E+02  0.0000000E+00  0.7471899E-01 -0.2258684E+01  0.4743959E-01  0.5772705E-01
 -0.3263390E+01  0.1640620E+02  0.0000000E+00  0.9302583E-01  0.2590568E+01  0.7925692E-01 -0.4870468E-01
 -0.4855770E+01  0.1600730E+02  0.0000000E+00  0.1611716E+00  0.2304797E+01  0.1079601E+00 -0.1196699E+00
 -0.6401380E+01  0.1545430E+02  0.0000000E+00  0.2114603E+00  0.2259351E+01  0.1343664E+00 -0.1632824E+00
 -0.7885340E+01  0.1475240E+02  0.0000000E+00  0.2477202E+00  0.2265452E+01  0.1585708E+00 -0.1903171E+00
 -0.9293360E+01  0.1390850E+02  0.0000000E+00  0.2758484E+00  0.2287312E+01  0.1811665E+00 -0.2080170E+00
 -0.1061190E+02  0.1293060E+02  0.0000000E+00  0.3016527E+00  0.2306366E+01  0.2024119E+00 -0.2236599E+00
 -0.1182820E+02  0.1182820E+02  0.0000000E+00  0.3217969E+00  0.2331761E+01  0.2219177E+00 -0.2330360E+00
 -0.1293060E+02  0.1061190E+02  0.0000000E+00  0.3399719E+00  0.2354352E+01  0.2399531E+00 -0.2408389E+00
 -0.1390850E+02  0.9293360E+01  0.0000000E+00  0.3576283E+00  0.2371404E+01  0.2566982E+00 -0.2490061E+00
 -0.1475240E+02  0.7885330E+01  0.0000000E+00  0.3692181E+00  0.2396280E+01  0.2713295E+00 -0.2504043E+00
 -0.1545430E+02  0.6401370E+01  0.0000000E+00  0.3775743E+00  0.2422301E+01  0.2840388E+00 -0.2487656E+00
 -0.1600730E+02  0.4855770E+01  0.0000000E+00  0.3852191E+00  0.2443274E+01  0.2950488E+00 -0.2476691E+00
 -0.1640620E+02  0.3263390E+01  0.0000000E+00  0.3931718E+00  0.2456749E+01  0.3045187E+00 -0.2487015E+00
 -0.1664710E+02  0.1639590E+01  0.0000000E+00  0.4007227E+00  0.2464485E+01  0.3123186E+00 -0.2510692E+00
 -0.1672760E+02 -0.1462370E-05  0.0000000E+00  0.4066641E+00  0.2470306E+01  0.3184269E+00 -0.2529426E+00
 -0.1664710E+02 -0.1639590E+01  0.0000000E+00  0.4108954E+00  0.2474369E+01  0.3227758E+00 -0.2542652E+00
 -0.1640620E+02 -0.3263400E+01  0.0000000E+00  0.4135439E+00  0.2476248E+01  0.3253367E+00 -0.2552931E+00
 -0.1600730E+02 -0.4855770E+01  0.0000000E+00  0.4159175E+00  0.2474044E+01  0.3266374E+00 -0.2574790E+00
 -0.1545430E+02 -0.6401380E+01  0.0000000E+00  0.4188811E+00  0.2466094E+01  0.3268928E+00 -0.2619207E+00
 -0.1475240E+02 -0.7885340E+01  0.0000000E+00  0.4214572E+00  0.2454416E+01  0.3258033E+00 -0.2673545E+00
 -0.1390850E+02 -0.9293360E+01  0.0000000E+00  0.4206543E+00  0.2442883E+01  0.3220836E+00 -0.2705776E+00
 -0.1293060E+02 -0.1061190E+02  0.0000000E+00  0.4130439E+00  0.2434610E+01  0.3140475E+00 -0.2682897E+00
 -0.1182820E+02 -0.1182820E+02  0.0000000E+00  0.4049430E+00  0.2423636E+01  0.3049835E+00 -0.2663906E+00
 -0.1061190E+02 -0.1293060E+02  0.0000000E+00  0.3950763E+00  0.2411458E+01  0.2943653E+00 -0.2635039E+00
 -0.9293350E+01 -0.1390850E+02  0.0000000E+00  0.3794003E+00  0.2401042E+01  0.2800344E+00 -0.2559791E+00
 -0.7885340E+01 -0.1475240E+02  0.0000000E+00  0.3630980E+00  0.2387669E+01  0.2647015E+00 -0.2485423E+00
 -0.6401370E+01 -0.1545430E+02  0.0000000E+00  0.3395858E+00  0.2377079E+01  0.2450857E+00 -0.2350565E+00
 -0.4855760E+01 -0.1600730E+02  0.0000000E+00  0.3023521E+00  0.2375723E+01  0.2179292E+00 -0.2095797E+00
 -0.3263390E+01 -0.1640620E+02  0.0000000E+00  0.2451650E+00  0.2391408E+01  0.1793536E+00 -0.1671471E+00
 -0.1639590E+01 -0.1664710E+02  0.0000000E+00  0.1526637E+00  0.2480820E+01  0.1205308E+00 -0.9369383E-01
  0.1994750E-06 -0.1672760E+02  0.0000000E+00  0.5581929E-01  0.2986897E+01  0.5515272E-01 -0.8600621E-02
  0.1639600E+01 -0.1664710E+02  0.0000000E+00  0.9149709E-01 -0.1404719E+01 -0.1512588E-01  0.9023816E-01
  0.3263390E+01 -0.1640620E+02  0.0000000E+00  0.2157343E+00 -0.1156881E+01 -0.8676776E-01  0.1975162E+00
  0.4855770E+01 -0.1600730E+02  0.0000000E+00  0.3029828E+00 -0.1095366E+01 -0.1386815E+00  0.2693808E+00
  0.6401380E+01 -0.1545430E+02  0.0000000E+00  0.3599479E+00 -0.1057409E+01 -0.1767816E+00  0.3135455E+00
  0.7885340E+01 -0.1475240E+02  0.0000000E+00  0.3984086E+00 -0.1027173E+01 -0.2060730E+00  0.3409741E+00
  0.9293360E+01 -0.1390850E+02  0.0000000E+00  0.4263659E+00 -0.1000848E+01 -0.2300621E+00  0.3589697E+00
  0.1061190E+02 -0.1293060E+02  0.0000000E+00  0.4520171E+00 -0.9780118E+00 -0.2525296E+00  0.3748977E+00
  0.1182820E+02 -0.1182820E+02  0.0000000E+00  0.4702700E+00 -0.9574290E+00 -0.2706988E+00  0.3845465E+00
  0.1293060E+02 -0.1061190E+02  0.0000000E+00  0.4862683E+00 -0.9398555E+00 -0.2868519E+00  0.3926484E+00
  0.1390850E+02 -0.9293360E+01  0.0000000E+00  0.5019038E+00 -0.9261057E+00 -0.3016196E+00  0.4011645E+00
  0.1475240E+02 -0.7885330E+01  0.0000000E+00  0.5092828E+00 -0.9125615E+00 -0.3115392E+00  0.4028800E+00
  0.1545430E+02 -0.6401380E+01  0.0000000E+00  0.5124442E+00 -0.9005473E+00 -0.3183207E+00  0.4015856E+00
  0.1600730E+02 -0.4855760E+01  0.0000000E+00  0.5150763E+00 -0.8920916E+00 -0.3233574E+00  0.4009285E+00
  0.1640620E+02 -0.3263390E+01  0.0000000E+00  0.5186104E+00 -0.8884935E+00 -0.3270264E+00  0.4025053E+00
  0.1664710E+02 -0.1639590E+01  0.0000000E+00  0.5221893E+00 -0.8891405E+00 -0.3290208E+00  0.4054959E+00
  0.1672760E+02  0.0000000E+00 -0.2568960E-01  0.5232010E+00 -0.8927058E+00 -0.3282077E+00  0.4074543E+00
  0.1664710E+02  0.1639590E+01 -0.2568960E-01  0.5229344E+00 -0.8990955E+00 -0.3254316E+00  0.4093344E+00
  0.1640620E+02  0.3263390E+01 -0.2568960E-01  0.5209754E+00 -0.9087121E+00 -0.3202759E+00  0.4108999E+00
  0.1600730E+02  0.4855770E+01 -0.2568960E-01  0.5186307E+00 -0.9230530E+00 -0.3129357E+00  0.4135808E+00
  0.1545430E+02  0.6401380E+01 -0.2568960E-01  0.5169322E+00 -0.9432607E+00 -0.3035176E+00  0.4184447E+00
  0.1475240E+02  0.7885340E+01 -0.2568960E-01  0.5148283E+00 -0.9682965E+00 -0.2917552E+00  0.4241781E+00
  0.1390850E+02  0.9293360E+01 -0.2568960E-01  0.5096123E+00 -0.9954515E+00 -0.2772923E+00  0.4275671E+00
  0.1293060E+02  0.1061190E+02 -0.2568960E-01  0.4984679E+00 -0.1022344E+01 -0.2598847E+00  0.4253589E+00
  0.1182820E+02  0.1182820E+02 -0.2568960E-01  0.4868982E+00 -0.1054318E+01 -0.2404403E+00  0.4233890E+00
  0.1061190E+02  0.1293060E+02 -0.2568960E-01  0.4737339E+00 -0.1091027E+01 -0.2186635E+00  0.4202501E+00
  0.9293360E+01  0.1390850E+02 -0.2568960E-01  0.4557304E+00 -0.1130653E+01 -0.1941727E+00  0.4122950E+00
  0.7885330E+01  0.1475240E+02 -0.2568960E-01  0.4374142E+00 -0.1178226E+01 -0.1673391E+00  0.4041396E+00
  0.6401380E+01  0.1545430E+02 -0.2568960E-01  0.4131788E+00 -0.1231640E+01 -0.1374611E+00  0.3896423E+00
  0.4855770E+01  0.1600730E+02 -0.2568960E-01  0.3773873E+00 -0.1292240E+01 -0.1037693E+00  0.3628404E+00
  0.3263390E+01  0.1640620E+02 -0.2568960E-01  0.3250926E+00 -0.1368484E+01 -0.6532254E-01  0.3184622E+00
  0.1639590E+01  0.1664710E+02 -0.2568960E-01  0.2440446E+00 -0.1472879E+01 -0.2385794E-01  0.2428756E+00
 -0.7311870E-06  0.1672760E+02 -0.2568960E-01  0.1571041E+00 -0.1657593E+01  0.1361904E-01  0.1565127E+00
 -0.1639590E+01  0.1664710E+02 -0.2568960E-01  0.7462720E-01 -0.2258766E+01  0.4738603E-01  0.5765226E-01
 -0.3263390E+01  0.1640620E+02 -0.2568960E-01  0.9291180E-01  0.2590529E+01  0.7915787E-01 -0.4864806E-01
 -0.4855770E+01  0.1600730E+02 -0.2568960E-01  0.1609965E+00  0.2304646E+01  0.1078247E+00 -0.1195563E+00
 -0.6401380E+01  0.1545430E+02 -0.2568960E-01  0.2111974E+00  0.2259293E+01  0.1341899E+00 -0.1630871E+00
 -0.7885340E+01  0.1475240E+02 -0.2568960E-01  0.2474074E+00  0.2265414E+01  0.1583634E+00 -0.1900828E+00
 -0.9293360E+01  0.1390850E+02 -0.2568960E-01  0.2755049E+00  0.2287241E+01  0.1809262E+00 -0.2077706E+00
 -0.1061190E+02  0.1293060E+02 -0.2568960E-01  0.3012545E+00  0.2306351E+01  0.2021413E+00 -0.2233678E+00
 -0.1182820E+02  0.1182820E+02 -0.2568960E-01  0.3213758E+00  0.2331729E+01  0.2216200E+00 -0.2327380E+00
 -0.1293060E+02  0.1061190E+02 -0.2568960E-01  0.3395227E+00  0.2354336E+01  0.2396321E+00 -0.2405247E+00
 -0.1390850E+02  0.9293360E+01 -0.2568960E-01  0.3571323E+00  0.2371433E+01  0.2563495E+00 -0.2486532E+00
 -0.1475240E+02  0.7885330E+01 -0.2568960E-01  0.3687163E+00  0.2396289E+01  0.2709629E+00 -0.2500617E+00
 -0.1545430E+02  0.6401370E+01 -0.2568960E-01  0.3770822E+00  0.2422269E+01  0.2836607E+00 -0.2484504E+00
 -0.1600730E+02  0.4855770E+01 -0.2568960E-01  0.3847353E+00  0.2443207E+01  0.2946616E+00 -0.2473779E+00
 -0.1640620E+02  0.3263390E+01 -0.2568960E-01  0.3926797E+00  0.2456671E+01  0.3041180E+00 -0.2484141E+00
 -0.1664710E+02  0.1639590E+01 -0.2568960E-01  0.4002213E+00  0.2464420E+01  0.3119116E+00 -0.2507754E+00
 -0.1672760E+02 -0.1462370E-05 -0.2568960E-01  0.4061528E+00  0.2470238E+01  0.3180093E+00 -0.2526462E+00
 -0.1664710E+02 -0.1639590E+01 -0.2568960E-01  0.4103816E+00  0.2474306E+01  0.3223563E+00 -0.2539676E+00
 -0.1640620E+02 -0.3263400E+01 -0.2568960E-01  0.4130279E+00  0.2476186E+01  0.3249150E+00 -0.2549947E+00
 -0.1600730E+02 -0.4855770E+01 -0.2568960E-01  0.4153960E+00  0.2473993E+01  0.3262147E+00 -0.2571727E+00
 -0.1545430E+02 -0.6401380E+01 -0.2568960E-01  0.4183353E+00  0.2466065E+01  0.3264595E+00 -0.2615888E+00
 -0.1475240E+02 -0.7885340E+01 -0.2568960E-01  0.4208849E+00  0.2454420E+01  0.3253619E+00 -0.2669901E+00
 -0.1390850E+02 -0.9293360E+01 -0.2568960E-01  0.4200704E+00  0.2442897E+01  0.3216403E+00 -0.2701974E+00
 -0.1293060E+02 -0.1061190E+02 -0.2568960E-01  0.4124942E+00  0.2434605E+01  0.3136283E+00 -0.2679341E+00
 -0.1182820E+02 -0.1182820E+02 -0.2568960E-01  0.4044104E+00  0.2423618E+01  0.3045775E+00 -0.2660457E+00
 -0.1061190E+02 -0.1293060E+02 -0.2568960E-01  0.3945537E+00  0.2411448E+01  0.2939732E+00 -0.2631584E+00
 -0.9293350E+01 -0.1390850E+02 -0.2568960E-01  0.3789245E+00  0.2401011E+01  0.2796751E+00 -0.2556670E+00
 -0.7885340E+01 -0.1475240E+02 -0.2568960E-01  0.3626350E+00  0.2387642E+01  0.2643574E+00 -0.2482323E+00
 -0.6401370E+01 -0.1545430E+02 -0.2568960E-01  0.3391540E+00  0.2377049E+01  0.2447670E+00 -0.2347649E+00
 -0.4855760E+01 -0.1600730E+02 -0.2568960E-01  0.3020023E+00  0.2375664E+01  0.2176648E+00 -0.2093500E+00
 -0.3263390E+01 -0.1640620E+02 -0.2568960E-01  0.2448577E+00  0.2391373E+01  0.1791230E+00 -0.1669438E+00
 -0.1639590E+01 -0.1664710E+02 -0.2568960E-01  0.1524982E+00  0.2480681E+01  0.1203871E+00 -0.9360896E-01
  0.1994750E-06 -0.1672760E+02 -0.2568960E-01  0.5575616E-01  0.2986523E+01  0.5508713E-01 -0.8611483E-02
  0.1639600E+01 -0.1664710E+02 -0.2568960E-01  0.9136349E-01 -0.1404695E+01 -0.1510589E-01  0.9010605E-01
  0.3263390E+01 -0.1640620E+02 -0.2568960E-01  0.2154469E+00 -0.1156886E+01 -0.8665109E-01  0.1972535E+00
  0.4855770E+01 -0.1600730E+02 -0.2568960E-01  0.3026217E+00 -0.1095368E+01 -0.1385157E+00  0.2690600E+00
  0.6401380E+01 -0.1545430E+02 -0.2568960E-01  0.3594849E+00 -0.1057420E+01 -0.1765505E+00  0.3131442E+00
  0.7885340E+01 -0.1475240E+02 -0.2568960E-01  0.3978900E+00 -0.1027182E+01 -0.2058017E+00  0.3405321E+00
  0.9293360E+01 -0.1390850E+02 -0.2568960E-01  0.4258223E+00 -0.1000856E+01 -0.2297660E+00  0.3585139E+00
  0.1061190E+02 -0.1293060E+02 -0.2568960E-01  0.4514104E+00 -0.9780194E+00 -0.2521878E+00  0.3743964E+00
  0.1182820E+02 -0.1182820E+02 -0.2568960E-01  0.4696454E+00 -0.9574410E+00 -0.2703347E+00  0.3840390E+00
  0.1293060E+02 -0.1061190E+02 -0.2568960E-01  0.4856173E+00 -0.9398638E+00 -0.2864647E+00  0.3921251E+00
  0.1390850E+02 -0.9293360E+01 -0.2568960E-01  0.5011987E+00 -0.9261087E+00 -0.3011948E+00  0.4006019E+00
  0.1475240E+02 -0.7885330E+01 -0.2568960E-01  0.5085823E+00 -0.9125646E+00 -0.3111094E+00  0.4023268E+00
  0.1545430E+02 -0.6401380E+01 -0.2568960E-01  0.5117669E+00 -0.9005645E+00 -0.3178931E+00  0.4010603E+00
  0.1600730E+02 -0.4855760E+01 -0.2568960E-01  0.5144160E+00 -0.8921232E+00 -0.3229302E+00  0.4004246E+00
  0.1640620E+02 -0.3263390E+01 -0.2568960E-01  0.5179530E+00 -0.8885255E+00 -0.3265990E+00  0.4020055E+00
  0.1664710E+02 -0.1639590E+01 -0.2568960E-01  0.5215210E+00 -0.8891790E+00 -0.3285842E+00  0.4049896E+00
  0.1672760E+02  0.0000000E+00 -0.1027320E+00  0.5212449E+00 -0.8928365E+00 -0.3269276E+00  0.4059736E+00
  0.1664710E+02  0.1639590E+01 -0.1027320E+00  0.5209765E+00 -0.8992376E+00 -0.3241552E+00  0.4078479E+00
  0.1640620E+02  0.3263390E+01 -0.1027320E+00  0.5190271E+00 -0.9088547E+00 -0.3190198E+00  0.4094087E+00
  0.1600730E+02  0.4855770E+01 -0.1027320E+00  0.5166724E+00 -0.9231861E+00 -0.3116992E+00  0.4120606E+00
  0.1545430E+02  0.6401380E+01 -0.1027320E+00  0.5149245E+00 -0.9433497E+00 -0.3023017E+00  0.4168464E+00
  0.1475240E+02  0.7885340E+01 -0.1027320E+00  0.5127563E+00 -0.9683204E+00 -0.2905709E+00  0.4224780E+00
  0.1390850E+02  0.9293360E+01 -0.1027320E+00  0.5075245E+00 -0.9954429E+00 -0.2761600E+00  0.4258131E+00
  0.1293060E+02  0.1061190E+02 -0.1027320E+00  0.4964833E+00 -0.1022389E+01 -0.2588309E+00  0.4236770E+00
  0.1182820E+02  0.1182820E+02 -0.1027320E+00  0.4849756E+00 -0.1054373E+01 -0.2394679E+00  0.4217303E+00
  0.1061190E+02  0.1293060E+02 -0.1027320E+00  0.4718522E+00 -0.1091070E+01 -0.2177768E+00  0.4185902E+00
  0.9293360E+01  0.1390850E+02 -0.1027320E+00  0.4539838E+00 -0.1130743E+01 -0.1933914E+00  0.4107323E+00
  0.7885330E+01  0.1475240E+02 -0.1027320E+00  0.4357129E+00 -0.1178291E+01 -0.1666622E+00  0.4025785E+00
  0.6401380E+01  0.1545430E+02 -0.1027320E+00  0.4115703E+00 -0.1231707E+01 -0.1368999E+00  0.3881347E+00
  0.4855770E+01  0.1600730E+02 -0.1027320E+00  0.3759972E+00 -0.1292338E+01 -0.1033519E+00  0.3615139E+00
  0.3263390E+01  0.1640620E+02 -0.1027320E+00  0.3238423E+00 -0.1368540E+01 -0.6505348E-01  0.3172411E+00
  0.1639590E+01  0.1664710E+02 -0.1027320E+00  0.2431556E+00 -0.1473024E+01 -0.2373607E-01  0.2419943E+00
 -0.7311870E-06  0.1672760E+02 -0.1027320E+00  0.1565133E+00 -0.1657704E+01  0.1358509E-01  0.1559226E+00
 -0.1639590E+01  0.1664710E+02 -0.1027320E+00  0.7434399E-01 -0.2259012E+01  0.4722036E-01  0.5742183E-01
 -0.3263390E+01  0.1640620E+02 -0.1027320E+00  0.9257870E-01  0.2590206E+01  0.7885844E-01 -0.4849910E-01
 -0.4855770E+01  0.1600730E+02 -0.1027320E+00  0.1604650E+00  0.2304169E+01  0.1074120E+00 -0.1192128E+00
 -0.6401380E+01  0.1545430E+02 -0.1027320E+00  0.2104145E+00  0.2259104E+01  0.1336619E+00 -0.1625077E+00
 -0.7885340E+01  0.1475240E+02 -0.1027320E+00  0.2464742E+00  0.2265264E+01  0.1577377E+00 -0.1893894E+00
 -0.9293360E+01  0.1390850E+02 -0.1027320E+00  0.2744878E+00  0.2287022E+01  0.1802129E+00 -0.2070431E+00
 -0.1061190E+02  0.1293060E+02 -0.1027320E+00  0.3000775E+00  0.2306278E+01  0.2013354E+00 -0.2225097E+00
 -0.1182820E+02  0.1182820E+02 -0.1027320E+00  0.3201368E+00  0.2331602E+01  0.2207360E+00 -0.2318689E+00
 -0.1293060E+02  0.1061190E+02 -0.1027320E+00  0.3381986E+00  0.2354226E+01  0.2386714E+00 -0.2396127E+00
 -0.1390850E+02  0.9293360E+01 -0.1027320E+00  0.3556778E+00  0.2371482E+01  0.2553174E+00 -0.2476283E+00
 -0.1475240E+02  0.7885330E+01 -0.1027320E+00  0.3672454E+00  0.2396266E+01  0.2698763E+00 -0.2490702E+00
 -0.1545430E+02  0.6401370E+01 -0.1027320E+00  0.3756455E+00  0.2422103E+01  0.2825390E+00 -0.2475506E+00
 -0.1600730E+02  0.4855770E+01 -0.1027320E+00  0.3833143E+00  0.2442934E+01  0.2935059E+00 -0.2465444E+00
 -0.1640620E+02  0.3263390E+01 -0.1027320E+00  0.3912467E+00  0.2456372E+01  0.3029343E+00 -0.2475981E+00
 -0.1664710E+02  0.1639590E+01 -0.1027320E+00  0.3987565E+00  0.2464137E+01  0.3106990E+00 -0.2499458E+00
 -0.1672760E+02 -0.1462370E-05 -0.1027320E+00  0.4046665E+00  0.2469976E+01  0.3167796E+00 -0.2518047E+00
 -0.1664710E+02 -0.1639590E+01 -0.1027320E+00  0.4088814E+00  0.2474052E+01  0.3211136E+00 -0.2531207E+00
 -0.1640620E+02 -0.3263400E+01 -0.1027320E+00  0.4115219E+00  0.2475935E+01  0.3236665E+00 -0.2541461E+00
 -0.1600730E+02 -0.4855770E+01 -0.1027320E+00  0.4138621E+00  0.2473768E+01  0.3249526E+00 -0.2562961E+00
 -0.1545430E+02 -0.6401380E+01 -0.1027320E+00  0.4167382E+00  0.2465920E+01  0.3251752E+00 -0.2606372E+00
 -0.1475240E+02 -0.7885340E+01 -0.1027320E+00  0.4191996E+00  0.2454365E+01  0.3240446E+00 -0.2659386E+00
 -0.1390850E+02 -0.9293360E+01 -0.1027320E+00  0.4183489E+00  0.2442888E+01  0.3203199E+00 -0.2690929E+00
 -0.1293060E+02 -0.1061190E+02 -0.1027320E+00  0.4108751E+00  0.2434543E+01  0.3123809E+00 -0.2669018E+00
 -0.1182820E+02 -0.1182820E+02 -0.1027320E+00  0.4028436E+00  0.2423549E+01  0.3033793E+00 -0.2650358E+00
 -0.1061190E+02 -0.1293060E+02 -0.1027320E+00  0.3930095E+00  0.2411384E+01  0.2928059E+00 -0.2621472E+00
 -0.9293350E+01 -0.1390850E+02 -0.1027320E+00  0.3775142E+00  0.2400886E+01  0.2786024E+00 -0.2547503E+00
 -0.7885340E+01 -0.1475240E+02 -0.1027320E+00  0.3612574E+00  0.2387550E+01  0.2633303E+00 -0.2473136E+00
 -0.6401370E+01 -0.1545430E+02 -0.1027320E+00  0.3378716E+00  0.2376968E+01  0.2438225E+00 -0.2338970E+00
 -0.4855760E+01 -0.1600730E+02 -0.1027320E+00  0.3009501E+00  0.2375494E+01  0.2168710E+00 -0.2086574E+00
 -0.3263390E+01 -0.1640620E+02 -0.1027320E+00  0.2439531E+00  0.2391242E+01  0.1784394E+00 -0.1663506E+00
 -0.1639590E+01 -0.1664710E+02 -0.1027320E+00  0.1520020E+00  0.2480302E+01  0.1199600E+00 -0.9334990E-01
  0.1994750E-06 -0.1672760E+02 -0.1027320E+00  0.5556611E-01  0.2985515E+01  0.5489068E-01 -0.8637476E-02
  0.1639600E+01 -0.1664710E+02 -0.1027320E+00  0.9097312E-01 -0.1404646E+01 -0.1504575E-01  0.8972032E-01
  0.3263390E+01 -0.1640620E+02 -0.1027320E+00  0.2146116E+00 -0.1156887E+01 -0.8631504E-01  0.1964888E+00
  0.4855770E+01 -0.1600730E+02 -0.1027320E+00  0.3015400E+00 -0.1095364E+01 -0.1380218E+00  0.2680977E+00
  0.6401380E+01 -0.1545430E+02 -0.1027320E+00  0.3581021E+00 -0.1057442E+01 -0.1758648E+00  0.3119434E+00
  0.7885340E+01 -0.1475240E+02 -0.1027320E+00  0.3963471E+00 -0.1027208E+01 -0.2049948E+00  0.3392169E+00
  0.9293360E+01 -0.1390850E+02 -0.1027320E+00  0.4242087E+00 -0.1000895E+01 -0.2288815E+00  0.3571642E+00
  0.1061190E+02 -0.1293060E+02 -0.1027320E+00  0.4496147E+00 -0.9780499E+00 -0.2511732E+00  0.3729148E+00
  0.1182820E+02 -0.1182820E+02 -0.1027320E+00  0.4678063E+00 -0.9574820E+00 -0.2692603E+00  0.3825462E+00
  0.1293060E+02 -0.1061190E+02 -0.1027320E+00  0.4836975E+00 -0.9399077E+00 -0.2853150E+00  0.3905875E+00
  0.1390850E+02 -0.9293360E+01 -0.1027320E+00  0.4991289E+00 -0.9261162E+00 -0.2999479E+00  0.3989497E+00
