 VARIABLES="X" "Y" "Z" "abs(eta) (m)" "angle(phi) (rad)" "PRE1" "PRE2"
ZONE N=   3200 ,E =    3136 ,F=FEPOINT,ET=QUADRILATERAL
  0.1672760E+02  0.0000000E+00  0.0000000E+00  0.4600361E+00  0.2465227E+01  0.3587605E+00 -0.2879655E+00
  0.1664710E+02  0.1639590E+01  0.0000000E+00  0.4631951E+00  0.2468194E+01  0.3620827E+00 -0.2888699E+00
  0.1640620E+02  0.3263390E+01  0.0000000E+00  0.4645162E+00  0.2468925E+01  0.3633269E+00 -0.2894285E+00
  0.1600730E+02  0.4855770E+01  0.0000000E+00  0.4655259E+00  0.2465406E+01  0.3630940E+00 -0.2913368E+00
  0.1545430E+02  0.6401380E+01  0.0000000E+00  0.4671602E+00  0.2456002E+01  0.3616032E+00 -0.2957731E+00
  0.1475240E+02  0.7885340E+01  0.0000000E+00  0.4682863E+00  0.2442684E+01  0.3584941E+00 -0.3012872E+00
  0.1390850E+02  0.9293360E+01  0.0000000E+00  0.4655669E+00  0.2429436E+01  0.3524130E+00 -0.3042328E+00
  0.1293060E+02  0.1061190E+02  0.0000000E+00  0.4551969E+00  0.2419589E+01  0.3416176E+00 -0.3008348E+00
  0.1182820E+02  0.1182820E+02  0.0000000E+00  0.4442919E+00  0.2406732E+01  0.3296308E+00 -0.2978906E+00
  0.1061190E+02  0.1293060E+02  0.0000000E+00  0.4313555E+00  0.2392374E+01  0.3158476E+00 -0.2937820E+00
  0.9293360E+01  0.1390850E+02  0.0000000E+00  0.4118099E+00  0.2379735E+01  0.2979672E+00 -0.2842585E+00
  0.7885330E+01  0.1475240E+02  0.0000000E+00  0.3911958E+00  0.2363610E+01  0.2786608E+00 -0.2745584E+00
  0.6401380E+01  0.1545430E+02  0.0000000E+00  0.3621240E+00  0.2350140E+01  0.2545054E+00 -0.2576060E+00
  0.4855770E+01  0.1600730E+02  0.0000000E+00  0.3172238E+00  0.2346173E+01  0.2220520E+00 -0.2265477E+00
  0.3263390E+01  0.1640620E+02  0.0000000E+00  0.2486110E+00  0.2361278E+01  0.1766860E+00 -0.1748986E+00
  0.1639590E+01  0.1664710E+02  0.0000000E+00  0.1409119E+00  0.2470542E+01  0.1103578E+00 -0.8762024E-01
 -0.7311870E-06  0.1672760E+02  0.0000000E+00  0.4102297E-01 -0.2896948E+01  0.3980145E-01  0.9936258E-02
 -0.1639590E+01  0.1664710E+02  0.0000000E+00  0.1232132E+00 -0.1302949E+01 -0.3260909E-01  0.1188198E+00
 -0.3263390E+01  0.1640620E+02  0.0000000E+00  0.2561490E+00 -0.1151316E+01 -0.1043258E+00  0.2339411E+00
 -0.4855770E+01  0.1600730E+02  0.0000000E+00  0.3471507E+00 -0.1102256E+01 -0.1567680E+00  0.3097377E+00
 -0.6401380E+01  0.1545430E+02  0.0000000E+00  0.4065992E+00 -0.1066864E+01 -0.1963356E+00  0.3560551E+00
 -0.7885340E+01  0.1475240E+02  0.0000000E+00  0.4465496E+00 -0.1036689E+01 -0.2273262E+00  0.3843558E+00
 -0.9293360E+01  0.1390850E+02  0.0000000E+00  0.4755765E+00 -0.1009556E+01 -0.2531193E+00  0.4026209E+00
 -0.1061190E+02  0.1293060E+02  0.0000000E+00  0.5024461E+00 -0.9859468E+00 -0.2773874E+00  0.4189371E+00
 -0.1182820E+02  0.1182820E+02  0.0000000E+00  0.5215105E+00 -0.9642451E+00 -0.2972804E+00  0.4284828E+00
 -0.1293060E+02  0.1061190E+02  0.0000000E+00  0.5382000E+00 -0.9456380E+00 -0.3149684E+00  0.4364105E+00
 -0.1390850E+02  0.9293360E+01  0.0000000E+00  0.5544783E+00 -0.9309965E+00 -0.3310429E+00  0.4448110E+00
 -0.1475240E+02  0.7885330E+01  0.0000000E+00  0.5619712E+00 -0.9161998E+00 -0.3421501E+00  0.4458082E+00
 -0.1545430E+02  0.6401370E+01  0.0000000E+00  0.5650032E+00 -0.9028358E+00 -0.3499551E+00  0.4435764E+00
 -0.1600730E+02  0.4855770E+01  0.0000000E+00  0.5675110E+00 -0.8931459E+00 -0.3558092E+00  0.4421183E+00
 -0.1640620E+02  0.3263390E+01  0.0000000E+00  0.5710002E+00 -0.8884572E+00 -0.3600785E+00  0.4431531E+00
 -0.1664710E+02  0.1639590E+01  0.0000000E+00  0.5744829E+00 -0.8881039E+00 -0.3624322E+00  0.4457280E+00
 -0.1672760E+02 -0.1462370E-05  0.0000000E+00  0.5759390E+00 -0.8905858E+00 -0.3622407E+00  0.4477582E+00
 -0.1664710E+02 -0.1639590E+01  0.0000000E+00  0.5752817E+00 -0.8958284E+00 -0.3594775E+00  0.4491379E+00
 -0.1640620E+02 -0.3263400E+01  0.0000000E+00  0.5727680E+00 -0.9041585E+00 -0.3541695E+00  0.4501413E+00
 -0.1600730E+02 -0.4855770E+01  0.0000000E+00  0.5698869E+00 -0.9172150E+00 -0.3465104E+00  0.4524397E+00
 -0.1545430E+02 -0.6401380E+01  0.0000000E+00  0.5677738E+00 -0.9360839E+00 -0.3366592E+00  0.4571954E+00
 -0.1475240E+02 -0.7885340E+01  0.0000000E+00  0.5652383E+00 -0.9596151E+00 -0.3243537E+00  0.4629137E+00
 -0.1390850E+02 -0.9293360E+01  0.0000000E+00  0.5591421E+00 -0.9850190E+00 -0.3091202E+00  0.4659233E+00
 -0.1293060E+02 -0.1061190E+02  0.0000000E+00  0.5461637E+00 -0.1009857E+01 -0.2905491E+00  0.4624674E+00
 -0.1182820E+02 -0.1182820E+02  0.0000000E+00  0.5327248E+00 -0.1039685E+01 -0.2698207E+00  0.4593391E+00
 -0.1061190E+02 -0.1293060E+02  0.0000000E+00  0.5174412E+00 -0.1073986E+01 -0.2466250E+00  0.4548862E+00
 -0.9293350E+01 -0.1390850E+02  0.0000000E+00  0.4964317E+00 -0.1110740E+01 -0.2204150E+00  0.4448165E+00
 -0.7885340E+01 -0.1475240E+02  0.0000000E+00  0.4748735E+00 -0.1154594E+01 -0.1919864E+00  0.4343341E+00
 -0.6401370E+01 -0.1545430E+02  0.0000000E+00  0.4460995E+00 -0.1203242E+01 -0.1602988E+00  0.4163040E+00
 -0.4855760E+01 -0.1600730E+02  0.0000000E+00  0.4034500E+00 -0.1257577E+01 -0.1243122E+00  0.3838208E+00
 -0.3263390E+01 -0.1640620E+02  0.0000000E+00  0.3404943E+00 -0.1323879E+01 -0.8322231E-01  0.3301672E+00
 -0.1639590E+01 -0.1664710E+02  0.0000000E+00  0.2435005E+00 -0.1417277E+01 -0.3723529E-01  0.2406367E+00
  0.1994750E-06 -0.1672760E+02  0.0000000E+00  0.1419580E+00 -0.1620561E+01  0.7061513E-02  0.1417822E+00
  0.1639600E+01 -0.1664710E+02  0.0000000E+00  0.6022860E-01 -0.2563691E+01  0.5044812E-01  0.3290094E-01
  0.3263390E+01 -0.1640620E+02  0.0000000E+00  0.1238224E+00  0.2426676E+01  0.9350424E-01 -0.8117230E-01
  0.4855770E+01 -0.1600730E+02  0.0000000E+00  0.2031802E+00  0.2267081E+01  0.1303141E+00 -0.1558860E+00
  0.6401380E+01 -0.1545430E+02  0.0000000E+00  0.2585637E+00  0.2248065E+01  0.1620332E+00 -0.2014954E+00
  0.7885340E+01 -0.1475240E+02  0.0000000E+00  0.2977653E+00  0.2262833E+01  0.1900061E+00 -0.2292638E+00
  0.9293360E+01 -0.1390850E+02  0.0000000E+00  0.3278203E+00  0.2287749E+01  0.2154076E+00 -0.2471147E+00
  0.1061190E+02 -0.1293060E+02  0.0000000E+00  0.3554389E+00  0.2308470E+01  0.2390568E+00 -0.2630373E+00
  0.1182820E+02 -0.1182820E+02  0.0000000E+00  0.3766329E+00  0.2333786E+01  0.2602855E+00 -0.2722202E+00
  0.1293060E+02 -0.1061190E+02  0.0000000E+00  0.3956598E+00  0.2356187E+01  0.2797717E+00 -0.2797758E+00
  0.1390850E+02 -0.9293360E+01  0.0000000E+00  0.4141434E+00  0.2373355E+01  0.2978257E+00 -0.2877753E+00
  0.1475240E+02 -0.7885330E+01  0.0000000E+00  0.4256431E+00  0.2397122E+01  0.3130378E+00 -0.2884084E+00
  0.1545430E+02 -0.6401380E+01  0.0000000E+00  0.4334452E+00  0.2421621E+01  0.3258746E+00 -0.2857981E+00
  0.1600730E+02 -0.4855760E+01  0.0000000E+00  0.4404746E+00  0.2441184E+01  0.3367774E+00 -0.2838993E+00
  0.1640620E+02 -0.3263390E+01  0.0000000E+00  0.4478913E+00  0.2453540E+01  0.3459889E+00 -0.2844263E+00
  0.1664710E+02 -0.1639590E+01  0.0000000E+00  0.4548943E+00  0.2460418E+01  0.3533770E+00 -0.2864498E+00
  0.1672760E+02  0.0000000E+00 -0.2568960E-01  0.4594570E+00  0.2465164E+01  0.3582909E+00 -0.2876254E+00
  0.1664710E+02  0.1639590E+01 -0.2568960E-01  0.4626142E+00  0.2468131E+01  0.3616104E+00 -0.2885304E+00
  0.1640620E+02  0.3263390E+01 -0.2568960E-01  0.4639384E+00  0.2468867E+01  0.3628583E+00 -0.2890894E+00
  0.1600730E+02  0.4855770E+01 -0.2568960E-01  0.4649374E+00  0.2465353E+01  0.3626194E+00 -0.2909878E+00
  0.1545430E+02  0.6401380E+01 -0.2568960E-01  0.4665512E+00  0.2455974E+01  0.3611236E+00 -0.2953977E+00
  0.1475240E+02  0.7885340E+01 -0.2568960E-01  0.4676501E+00  0.2442688E+01  0.3580084E+00 -0.3008765E+00
  0.1390850E+02  0.9293360E+01 -0.2568960E-01  0.4649193E+00  0.2429450E+01  0.3519270E+00 -0.3038048E+00
  0.1293060E+02  0.1061190E+02 -0.2568960E-01  0.4545929E+00  0.2419585E+01  0.3411629E+00 -0.3004373E+00
  0.1182820E+02  0.1182820E+02 -0.2568960E-01  0.4437083E+00  0.2406716E+01  0.3291931E+00 -0.2975045E+00
  0.1061190E+02  0.1293060E+02 -0.2568960E-01  0.4307835E+00  0.2392360E+01  0.3154247E+00 -0.2933969E+00
  0.9293360E+01  0.1390850E+02 -0.2568960E-01  0.4112937E+00  0.2379701E+01  0.2975841E+00 -0.2839124E+00
  0.7885330E+01  0.1475240E+02 -0.2568960E-01  0.3906951E+00  0.2363581E+01  0.2782963E+00 -0.2742150E+00
  0.6401380E+01  0.1545430E+02 -0.2568960E-01  0.3616666E+00  0.2350117E+01  0.2541779E+00 -0.2572865E+00
  0.4855770E+01  0.1600730E+02 -0.2568960E-01  0.3168585E+00  0.2346114E+01  0.2217829E+00 -0.2262998E+00
  0.3263390E+01  0.1640620E+02 -0.2568960E-01  0.2482989E+00  0.2361241E+01  0.1764576E+00 -0.1746857E+00
  0.1639590E+01  0.1664710E+02 -0.2568960E-01  0.1407586E+00  0.2470390E+01  0.1102244E+00 -0.8754179E-01
 -0.7311870E-06  0.1672760E+02 -0.2568960E-01  0.4096553E-01 -0.2897412E+01  0.3975032E-01  0.9903888E-02
 -0.1639590E+01  0.1664710E+02 -0.2568960E-01  0.1230438E+00 -0.1302919E+01 -0.3256786E-01  0.1186554E+00
 -0.3263390E+01  0.1640620E+02 -0.2568960E-01  0.2558109E+00 -0.1151314E+01 -0.1041887E+00  0.2336321E+00
 -0.4855770E+01  0.1600730E+02 -0.2568960E-01  0.3467373E+00 -0.1102262E+01 -0.1565791E+00  0.3093699E+00
 -0.6401380E+01  0.1545430E+02 -0.2568960E-01  0.4060758E+00 -0.1066874E+01 -0.1960795E+00  0.3555986E+00
 -0.7885340E+01  0.1475240E+02 -0.2568960E-01  0.4459693E+00 -0.1036697E+01 -0.2270277E+00  0.3838580E+00
 -0.9293360E+01  0.1390850E+02 -0.2568960E-01  0.4749700E+00 -0.1009568E+01 -0.2527915E+00  0.4021106E+00
 -0.1061190E+02  0.1293060E+02 -0.2568960E-01  0.5017726E+00 -0.9859556E+00 -0.2770119E+00  0.4183780E+00
 -0.1182820E+02  0.1182820E+02 -0.2568960E-01  0.5208203E+00 -0.9642560E+00 -0.2968824E+00  0.4279190E+00
 -0.1293060E+02  0.1061190E+02 -0.2568960E-01  0.5374793E+00 -0.9456465E+00 -0.3145429E+00  0.4358288E+00
 -0.1390850E+02  0.9293360E+01 -0.2568960E-01  0.5537024E+00 -0.9309936E+00 -0.3305809E+00  0.4441875E+00
 -0.1475240E+02  0.7885330E+01 -0.2568960E-01  0.5611993E+00 -0.9162007E+00 -0.3416798E+00  0.4451962E+00
 -0.1545430E+02  0.6401370E+01 -0.2568960E-01  0.5642558E+00 -0.9028550E+00 -0.3494837E+00  0.4429963E+00
 -0.1600730E+02  0.4855770E+01 -0.2568960E-01  0.5667846E+00 -0.8931771E+00 -0.3553399E+00  0.4415635E+00
 -0.1640620E+02  0.3263390E+01 -0.2568960E-01  0.5702751E+00 -0.8884946E+00 -0.3596047E+00  0.4426038E+00
 -0.1664710E+02  0.1639590E+01 -0.2568960E-01  0.5737499E+00 -0.8881444E+00 -0.3619518E+00  0.4451740E+00
 -0.1672760E+02 -0.1462370E-05 -0.2568960E-01  0.5752022E+00 -0.8906240E+00 -0.3617602E+00  0.4471992E+00
 -0.1664710E+02 -0.1639590E+01 -0.2568960E-01  0.5745469E+00 -0.8958636E+00 -0.3590026E+00  0.4485769E+00
 -0.1640620E+02 -0.3263400E+01 -0.2568960E-01  0.5720373E+00 -0.9041966E+00 -0.3537005E+00  0.4495805E+00
 -0.1600730E+02 -0.4855770E+01 -0.2568960E-01  0.5691528E+00 -0.9172523E+00 -0.3460471E+00  0.4518698E+00
 -0.1545430E+02 -0.6401380E+01 -0.2568960E-01  0.5670245E+00 -0.9361042E+00 -0.3362056E+00  0.4565989E+00
 -0.1475240E+02 -0.7885340E+01 -0.2568960E-01  0.5644640E+00 -0.9596179E+00 -0.3239080E+00  0.4622804E+00
 -0.1390850E+02 -0.9293360E+01 -0.2568960E-01  0.5583631E+00 -0.9850107E+00 -0.3086934E+00  0.4652717E+00
 -0.1293060E+02 -0.1061190E+02 -0.2568960E-01  0.5454281E+00 -0.1009869E+01 -0.2901522E+00  0.4618479E+00
 -0.1182820E+02 -0.1182820E+02 -0.2568960E-01  0.5320141E+00 -0.1039700E+01 -0.2694542E+00  0.4587302E+00
 -0.1061190E+02 -0.1293060E+02 -0.2568960E-01  0.5167459E+00 -0.1073997E+01 -0.2462886E+00  0.4542777E+00
 -0.9293350E+01 -0.1390850E+02 -0.2568960E-01  0.4957919E+00 -0.1110766E+01 -0.2201192E+00  0.4442489E+00
 -0.7885340E+01 -0.1475240E+02 -0.2568960E-01  0.4742537E+00 -0.1154617E+01 -0.1917261E+00  0.4337714E+00
 -0.6401370E+01 -0.1545430E+02 -0.2568960E-01  0.4455182E+00 -0.1203264E+01 -0.1600807E+00  0.4157651E+00
 -0.4855760E+01 -0.1600730E+02 -0.2568960E-01  0.4029574E+00 -0.1257609E+01 -0.1241481E+00  0.3833561E+00
 -0.3263390E+01 -0.1640620E+02 -0.2568960E-01  0.3400517E+00 -0.1323893E+01 -0.8310935E-01  0.3297393E+00
 -0.1639590E+01 -0.1664710E+02 -0.2568960E-01  0.2432039E+00 -0.1417304E+01 -0.3718355E-01  0.2403446E+00
  0.1994750E-06 -0.1672760E+02 -0.2568960E-01  0.1417792E+00 -0.1620605E+01  0.7058852E-02  0.1416034E+00
  0.1639600E+01 -0.1664710E+02 -0.2568960E-01  0.6015258E-01 -0.2563811E+01  0.5038839E-01  0.3285335E-01
  0.3263390E+01 -0.1640620E+02 -0.2568960E-01  0.1236674E+00  0.2426634E+01  0.9338375E-01 -0.8107468E-01
  0.4855770E+01 -0.1600730E+02 -0.2568960E-01  0.2029551E+00  0.2266953E+01  0.1301496E+00 -0.1557300E+00
  0.6401380E+01 -0.1545430E+02 -0.2568960E-01  0.2582404E+00  0.2248012E+01  0.1618201E+00 -0.2012520E+00
  0.7885340E+01 -0.1475240E+02 -0.2568960E-01  0.2973877E+00  0.2262794E+01  0.1897562E+00 -0.2289804E+00
  0.9293360E+01 -0.1390850E+02 -0.2568960E-01  0.3274110E+00  0.2287693E+01  0.2151249E+00 -0.2468182E+00
  0.1061190E+02 -0.1293060E+02 -0.2568960E-01  0.3549677E+00  0.2308454E+01  0.2387358E+00 -0.2626924E+00
  0.1182820E+02 -0.1182820E+02 -0.2568960E-01  0.3761403E+00  0.2333761E+01  0.2599382E+00 -0.2718706E+00
  0.1293060E+02 -0.1061190E+02 -0.2568960E-01  0.3951343E+00  0.2356166E+01  0.2793941E+00 -0.2794102E+00
  0.1390850E+02 -0.9293360E+01 -0.2568960E-01  0.4135671E+00  0.2373379E+01  0.2974178E+00 -0.2873679E+00
  0.1475240E+02 -0.7885330E+01 -0.2568960E-01  0.4250649E+00  0.2397133E+01  0.3126157E+00 -0.2880132E+00
  0.1545430E+02 -0.6401380E+01 -0.2568960E-01  0.4328798E+00  0.2421589E+01  0.3254406E+00 -0.2854353E+00
  0.1600730E+02 -0.4855760E+01 -0.2568960E-01  0.4399186E+00  0.2441120E+01  0.3363342E+00 -0.2835625E+00
  0.1640620E+02 -0.3263390E+01 -0.2568960E-01  0.4473338E+00  0.2453472E+01  0.3455391E+00 -0.2840956E+00
  0.1664710E+02 -0.1639590E+01 -0.2568960E-01  0.4543217E+00  0.2460350E+01  0.3529128E+00 -0.2861133E+00
  0.1672760E+02  0.0000000E+00 -0.1027320E+00  0.4577706E+00  0.2464906E+01  0.3569018E+00 -0.2866619E+00
  0.1664710E+02  0.1639590E+01 -0.1027320E+00  0.4609205E+00  0.2467880E+01  0.3602142E+00 -0.2875646E+00
  0.1640620E+02  0.3263390E+01 -0.1027320E+00  0.4622429E+00  0.2468614E+01  0.3614593E+00 -0.2881244E+00
  0.1600730E+02  0.4855770E+01 -0.1027320E+00  0.4632214E+00  0.2465132E+01  0.3612170E+00 -0.2899937E+00
  0.1545430E+02  0.6401380E+01 -0.1027320E+00  0.4647673E+00  0.2455827E+01  0.3596995E+00 -0.2943211E+00
  0.1475240E+02  0.7885340E+01 -0.1027320E+00  0.4657776E+00  0.2442637E+01  0.3565596E+00 -0.2996899E+00
  0.1390850E+02  0.9293360E+01 -0.1027320E+00  0.4630156E+00  0.2429451E+01  0.3504864E+00 -0.3025604E+00
  0.1293060E+02  0.1061190E+02 -0.1027320E+00  0.4528087E+00  0.2419519E+01  0.3398042E+00 -0.2992805E+00
  0.1182820E+02  0.1182820E+02 -0.1027320E+00  0.4419867E+00  0.2406641E+01  0.3278938E+00 -0.2963746E+00
  0.1061190E+02  0.1293060E+02 -0.1027320E+00  0.4290946E+00  0.2392293E+01  0.3141687E+00 -0.2922675E+00
  0.9293360E+01  0.1390850E+02 -0.1027320E+00  0.4097618E+00  0.2379570E+01  0.2964384E+00 -0.2828940E+00
  0.7885330E+01  0.1475240E+02 -0.1027320E+00  0.3892112E+00  0.2363487E+01  0.2772137E+00 -0.2731995E+00
  0.6401380E+01  0.1545430E+02 -0.1027320E+00  0.3602993E+00  0.2350033E+01  0.2531955E+00 -0.2563351E+00
  0.4855770E+01  0.1600730E+02 -0.1027320E+00  0.3157559E+00  0.2345923E+01  0.2209681E+00 -0.2255547E+00
  0.3263390E+01  0.1640620E+02 -0.1027320E+00  0.2473808E+00  0.2361103E+01  0.1757812E+00 -0.1740638E+00
  0.1639590E+01  0.1664710E+02 -0.1027320E+00  0.1402956E+00  0.2469949E+01  0.1098234E+00 -0.8730222E-01
 -0.7311870E-06  0.1672760E+02 -0.1027320E+00  0.4080285E-01 -0.2898723E+01  0.3960536E-01  0.9812641E-02
 -0.1639590E+01  0.1664710E+02 -0.1027320E+00  0.1225468E+00 -0.1302812E+01 -0.3244899E-01  0.1181727E+00
 -0.3263390E+01  0.1640620E+02 -0.1027320E+00  0.2548228E+00 -0.1151323E+01 -0.1037841E+00  0.2327305E+00
 -0.4855770E+01  0.1600730E+02 -0.1027320E+00  0.3454942E+00 -0.1102273E+01 -0.1560145E+00  0.3082625E+00
 -0.6401380E+01  0.1545430E+02 -0.1027320E+00  0.4045139E+00 -0.1066902E+01 -0.1953153E+00  0.3542364E+00
 -0.7885340E+01  0.1475240E+02 -0.1027320E+00  0.4442407E+00 -0.1036729E+01 -0.2261356E+00  0.3823774E+00
 -0.9293360E+01  0.1390850E+02 -0.1027320E+00  0.4731702E+00 -0.1009612E+01 -0.2518161E+00  0.4005979E+00
 -0.1061190E+02  0.1293060E+02 -0.1027320E+00  0.4997788E+00 -0.9859833E+00 -0.2758996E+00  0.4167232E+00
 -0.1182820E+02  0.1182820E+02 -0.1027320E+00  0.5187776E+00 -0.9643029E+00 -0.2956980E+00  0.4262545E+00
 -0.1293060E+02  0.1061190E+02 -0.1027320E+00  0.5353540E+00 -0.9456917E+00 -0.3132796E+00  0.4341196E+00
 -0.1390850E+02  0.9293360E+01 -0.1027320E+00  0.5514194E+00 -0.9309979E+00 -0.3292160E+00  0.4423576E+00
 -0.1475240E+02  0.7885330E+01 -0.1027320E+00  0.5589313E+00 -0.9162267E+00 -0.3402873E+00  0.4434058E+00
 -0.1545430E+02  0.6401370E+01 -0.1027320E+00  0.5620736E+00 -0.9029284E+00 -0.3480997E+00  0.4413087E+00
 -0.1600730E+02  0.4855770E+01 -0.1027320E+00  0.5646612E+00 -0.8932931E+00 -0.3539577E+00  0.4399503E+00
 -0.1640620E+02  0.3263390E+01 -0.1027320E+00  0.5681615E+00 -0.8886297E+00 -0.3582124E+00  0.4410118E+00
 -0.1664710E+02  0.1639590E+01 -0.1027320E+00  0.5716107E+00 -0.8882782E+00 -0.3605429E+00  0.4435625E+00
 -0.1672760E+02 -0.1462370E-05 -0.1027320E+00  0.5730510E+00 -0.8907616E+00 -0.3603460E+00  0.4455763E+00
 -0.1664710E+02 -0.1639590E+01 -0.1027320E+00  0.5723991E+00 -0.8960119E+00 -0.3575943E+00  0.4469531E+00
 -0.1640620E+02 -0.3263400E+01 -0.1027320E+00  0.5699000E+00 -0.9043452E+00 -0.3523124E+00  0.4479531E+00
 -0.1600730E+02 -0.4855770E+01 -0.1027320E+00  0.5670081E+00 -0.9173839E+00 -0.3446839E+00  0.4502124E+00
 -0.1545430E+02 -0.6401380E+01 -0.1027320E+00  0.5648247E+00 -0.9361895E+00 -0.3348625E+00  0.4548561E+00
 -0.1475240E+02 -0.7885340E+01 -0.1027320E+00  0.5621926E+00 -0.9596375E+00 -0.3225956E+00  0.4604265E+00
 -0.1390850E+02 -0.9293360E+01 -0.1027320E+00  0.5560748E+00 -0.9849998E+00 -0.3074334E+00  0.4633616E+00
 -0.1293060E+02 -0.1061190E+02 -0.1027320E+00  0.5432595E+00 -0.1009915E+01 -0.2889774E+00  0.4600250E+00
 -0.1182820E+02 -0.1182820E+02 -0.1027320E+00  0.5299146E+00 -0.1039758E+01 -0.2683640E+00  0.4569357E+00
 -0.1061190E+02 -0.1293060E+02 -0.1027320E+00  0.5146946E+00 -0.1074040E+01 -0.2452912E+00  0.4524851E+00
 -0.9293350E+01 -0.1390850E+02 -0.1027320E+00  0.4938975E+00 -0.1110846E+01 -0.2192429E+00  0.4425689E+00
 -0.7885340E+01 -0.1475240E+02 -0.1027320E+00  0.4724101E+00 -0.1154679E+01 -0.1909541E+00  0.4320970E+00
 -0.6401370E+01 -0.1545430E+02 -0.1027320E+00  0.4437886E+00 -0.1203318E+01 -0.1594371E+00  0.4141596E+00
 -0.4855760E+01 -0.1600730E+02 -0.1027320E+00  0.4014821E+00 -0.1257690E+01 -0.1236629E+00  0.3819625E+00
 -0.3263390E+01 -0.1640620E+02 -0.1027320E+00  0.3387452E+00 -0.1323938E+01 -0.8277521E-01  0.3284761E+00
 -0.1639590E+01 -0.1664710E+02 -0.1027320E+00  0.2423134E+00 -0.1417400E+01 -0.3702451E-01  0.2394681E+00
  0.1994750E-06 -0.1672760E+02 -0.1027320E+00  0.1412389E+00 -0.1620669E+01  0.7041084E-02  0.1410633E+00
  0.1639600E+01 -0.1664710E+02 -0.1027320E+00  0.5991343E-01 -0.2564171E+01  0.5019985E-01  0.3270465E-01
  0.3263390E+01 -0.1640620E+02 -0.1027320E+00  0.1232208E+00  0.2426384E+01  0.9302633E-01 -0.8080512E-01
  0.4855770E+01 -0.1600730E+02 -0.1027320E+00  0.2022759E+00  0.2266569E+01  0.1296546E+00 -0.1552586E+00
  0.6401380E+01 -0.1545430E+02 -0.1027320E+00  0.2572779E+00  0.2247857E+01  0.1611859E+00 -0.2005269E+00
  0.7885340E+01 -0.1475240E+02 -0.1027320E+00  0.2962633E+00  0.2262660E+01  0.1890082E+00 -0.2281400E+00
  0.9293360E+01 -0.1390850E+02 -0.1027320E+00  0.3261959E+00  0.2287485E+01  0.2142753E+00 -0.2459469E+00
  0.1061190E+02 -0.1293060E+02 -0.1027320E+00  0.3535795E+00  0.2308385E+01  0.2377840E+00 -0.2616816E+00
  0.1182820E+02 -0.1182820E+02 -0.1027320E+00  0.3746866E+00  0.2333644E+01  0.2589020E+00 -0.2708502E+00
  0.1293060E+02 -0.1061190E+02 -0.1027320E+00  0.3935944E+00  0.2356078E+01  0.2782809E+00 -0.2783457E+00
  0.1390850E+02 -0.9293360E+01 -0.1027320E+00  0.4118802E+00  0.2373418E+01  0.2962159E+00 -0.2861842E+00
