 VARIABLES="X" "Y" "Z" "abs(eta) (m)" "angle(phi) (rad)" "PRE1" "PRE2"
ZONE N=   3200 ,E =    3136 ,F=FEPOINT,ET=QUADRILATERAL
  0.1530690E+02  0.0000000E+00  0.0000000E+00  0.2195685E-01  0.2990299E+01  0.2170604E-01 -0.3309263E-02
  0.1523320E+02  0.1500340E+01  0.0000000E+00  0.2031143E-01  0.3119435E+01  0.2030644E-01 -0.4500267E-03
  0.1501280E+02  0.2986230E+01  0.0000000E+00  0.1925283E-01 -0.3006975E+01  0.1907864E-01  0.2583943E-02
  0.1464780E+02  0.4443360E+01  0.0000000E+00  0.1889565E-01 -0.2832744E+01  0.1800159E-01  0.5743558E-02
  0.1414170E+02  0.5857700E+01  0.0000000E+00  0.1889083E-01 -0.2675280E+01  0.1687390E-01  0.8493242E-02
  0.1349950E+02  0.7215620E+01  0.0000000E+00  0.1922199E-01 -0.2533038E+01  0.1577117E-01  0.1098886E-01
  0.1272720E+02  0.8504060E+01  0.0000000E+00  0.2043280E-01 -0.2385316E+01  0.1486275E-01  0.1402135E-01
  0.1183240E+02  0.9710600E+01  0.0000000E+00  0.2327530E-01 -0.2236973E+01  0.1438378E-01  0.1829881E-01
  0.1082360E+02  0.1082360E+02  0.0000000E+00  0.2696702E-01 -0.2120528E+01  0.1408914E-01  0.2299383E-01
  0.9710590E+01  0.1183240E+02  0.0000000E+00  0.3096778E-01 -0.2035203E+01  0.1387024E-01  0.2768790E-01
  0.8504060E+01  0.1272720E+02  0.0000000E+00  0.3682841E-01 -0.1969202E+01  0.1428755E-01  0.3394403E-01
  0.7215620E+01  0.1349950E+02  0.0000000E+00  0.4352141E-01 -0.1925051E+01  0.1509722E-01  0.4081896E-01
  0.5857700E+01  0.1414170E+02  0.0000000E+00  0.5287944E-01 -0.1898836E+01  0.1703713E-01  0.5005968E-01
  0.4443360E+01  0.1464780E+02  0.0000000E+00  0.6604906E-01 -0.1885213E+01  0.2042647E-01  0.6281113E-01
  0.2986230E+01  0.1501280E+02  0.0000000E+00  0.9123363E-01 -0.1892736E+01  0.2886699E-01  0.8654636E-01
  0.1500340E+01  0.1523320E+02  0.0000000E+00  0.1599434E+00 -0.1918322E+01  0.5447235E-01  0.1503817E+00
 -0.6690860E-06  0.1530690E+02  0.0000000E+00  0.1833206E+00 -0.1906586E+01  0.6040687E-01  0.1730822E+00
 -0.1500340E+01  0.1523320E+02  0.0000000E+00  0.1848923E+00 -0.1875986E+01  0.5555525E-01  0.1763484E+00
 -0.2986230E+01  0.1501280E+02  0.0000000E+00  0.1552667E+00 -0.1777866E+01  0.3192171E-01  0.1519498E+00
 -0.4443360E+01  0.1464780E+02  0.0000000E+00  0.1402602E+00 -0.1716328E+01  0.2034026E-01  0.1387775E+00
 -0.5857700E+01  0.1414170E+02  0.0000000E+00  0.1324288E+00 -0.1674114E+01  0.1365794E-01  0.1317227E+00
 -0.7215620E+01  0.1349950E+02  0.0000000E+00  0.1261352E+00 -0.1638200E+01  0.8495597E-02  0.1258488E+00
 -0.8504060E+01  0.1272720E+02  0.0000000E+00  0.1213593E+00 -0.1608555E+01  0.4581275E-02  0.1212728E+00
 -0.9710590E+01  0.1183240E+02  0.0000000E+00  0.1174733E+00 -0.1582716E+01  0.1400191E-02  0.1174650E+00
 -0.1082360E+02  0.1082360E+02  0.0000000E+00  0.1138537E+00 -0.1561368E+01 -0.1073402E-02  0.1138486E+00
 -0.1183240E+02  0.9710590E+01  0.0000000E+00  0.1104277E+00 -0.1541516E+01 -0.3232846E-02  0.1103804E+00
 -0.1272720E+02  0.8504060E+01  0.0000000E+00  0.1074099E+00 -0.1524052E+01 -0.5018960E-02  0.1072926E+00
 -0.1349950E+02  0.7215620E+01  0.0000000E+00  0.1044655E+00 -0.1510420E+01 -0.6303430E-02  0.1042751E+00
 -0.1414170E+02  0.5857690E+01  0.0000000E+00  0.1015978E+00 -0.1500049E+01 -0.7181819E-02  0.1013437E+00
 -0.1464780E+02  0.4443360E+01  0.0000000E+00  0.9895717E-01 -0.1492275E+01 -0.7762265E-02  0.9865227E-01
 -0.1501280E+02  0.2986230E+01  0.0000000E+00  0.9629685E-01 -0.1486223E+01 -0.8134476E-02  0.9595267E-01
 -0.1523320E+02  0.1500340E+01  0.0000000E+00  0.9360447E-01 -0.1483663E+01 -0.8145751E-02  0.9324936E-01
 -0.1530690E+02 -0.1338170E-05  0.0000000E+00  0.9083200E-01 -0.1484924E+01 -0.7790402E-02  0.9049731E-01
 -0.1523320E+02 -0.1500340E+01  0.0000000E+00  0.8790264E-01 -0.1490140E+01 -0.7082190E-02  0.8761687E-01
 -0.1501280E+02 -0.2986230E+01  0.0000000E+00  0.8476596E-01 -0.1499716E+01 -0.6020096E-02  0.8455191E-01
 -0.1464780E+02 -0.4443360E+01  0.0000000E+00  0.8148623E-01 -0.1513679E+01 -0.4651725E-02  0.8135335E-01
 -0.1414170E+02 -0.5857700E+01  0.0000000E+00  0.7863920E-01 -0.1529468E+01 -0.3249075E-02  0.7857205E-01
 -0.1349950E+02 -0.7215620E+01  0.0000000E+00  0.7606893E-01 -0.1547568E+01 -0.1766813E-02  0.7604841E-01
 -0.1272720E+02 -0.8504060E+01  0.0000000E+00  0.7298499E-01 -0.1571355E+01  0.4080136E-04  0.7298498E-01
 -0.1183240E+02 -0.9710600E+01  0.0000000E+00  0.6870776E-01 -0.1606678E+01  0.2464813E-02  0.6866354E-01
 -0.1082360E+02 -0.1082360E+02  0.0000000E+00  0.6412344E-01 -0.1650348E+01  0.5095735E-02  0.6392065E-01
 -0.9710600E+01 -0.1183240E+02  0.0000000E+00  0.5967762E-01 -0.1701628E+01  0.7785444E-02  0.5916760E-01
 -0.8504050E+01 -0.1272720E+02  0.0000000E+00  0.5401095E-01 -0.1781064E+01  0.1127323E-01  0.5282137E-01
 -0.7215620E+01 -0.1349950E+02  0.0000000E+00  0.4825384E-01 -0.1889201E+01  0.1510594E-01  0.4582841E-01
 -0.5857690E+01 -0.1414170E+02  0.0000000E+00  0.4163149E-01 -0.2076862E+01  0.2018046E-01  0.3641333E-01
 -0.4443360E+01 -0.1464780E+02  0.0000000E+00  0.3570246E-01 -0.2426260E+01  0.2695091E-01  0.2341611E-01
 -0.2986230E+01 -0.1501280E+02  0.0000000E+00  0.3952996E-01  0.3122178E+01  0.3952251E-01 -0.7674060E-03
 -0.1500340E+01 -0.1523320E+02  0.0000000E+00  0.9845718E-01  0.2413267E+01  0.7347758E-01 -0.6553519E-01
  0.1825330E-06 -0.1530690E+02  0.0000000E+00  0.1224821E+00  0.2335042E+01  0.8475677E-01 -0.8842035E-01
  0.1500340E+01 -0.1523320E+02  0.0000000E+00  0.1243943E+00  0.2315607E+01  0.8431854E-01 -0.9145668E-01
  0.2986230E+01 -0.1501280E+02  0.0000000E+00  0.9275628E-01  0.2348753E+01  0.6509873E-01 -0.6607483E-01
  0.4443360E+01 -0.1464780E+02  0.0000000E+00  0.7622000E-01  0.2383027E+01  0.5532228E-01 -0.5243027E-01
  0.5857700E+01 -0.1414170E+02  0.0000000E+00  0.6733633E-01  0.2407464E+01  0.4999148E-01 -0.4511134E-01
  0.7215620E+01 -0.1349950E+02  0.0000000E+00  0.6016457E-01  0.2435263E+01  0.4577015E-01 -0.3904957E-01
  0.8504060E+01 -0.1272720E+02  0.0000000E+00  0.5463947E-01  0.2461838E+01  0.4249459E-01 -0.3434649E-01
  0.9710600E+01 -0.1183240E+02  0.0000000E+00  0.5006994E-01  0.2487953E+01  0.3974930E-01 -0.3044653E-01
  0.1082360E+02 -0.1082360E+02  0.0000000E+00  0.4594542E-01  0.2519493E+01  0.3733785E-01 -0.2677437E-01
  0.1183240E+02 -0.9710590E+01  0.0000000E+00  0.4202966E-01  0.2554982E+01  0.3500320E-01 -0.2326516E-01
  0.1272720E+02 -0.8504060E+01  0.0000000E+00  0.3846875E-01  0.2590524E+01  0.3277406E-01 -0.2014214E-01
  0.1349950E+02 -0.7215620E+01  0.0000000E+00  0.3511715E-01  0.2632880E+01  0.3067034E-01 -0.1710393E-01
  0.1414170E+02 -0.5857700E+01  0.0000000E+00  0.3198523E-01  0.2682963E+01  0.2867988E-01 -0.1416051E-01
  0.1464780E+02 -0.4443350E+01  0.0000000E+00  0.2915347E-01  0.2737557E+01  0.2680609E-01 -0.1146118E-01
  0.1501280E+02 -0.2986230E+01  0.0000000E+00  0.2645083E-01  0.2804332E+01  0.2496071E-01 -0.8752679E-02
  0.1523320E+02 -0.1500330E+01  0.0000000E+00  0.2403114E-01  0.2887099E+01  0.2325711E-01 -0.6049973E-02
  0.1530690E+02  0.0000000E+00 -0.2568960E-01  0.2194012E-01  0.2990168E+01  0.2168906E-01 -0.3309586E-02
  0.1523320E+02  0.1500340E+01 -0.2568960E-01  0.2029568E-01  0.3119244E+01  0.2029061E-01 -0.4535399E-03
  0.1501280E+02  0.2986230E+01 -0.2568960E-01  0.1923613E-01 -0.3007252E+01  0.1906281E-01  0.2576428E-02
  0.1464780E+02  0.4443360E+01 -0.2568960E-01  0.1887733E-01 -0.2833075E+01  0.1798603E-01  0.5732030E-02
  0.1414170E+02  0.5857700E+01 -0.2568960E-01  0.1887273E-01 -0.2675498E+01  0.1685958E-01  0.8481421E-02
  0.1349950E+02  0.7215620E+01 -0.2568960E-01  0.1920673E-01 -0.2533062E+01  0.1575891E-01  0.1097976E-01
  0.1272720E+02  0.8504060E+01 -0.2568960E-01  0.2041817E-01 -0.2385286E+01  0.1485167E-01  0.1401176E-01
  0.1183240E+02  0.9710600E+01 -0.2568960E-01  0.2325423E-01 -0.2237056E+01  0.1437227E-01  0.1828105E-01
  0.1082360E+02  0.1082360E+02 -0.2568960E-01  0.2693995E-01 -0.2120636E+01  0.1407749E-01  0.2296922E-01
  0.9710590E+01  0.1183240E+02 -0.2568960E-01  0.3094121E-01 -0.2035282E+01  0.1386051E-01  0.2766306E-01
  0.8504060E+01  0.1272720E+02 -0.2568960E-01  0.3679080E-01 -0.1969304E+01  0.1427642E-01  0.3390792E-01
  0.7215620E+01  0.1349950E+02 -0.2568960E-01  0.4348008E-01 -0.1925150E+01  0.1508692E-01  0.4077870E-01
  0.5857700E+01  0.1414170E+02 -0.2568960E-01  0.5282930E-01 -0.1898910E+01  0.1702467E-01  0.5001095E-01
  0.4443360E+01  0.1464780E+02 -0.2568960E-01  0.6598909E-01 -0.1885297E+01  0.2041317E-01  0.6275240E-01
  0.2986230E+01  0.1501280E+02 -0.2568960E-01  0.9115943E-01 -0.1892817E+01  0.2885049E-01  0.8647364E-01
  0.1500340E+01  0.1523320E+02 -0.2568960E-01  0.1598485E+00 -0.1918403E+01  0.5445221E-01  0.1502880E+00
 -0.6690860E-06  0.1530690E+02 -0.2568960E-01  0.1831771E+00 -0.1906634E+01  0.6036785E-01  0.1729438E+00
 -0.1500340E+01  0.1523320E+02 -0.2568960E-01  0.1847779E+00 -0.1876071E+01  0.5553594E-01  0.1762345E+00
 -0.2986230E+01  0.1501280E+02 -0.2568960E-01  0.1551428E+00 -0.1777921E+01  0.3190462E-01  0.1518268E+00
 -0.4443360E+01  0.1464780E+02 -0.2568960E-01  0.1401425E+00 -0.1716368E+01  0.2032886E-01  0.1386603E+00
 -0.5857700E+01  0.1414170E+02 -0.2568960E-01  0.1323097E+00 -0.1674142E+01  0.1364932E-01  0.1316038E+00
 -0.7215620E+01  0.1349950E+02 -0.2568960E-01  0.1260247E+00 -0.1638232E+01  0.8492087E-02  0.1257382E+00
 -0.8504060E+01  0.1272720E+02 -0.2568960E-01  0.1212518E+00 -0.1608579E+01  0.4580107E-02  0.1211652E+00
 -0.9710590E+01  0.1183240E+02 -0.2568960E-01  0.1173672E+00 -0.1582742E+01  0.1402023E-02  0.1173589E+00
 -0.1082360E+02  0.1082360E+02 -0.2568960E-01  0.1137505E+00 -0.1561381E+01 -0.1070976E-02  0.1137455E+00
 -0.1183240E+02  0.9710590E+01 -0.2568960E-01  0.1103280E+00 -0.1541534E+01 -0.3227990E-02  0.1102808E+00
 -0.1272720E+02  0.8504060E+01 -0.2568960E-01  0.1073120E+00 -0.1524075E+01 -0.5011911E-02  0.1071949E+00
 -0.1349950E+02  0.7215620E+01 -0.2568960E-01  0.1043707E+00 -0.1510441E+01 -0.6295543E-02  0.1041806E+00
 -0.1414170E+02  0.5857690E+01 -0.2568960E-01  0.1015071E+00 -0.1500064E+01 -0.7173798E-02  0.1012533E+00
 -0.1464780E+02  0.4443360E+01 -0.2568960E-01  0.9886918E-01 -0.1492295E+01 -0.7753432E-02  0.9856470E-01
 -0.1501280E+02  0.2986230E+01 -0.2568960E-01  0.9621157E-01 -0.1486247E+01 -0.8124905E-02  0.9586789E-01
 -0.1523320E+02  0.1500340E+01 -0.2568960E-01  0.9352212E-01 -0.1483689E+01 -0.8136145E-02  0.9316754E-01
 -0.1530690E+02 -0.1338170E-05 -0.2568960E-01  0.9075256E-01 -0.1484950E+01 -0.7781194E-02  0.9041836E-01
 -0.1523320E+02 -0.1500340E+01 -0.2568960E-01  0.8782665E-01 -0.1490163E+01 -0.7074045E-02  0.8754129E-01
 -0.1501280E+02 -0.2986230E+01 -0.2568960E-01  0.8469401E-01 -0.1499734E+01 -0.6013493E-02  0.8448025E-01
 -0.1464780E+02 -0.4443360E+01 -0.2568960E-01  0.8141840E-01 -0.1513687E+01 -0.4647226E-02  0.8128566E-01
 -0.1414170E+02 -0.5857700E+01 -0.2568960E-01  0.7857180E-01 -0.1529479E+01 -0.3245476E-02  0.7850475E-01
 -0.1349950E+02 -0.7215620E+01 -0.2568960E-01  0.7599893E-01 -0.1547597E+01 -0.1762986E-02  0.7597848E-01
 -0.1272720E+02 -0.8504060E+01 -0.2568960E-01  0.7291543E-01 -0.1571396E+01  0.4368607E-04  0.7291542E-01
 -0.1183240E+02 -0.9710600E+01 -0.2568960E-01  0.6864671E-01 -0.1606694E+01  0.2463738E-02  0.6860249E-01
 -0.1082360E+02 -0.1082360E+02 -0.2568960E-01  0.6406903E-01 -0.1650350E+01  0.5091554E-02  0.6386640E-01
 -0.9710600E+01 -0.1183240E+02 -0.2568960E-01  0.5962336E-01 -0.1701680E+01  0.7781455E-02  0.5911340E-01
 -0.8504050E+01 -0.1272720E+02 -0.2568960E-01  0.5396751E-01 -0.1781058E+01  0.1126386E-01  0.5277894E-01
 -0.7215620E+01 -0.1349950E+02 -0.2568960E-01  0.4821365E-01 -0.1889233E+01  0.1509483E-01  0.4578976E-01
 -0.5857690E+01 -0.1414170E+02 -0.2568960E-01  0.4159755E-01 -0.2076867E+01  0.2016416E-01  0.3638355E-01
 -0.4443360E+01 -0.1464780E+02 -0.2568960E-01  0.3567433E-01 -0.2426306E+01  0.2693075E-01  0.2339643E-01
 -0.2986230E+01 -0.1501280E+02 -0.2568960E-01  0.3950291E-01  0.3122020E+01  0.3949535E-01 -0.7731419E-03
 -0.1500340E+01 -0.1523320E+02 -0.2568960E-01  0.9841990E-01  0.2413137E+01  0.7344127E-01 -0.6551989E-01
  0.1825330E-06 -0.1530690E+02 -0.2568960E-01  0.1223963E+00  0.2335026E+01  0.8469597E-01 -0.8835980E-01
  0.1500340E+01 -0.1523320E+02 -0.2568960E-01  0.1243388E+00  0.2315541E+01  0.8427487E-01 -0.9142141E-01
  0.2986230E+01 -0.1501280E+02 -0.2568960E-01  0.9269245E-01  0.2348736E+01  0.6505280E-01 -0.6603047E-01
  0.4443360E+01 -0.1464780E+02 -0.2568960E-01  0.7616326E-01  0.2383019E+01  0.5528065E-01 -0.5239172E-01
  0.5857700E+01 -0.1414170E+02 -0.2568960E-01  0.6727859E-01  0.2407495E+01  0.4995003E-01 -0.4507108E-01
  0.7215620E+01 -0.1349950E+02 -0.2568960E-01  0.6011587E-01  0.2435263E+01  0.4573309E-01 -0.3901797E-01
  0.8504060E+01 -0.1272720E+02 -0.2568960E-01  0.5459430E-01  0.2461844E+01  0.4245966E-01 -0.3431786E-01
  0.9710600E+01 -0.1183240E+02 -0.2568960E-01  0.5002706E-01  0.2487976E+01  0.3971599E-01 -0.3041952E-01
  0.1082360E+02 -0.1082360E+02 -0.2568960E-01  0.4590510E-01  0.2519506E+01  0.3730544E-01 -0.2675037E-01
  0.1183240E+02 -0.9710590E+01 -0.2568960E-01  0.4199325E-01  0.2554988E+01  0.3497303E-01 -0.2324479E-01
  0.1272720E+02 -0.8504060E+01 -0.2568960E-01  0.3843509E-01  0.2590551E+01  0.3274591E-01 -0.2012365E-01
  0.1349950E+02 -0.7215620E+01 -0.2568960E-01  0.3508706E-01  0.2632903E+01  0.3064446E-01 -0.1708857E-01
  0.1414170E+02 -0.5857700E+01 -0.2568960E-01  0.3195870E-01  0.2682946E+01  0.2865585E-01 -0.1414923E-01
  0.1464780E+02 -0.4443350E+01 -0.2568960E-01  0.2912968E-01  0.2737526E+01  0.2678386E-01 -0.1145265E-01
  0.1501280E+02 -0.2986230E+01 -0.2568960E-01  0.2642992E-01  0.2804276E+01  0.2494049E-01 -0.8747154E-02
  0.1523320E+02 -0.1500330E+01 -0.2568960E-01  0.2401279E-01  0.2887008E+01  0.2323881E-01 -0.6047460E-02
  0.1530690E+02  0.0000000E+00 -0.1027320E+00  0.2188960E-01  0.2989604E+01  0.2163726E-01 -0.3314165E-02
  0.1523320E+02  0.1500340E+01 -0.1027320E+00  0.2024673E-01  0.3118493E+01  0.2024132E-01 -0.4676483E-03
  0.1501280E+02  0.2986230E+01 -0.1027320E+00  0.1918532E-01 -0.3008235E+01  0.1901498E-01  0.2550930E-02
  0.1464780E+02  0.4443360E+01 -0.1027320E+00  0.1882085E-01 -0.2834178E+01  0.1793851E-01  0.5695105E-02
  0.1414170E+02  0.5857700E+01 -0.1027320E+00  0.1881686E-01 -0.2676244E+01  0.1681597E-01  0.8443769E-02
  0.1349950E+02  0.7215620E+01 -0.1027320E+00  0.1915893E-01 -0.2533185E+01  0.1572103E-01  0.1095051E-01
  0.1272720E+02  0.8504060E+01 -0.1027320E+00  0.2037338E-01 -0.2385219E+01  0.1481816E-01  0.1398201E-01
  0.1183240E+02  0.9710600E+01 -0.1027320E+00  0.2318925E-01 -0.2237292E+01  0.1433642E-01  0.1822658E-01
  0.1082360E+02  0.1082360E+02 -0.1027320E+00  0.2685791E-01 -0.2120920E+01  0.1404112E-01  0.2289528E-01
  0.9710590E+01  0.1183240E+02 -0.1027320E+00  0.3086200E-01 -0.2035506E+01  0.1383122E-01  0.2758913E-01
  0.8504060E+01  0.1272720E+02 -0.1027320E+00  0.3667819E-01 -0.1969587E+01  0.1424229E-01  0.3380011E-01
  0.7215620E+01  0.1349950E+02 -0.1027320E+00  0.4336541E-01 -0.1925417E+01  0.1505797E-01  0.4066714E-01
  0.5857700E+01  0.1414170E+02 -0.1027320E+00  0.5268028E-01 -0.1899117E+01  0.1698694E-01  0.4986638E-01
  0.4443360E+01  0.1464780E+02 -0.1027320E+00  0.6580675E-01 -0.1885534E+01  0.2037161E-01  0.6257416E-01
  0.2986230E+01  0.1501280E+02 -0.1027320E+00  0.9093845E-01 -0.1893032E+01  0.2879908E-01  0.8625784E-01
  0.1500340E+01  0.1523320E+02 -0.1027320E+00  0.1594366E+00 -0.1918547E+01  0.5433344E-01  0.1498930E+00
 -0.6690860E-06  0.1530690E+02 -0.1027320E+00  0.1827381E+00 -0.1906756E+01  0.6024426E-01  0.1725220E+00
 -0.1500340E+01  0.1523320E+02 -0.1027320E+00  0.1843409E+00 -0.1876168E+01  0.5542173E-01  0.1758124E+00
 -0.2986230E+01  0.1501280E+02 -0.1027320E+00  0.1547660E+00 -0.1778065E+01  0.3184901E-01  0.1514535E+00
 -0.4443360E+01  0.1464780E+02 -0.1027320E+00  0.1397902E+00 -0.1716480E+01  0.2029325E-01  0.1383094E+00
 -0.5857700E+01  0.1414170E+02 -0.1027320E+00  0.1319568E+00 -0.1674215E+01  0.1362250E-01  0.1312518E+00
 -0.7215620E+01  0.1349950E+02 -0.1027320E+00  0.1256957E+00 -0.1638327E+01  0.8481816E-02  0.1254092E+00
 -0.8504060E+01  0.1272720E+02 -0.1027320E+00  0.1209333E+00 -0.1608643E+01  0.4575844E-02  0.1208467E+00
 -0.9710590E+01  0.1183240E+02 -0.1027320E+00  0.1170538E+00 -0.1582810E+01  0.1406186E-02  0.1170453E+00
 -0.1082360E+02  0.1082360E+02 -0.1027320E+00  0.1134461E+00 -0.1561411E+01 -0.1064767E-02  0.1134411E+00
 -0.1183240E+02  0.9710590E+01 -0.1027320E+00  0.1100341E+00 -0.1541567E+01 -0.3215738E-02  0.1099871E+00
 -0.1272720E+02  0.8504060E+01 -0.1027320E+00  0.1070238E+00 -0.1524127E+01 -0.4992902E-02  0.1069073E+00
 -0.1349950E+02  0.7215620E+01 -0.1027320E+00  0.1040916E+00 -0.1510493E+01 -0.6273311E-02  0.1039024E+00
 -0.1414170E+02  0.5857690E+01 -0.1027320E+00  0.1012400E+00 -0.1500112E+01 -0.7150131E-02  0.1009872E+00
 -0.1464780E+02  0.4443360E+01 -0.1027320E+00  0.9861019E-01 -0.1492333E+01 -0.7729321E-02  0.9830680E-01
 -0.1501280E+02  0.2986230E+01 -0.1027320E+00  0.9596096E-01 -0.1486302E+01 -0.8098483E-02  0.9561862E-01
 -0.1523320E+02  0.1500340E+01 -0.1027320E+00  0.9327964E-01 -0.1483756E+01 -0.8108813E-02  0.9292652E-01
 -0.1530690E+02 -0.1338170E-05 -0.1027320E+00  0.9051870E-01 -0.1485017E+01 -0.7755151E-02  0.9018587E-01
 -0.1523320E+02 -0.1500340E+01 -0.1027320E+00  0.8760279E-01 -0.1490216E+01 -0.7051393E-02  0.8731853E-01
 -0.1501280E+02 -0.2986230E+01 -0.1027320E+00  0.8448223E-01 -0.1499760E+01 -0.5996244E-02  0.8426917E-01
 -0.1464780E+02 -0.4443360E+01 -0.1027320E+00  0.8121883E-01 -0.1513678E+01 -0.4636583E-02  0.8108637E-01
 -0.1414170E+02 -0.5857700E+01 -0.1027320E+00  0.7837291E-01 -0.1529480E+01 -0.3237153E-02  0.7830603E-01
 -0.1349950E+02 -0.7215620E+01 -0.1027320E+00  0.7579184E-01 -0.1547661E+01 -0.1753304E-02  0.7577156E-01
 -0.1272720E+02 -0.8504060E+01 -0.1027320E+00  0.7270869E-01 -0.1571503E+01  0.5135324E-04  0.7270867E-01
 -0.1183240E+02 -0.9710600E+01 -0.1027320E+00  0.6846482E-01 -0.1606723E+01  0.2459175E-02  0.6842063E-01
 -0.1082360E+02 -0.1082360E+02 -0.1027320E+00  0.6390626E-01 -0.1650333E+01  0.5077555E-02  0.6370423E-01
 -0.9710600E+01 -0.1183240E+02 -0.1027320E+00  0.5946055E-01 -0.1701809E+01  0.7767817E-02  0.5895098E-01
 -0.8504050E+01 -0.1272720E+02 -0.1027320E+00  0.5383566E-01 -0.1781020E+01  0.1123433E-01  0.5265043E-01
 -0.7215620E+01 -0.1349950E+02 -0.1027320E+00  0.4808592E-01 -0.1889432E+01  0.1506395E-01  0.4566545E-01
 -0.5857690E+01 -0.1414170E+02 -0.1027320E+00  0.4149467E-01 -0.2076915E+01  0.2011604E-01  0.3629259E-01
 -0.4443360E+01 -0.1464780E+02 -0.1027320E+00  0.3558919E-01 -0.2426347E+01  0.2686742E-01  0.2333950E-01
 -0.2986230E+01 -0.1501280E+02 -0.1027320E+00  0.3942131E-01  0.3121504E+01  0.3941336E-01 -0.7918702E-03
 -0.1500340E+01 -0.1523320E+02 -0.1027320E+00  0.9818116E-01  0.2413190E+01  0.7326655E-01 -0.6535711E-01
  0.1825330E-06 -0.1530690E+02 -0.1027320E+00  0.1221285E+00  0.2334990E+01  0.8450741E-01 -0.8816950E-01
  0.1500340E+01 -0.1523320E+02 -0.1027320E+00  0.1240724E+00  0.2315472E+01  0.8408808E-01 -0.9123139E-01
  0.2986230E+01 -0.1501280E+02 -0.1027320E+00  0.9249307E-01  0.2348685E+01  0.6490948E-01 -0.6589179E-01
  0.4443360E+01 -0.1464780E+02 -0.1027320E+00  0.7599121E-01  0.2382966E+01  0.5515303E-01 -0.5227626E-01
  0.5857700E+01 -0.1414170E+02 -0.1027320E+00  0.6710798E-01  0.2407532E+01  0.4982501E-01 -0.4495498E-01
  0.7215620E+01 -0.1349950E+02 -0.1027320E+00  0.5997173E-01  0.2435240E+01  0.4562254E-01 -0.3892548E-01
  0.8504060E+01 -0.1272720E+02 -0.1027320E+00  0.5446070E-01  0.2461798E+01  0.4235420E-01 -0.3423579E-01
  0.9710600E+01 -0.1183240E+02 -0.1027320E+00  0.4990073E-01  0.2487976E+01  0.3961568E-01 -0.3034272E-01
  0.1082360E+02 -0.1082360E+02 -0.1027320E+00  0.4578639E-01  0.2519468E+01  0.3720795E-01 -0.2668261E-01
  0.1183240E+02 -0.9710590E+01 -0.1027320E+00  0.4188576E-01  0.2554919E+01  0.3488190E-01 -0.2318772E-01
  0.1272720E+02 -0.8504060E+01 -0.1027320E+00  0.3833650E-01  0.2590524E+01  0.3266137E-01 -0.2007292E-01
