 VARIABLES="X" "Y" "Z" "abs(eta) (m)" "angle(phi) (rad)" "PRE1" "PRE2"
ZONE N=   3200 ,E =    3136 ,F=FEPOINT,ET=QUADRILATERAL
  0.1672760E+02  0.0000000E+00  0.0000000E+00  0.1930382E+00  0.2541311E+01  0.1592906E+00 -0.1090425E+00
  0.1664710E+02  0.1639590E+01  0.0000000E+00  0.1986589E+00  0.2545641E+01  0.1644130E+00 -0.1115066E+00
  0.1640620E+02  0.3263390E+01  0.0000000E+00  0.2036828E+00  0.2548374E+01  0.1688827E+00 -0.1138653E+00
  0.1600730E+02  0.4855770E+01  0.0000000E+00  0.2085343E+00  0.2547584E+01  0.1728131E+00 -0.1167141E+00
  0.1545430E+02  0.6401380E+01  0.0000000E+00  0.2137206E+00  0.2541239E+01  0.1763486E+00 -0.1207382E+00
  0.1475240E+02  0.7885340E+01  0.0000000E+00  0.2188976E+00  0.2531725E+01  0.1794355E+00 -0.1253756E+00
  0.1390850E+02  0.9293360E+01  0.0000000E+00  0.2226644E+00  0.2523154E+01  0.1814235E+00 -0.1290928E+00
  0.1293060E+02  0.1061190E+02  0.0000000E+00  0.2233066E+00  0.2518509E+01  0.1813435E+00 -0.1303089E+00
  0.1182820E+02  0.1182820E+02  0.0000000E+00  0.2236839E+00  0.2511901E+01  0.1807834E+00 -0.1317264E+00
  0.1061190E+02  0.1293060E+02  0.0000000E+00  0.2233801E+00  0.2504933E+01  0.1796169E+00 -0.1328022E+00
  0.9293360E+01  0.1390850E+02  0.0000000E+00  0.2206286E+00  0.2500359E+01  0.1768026E+00 -0.1319767E+00
  0.7885330E+01  0.1475240E+02  0.0000000E+00  0.2185912E+00  0.2493840E+01  0.1743137E+00 -0.1318971E+00
  0.6401380E+01  0.1545430E+02  0.0000000E+00  0.2142206E+00  0.2490691E+01  0.1704206E+00 -0.1297972E+00
  0.4855770E+01  0.1600730E+02  0.0000000E+00  0.2045948E+00  0.2496719E+01  0.1635071E+00 -0.1229815E+00
  0.3263390E+01  0.1640620E+02  0.0000000E+00  0.1892206E+00  0.2515350E+01  0.1533133E+00 -0.1109030E+00
  0.1639590E+01  0.1664710E+02  0.0000000E+00  0.1559955E+00  0.2572477E+01  0.1314072E+00 -0.8406401E-01
 -0.7311870E-06  0.1672760E+02  0.0000000E+00  0.1067302E+00  0.2715799E+01  0.9720036E-01 -0.4408425E-01
 -0.1639590E+01  0.1664710E+02  0.0000000E+00  0.5073711E-01 -0.2881750E+01  0.4903389E-01  0.1303580E-01
 -0.3263390E+01  0.1640620E+02  0.0000000E+00  0.8266831E-01 -0.1476759E+01 -0.7762451E-02  0.8230306E-01
 -0.4855770E+01  0.1600730E+02  0.0000000E+00  0.1410257E+00 -0.1208943E+01 -0.4992429E-01  0.1318932E+00
 -0.6401380E+01  0.1545430E+02  0.0000000E+00  0.1812795E+00 -0.1119230E+01 -0.7910600E-01  0.1631089E+00
 -0.7885340E+01  0.1475240E+02  0.0000000E+00  0.2096012E+00 -0.1068258E+01 -0.1009547E+00  0.1836867E+00
 -0.9293360E+01  0.1390850E+02  0.0000000E+00  0.2306207E+00 -0.1032174E+01 -0.1182978E+00  0.1979686E+00
 -0.1061190E+02  0.1293060E+02  0.0000000E+00  0.2494134E+00 -0.1003123E+01 -0.1341025E+00  0.2102940E+00
 -0.1182820E+02  0.1182820E+02  0.0000000E+00  0.2632968E+00 -0.9798506E+00 -0.1466949E+00  0.2186454E+00
 -0.1293060E+02  0.1061190E+02  0.0000000E+00  0.2756574E+00 -0.9604580E+00 -0.1579916E+00  0.2258886E+00
 -0.1390850E+02  0.9293360E+01  0.0000000E+00  0.2878384E+00 -0.9450523E+00 -0.1685871E+00  0.2333010E+00
 -0.1475240E+02  0.7885330E+01  0.0000000E+00  0.2947051E+00 -0.9320546E+00 -0.1756990E+00  0.2366029E+00
 -0.1545430E+02  0.6401370E+01  0.0000000E+00  0.2987489E+00 -0.9215565E+00 -0.1806179E+00  0.2379665E+00
 -0.1600730E+02  0.4855770E+01  0.0000000E+00  0.3023142E+00 -0.9145749E+00 -0.1844502E+00  0.2395245E+00
 -0.1640620E+02  0.3263390E+01  0.0000000E+00  0.3063971E+00 -0.9120588E+00 -0.1875515E+00  0.2422883E+00
 -0.1664710E+02  0.1639590E+01  0.0000000E+00  0.3106032E+00 -0.9136162E+00 -0.1897434E+00  0.2459102E+00
 -0.1672760E+02 -0.1462370E-05  0.0000000E+00  0.3135462E+00 -0.9184915E+00 -0.1903287E+00  0.2491710E+00
 -0.1664710E+02 -0.1639590E+01  0.0000000E+00  0.3152374E+00 -0.9268500E+00 -0.1892547E+00  0.2521057E+00
 -0.1640620E+02 -0.3263400E+01  0.0000000E+00  0.3158970E+00 -0.9391307E+00 -0.1865340E+00  0.2549431E+00
 -0.1600730E+02 -0.4855770E+01  0.0000000E+00  0.3162506E+00 -0.9558923E+00 -0.1824387E+00  0.2583226E+00
 -0.1545430E+02 -0.6401380E+01  0.0000000E+00  0.3169251E+00 -0.9783790E+00 -0.1769609E+00  0.2629189E+00
 -0.1475240E+02 -0.7885340E+01  0.0000000E+00  0.3173510E+00 -0.1006094E+01 -0.1698349E+00  0.2680816E+00
 -0.1390850E+02 -0.9293360E+01  0.0000000E+00  0.3161434E+00 -0.1037179E+01 -0.1608068E+00  0.2721907E+00
 -0.1293060E+02 -0.1061190E+02  0.0000000E+00  0.3119842E+00 -0.1070061E+01 -0.1497744E+00  0.2736818E+00
 -0.1182820E+02 -0.1182820E+02  0.0000000E+00  0.3076549E+00 -0.1107852E+01 -0.1373938E+00  0.2752716E+00
 -0.1061190E+02 -0.1293060E+02  0.0000000E+00  0.3026483E+00 -0.1151050E+01 -0.1233379E+00  0.2763761E+00
 -0.9293350E+01 -0.1390850E+02  0.0000000E+00  0.2955485E+00 -0.1199346E+01 -0.1072744E+00  0.2753926E+00
 -0.7885340E+01 -0.1475240E+02  0.0000000E+00  0.2889185E+00 -0.1258101E+01 -0.8887849E-01  0.2749082E+00
 -0.6401370E+01 -0.1545430E+02  0.0000000E+00  0.2804218E+00 -0.1326802E+01 -0.6774444E-01  0.2721159E+00
 -0.4855760E+01 -0.1600730E+02  0.0000000E+00  0.2678048E+00 -0.1408259E+01 -0.4333679E-01  0.2642751E+00
 -0.3263390E+01 -0.1640620E+02  0.0000000E+00  0.2510068E+00 -0.1517186E+01 -0.1345001E-01  0.2506462E+00
 -0.1639590E+01 -0.1664710E+02  0.0000000E+00  0.2226699E+00 -0.1649418E+01  0.1748865E-01  0.2219821E+00
  0.1994750E-06 -0.1672760E+02  0.0000000E+00  0.1849029E+00 -0.1779745E+01  0.3835468E-01  0.1808812E+00
  0.1639600E+01 -0.1664710E+02  0.0000000E+00  0.1322419E+00 -0.1933735E+01  0.4694899E-01  0.1236273E+00
  0.3263390E+01 -0.1640620E+02  0.0000000E+00  0.7263287E-01 -0.2282129E+01  0.4741792E-01  0.5501886E-01
  0.4855770E+01 -0.1600730E+02  0.0000000E+00  0.5073378E-01 -0.3021336E+01  0.5036737E-01  0.6086382E-02
  0.6401380E+01 -0.1545430E+02  0.0000000E+00  0.6272568E-01  0.2735167E+01  0.5761602E-01 -0.2479726E-01
  0.7885340E+01 -0.1475240E+02  0.0000000E+00  0.8033864E-01  0.2543839E+01  0.6640809E-01 -0.4521353E-01
  0.9293360E+01 -0.1390850E+02  0.0000000E+00  0.9660569E-01  0.2478790E+01  0.7615143E-01 -0.5944425E-01
  0.1061190E+02 -0.1293060E+02  0.0000000E+00  0.1120736E+00  0.2446723E+01  0.8608790E-01 -0.7175908E-01
  0.1182820E+02 -0.1182820E+02  0.0000000E+00  0.1251570E+00  0.2446870E+01  0.9614952E-01 -0.8012205E-01
  0.1293060E+02 -0.1061190E+02  0.0000000E+00  0.1372091E+00  0.2451428E+01  0.1058076E+00 -0.8735605E-01
  0.1390850E+02 -0.9293360E+01  0.0000000E+00  0.1488952E+00  0.2452191E+01  0.1148915E+00 -0.9470867E-01
  0.1475240E+02 -0.7885330E+01  0.0000000E+00  0.1579113E+00  0.2472178E+01  0.1238317E+00 -0.9798820E-01
  0.1545430E+02 -0.6401380E+01  0.0000000E+00  0.1654686E+00  0.2497838E+01  0.1323497E+00 -0.9931464E-01
  0.1600730E+02 -0.4855760E+01  0.0000000E+00  0.1726275E+00  0.2518679E+01  0.1402050E+00 -0.1007115E+00
  0.1640620E+02 -0.3263390E+01  0.0000000E+00  0.1798286E+00  0.2530788E+01  0.1473133E+00 -0.1031365E+00
  0.1664710E+02 -0.1639590E+01  0.0000000E+00  0.1867605E+00  0.2536267E+01  0.1535763E+00 -0.1062723E+00
  0.1672760E+02  0.0000000E+00 -0.2568960E-01  0.1928004E+00  0.2541233E+01  0.1590858E+00 -0.1089206E+00
  0.1664710E+02  0.1639590E+01 -0.2568960E-01  0.1984134E+00  0.2545563E+01  0.1642012E+00 -0.1113815E+00
  0.1640620E+02  0.3263390E+01 -0.2568960E-01  0.2034312E+00  0.2548304E+01  0.1686661E+00 -0.1137365E+00
  0.1600730E+02  0.4855770E+01 -0.2568960E-01  0.2082746E+00  0.2547528E+01  0.1725914E+00 -0.1165784E+00
  0.1545430E+02  0.6401380E+01 -0.2568960E-01  0.2134452E+00  0.2541206E+01  0.1761174E+00 -0.1205883E+00
  0.1475240E+02  0.7885340E+01 -0.2568960E-01  0.2186026E+00  0.2531725E+01  0.1791937E+00 -0.1252066E+00
  0.1390850E+02  0.9293360E+01 -0.2568960E-01  0.2223573E+00  0.2523168E+01  0.1811750E+00 -0.1289122E+00
  0.1293060E+02  0.1061190E+02 -0.2568960E-01  0.2230097E+00  0.2518502E+01  0.1811015E+00 -0.1301367E+00
  0.1182820E+02  0.1182820E+02 -0.2568960E-01  0.2233921E+00  0.2511894E+01  0.1805466E+00 -0.1315559E+00
  0.1061190E+02  0.1293060E+02 -0.2568960E-01  0.2230876E+00  0.2504923E+01  0.1793804E+00 -0.1326302E+00
  0.9293360E+01  0.1390850E+02 -0.2568960E-01  0.2203539E+00  0.2500327E+01  0.1765783E+00 -0.1318179E+00
  0.7885330E+01  0.1475240E+02 -0.2568960E-01  0.2183149E+00  0.2493814E+01  0.1740900E+00 -0.1317348E+00
  0.6401380E+01  0.1545430E+02 -0.2568960E-01  0.2139481E+00  0.2490665E+01  0.1702005E+00 -0.1296364E+00
  0.4855770E+01  0.1600730E+02 -0.2568960E-01  0.2043560E+00  0.2496669E+01  0.1633102E+00 -0.1228461E+00
  0.3263390E+01  0.1640620E+02 -0.2568960E-01  0.1889882E+00  0.2515315E+01  0.1531211E+00 -0.1107722E+00
  0.1639590E+01  0.1664710E+02 -0.2568960E-01  0.1558344E+00  0.2572375E+01  0.1312629E+00 -0.8399059E-01
 -0.7311870E-06  0.1672760E+02 -0.2568960E-01  0.1066186E+00  0.2715646E+01  0.9709206E-01 -0.4405297E-01
 -0.1639590E+01  0.1664710E+02 -0.2568960E-01  0.5067988E-01 -0.2882296E+01  0.4898568E-01  0.1299436E-01
 -0.3263390E+01  0.1640620E+02 -0.2568960E-01  0.8255139E-01 -0.1476849E+01 -0.7744072E-02  0.8218735E-01
 -0.4855770E+01  0.1600730E+02 -0.2568960E-01  0.1408587E+00 -0.1208904E+01 -0.4987027E-01  0.1317350E+00
 -0.6401380E+01  0.1545430E+02 -0.2568960E-01  0.1810453E+00 -0.1119230E+01 -0.7900370E-01  0.1628982E+00
 -0.7885340E+01  0.1475240E+02 -0.2568960E-01  0.2093260E+00 -0.1068266E+01 -0.1008207E+00  0.1834464E+00
 -0.9293360E+01  0.1390850E+02 -0.2568960E-01  0.2303253E+00 -0.1032176E+01 -0.1181459E+00  0.1977152E+00
 -0.1061190E+02  0.1293060E+02 -0.2568960E-01  0.2490758E+00 -0.1003135E+01 -0.1339185E+00  0.2100109E+00
 -0.1182820E+02  0.1182820E+02 -0.2568960E-01  0.2629472E+00 -0.9798620E+00 -0.1464977E+00  0.2183568E+00
 -0.1293060E+02  0.1061190E+02 -0.2568960E-01  0.2752881E+00 -0.9604660E+00 -0.1577781E+00  0.2255872E+00
 -0.1390850E+02  0.9293360E+01 -0.2568960E-01  0.2874327E+00 -0.9450576E+00 -0.1683482E+00  0.2329730E+00
 -0.1475240E+02  0.7885330E+01 -0.2568960E-01  0.2942980E+00 -0.9320616E+00 -0.1754546E+00  0.2362774E+00
 -0.1545430E+02  0.6401370E+01 -0.2568960E-01  0.2983524E+00 -0.9215732E+00 -0.1803742E+00  0.2376537E+00
 -0.1600730E+02  0.4855770E+01 -0.2568960E-01  0.3019255E+00 -0.9146006E+00 -0.1842069E+00  0.2392213E+00
 -0.1640620E+02  0.3263390E+01 -0.2568960E-01  0.3060067E+00 -0.9120862E+00 -0.1873059E+00  0.2419847E+00
 -0.1664710E+02  0.1639590E+01 -0.2568960E-01  0.3102051E+00 -0.9136475E+00 -0.1894925E+00  0.2456009E+00
 -0.1672760E+02 -0.1462370E-05 -0.2568960E-01  0.3131423E+00 -0.9185234E+00 -0.1900756E+00  0.2488561E+00
 -0.1664710E+02 -0.1639590E+01 -0.2568960E-01  0.3148302E+00 -0.9268832E+00 -0.1890019E+00  0.2517863E+00
 -0.1640620E+02 -0.3263400E+01 -0.2568960E-01  0.3154884E+00 -0.9391654E+00 -0.1862839E+00  0.2546198E+00
 -0.1600730E+02 -0.4855770E+01 -0.2568960E-01  0.3158387E+00 -0.9559271E+00 -0.1821921E+00  0.2579925E+00
 -0.1545430E+02 -0.6401380E+01 -0.2568960E-01  0.3165036E+00 -0.9784001E+00 -0.1767200E+00  0.2625730E+00
 -0.1475240E+02 -0.7885340E+01 -0.2568960E-01  0.3169155E+00 -0.1006103E+01 -0.1695994E+00  0.2677153E+00
 -0.1390850E+02 -0.9293360E+01 -0.2568960E-01  0.3157046E+00 -0.1037178E+01 -0.1605838E+00  0.2718128E+00
 -0.1293060E+02 -0.1061190E+02 -0.2568960E-01  0.3115616E+00 -0.1070066E+01 -0.1495703E+00  0.2733119E+00
 -0.1182820E+02 -0.1182820E+02 -0.2568960E-01  0.3072411E+00 -0.1107867E+01 -0.1372051E+00  0.2749034E+00
 -0.1061190E+02 -0.1293060E+02 -0.2568960E-01  0.3022406E+00 -0.1151068E+01 -0.1231668E+00  0.2760060E+00
 -0.9293350E+01 -0.1390850E+02 -0.2568960E-01  0.2951616E+00 -0.1199377E+01 -0.1071254E+00  0.2750355E+00
 -0.7885340E+01 -0.1475240E+02 -0.2568960E-01  0.2885375E+00 -0.1258129E+01 -0.8875354E-01  0.2745482E+00
 -0.6401370E+01 -0.1545430E+02 -0.2568960E-01  0.2800521E+00 -0.1326826E+01 -0.6764870E-01  0.2717588E+00
 -0.4855760E+01 -0.1600730E+02 -0.2568960E-01  0.2674679E+00 -0.1408300E+01 -0.4327149E-01  0.2639444E+00
 -0.3263390E+01 -0.1640620E+02 -0.2568960E-01  0.2506815E+00 -0.1517226E+01 -0.1342258E-01  0.2503218E+00
 -0.1639590E+01 -0.1664710E+02 -0.2568960E-01  0.2224049E+00 -0.1649517E+01  0.1748983E-01  0.2217162E+00
  0.1994750E-06 -0.1672760E+02 -0.2568960E-01  0.1846799E+00 -0.1779840E+01  0.3832553E-01  0.1806594E+00
  0.1639600E+01 -0.1664710E+02 -0.2568960E-01  0.1320885E+00 -0.1933853E+01  0.4690903E-01  0.1234784E+00
  0.3263390E+01 -0.1640620E+02 -0.2568960E-01  0.7254183E-01 -0.2282245E+01  0.4736484E-01  0.5494441E-01
  0.4855770E+01 -0.1600730E+02 -0.2568960E-01  0.5066834E-01 -0.3021820E+01  0.5030534E-01  0.6054181E-02
  0.6401380E+01 -0.1545430E+02 -0.2568960E-01  0.6265086E-01  0.2734991E+01  0.5754294E-01 -0.2477783E-01
  0.7885340E+01 -0.1475240E+02 -0.2568960E-01  0.8024004E-01  0.2543746E+01  0.6632235E-01 -0.4516426E-01
  0.9293360E+01 -0.1390850E+02 -0.2568960E-01  0.9648833E-01  0.2478653E+01  0.7605082E-01 -0.5938240E-01
  0.1061190E+02 -0.1293060E+02 -0.2568960E-01  0.1119289E+00  0.2446711E+01  0.8597589E-01 -0.7166746E-01
  0.1182820E+02 -0.1182820E+02 -0.2568960E-01  0.1249966E+00  0.2446818E+01  0.9602212E-01 -0.8002438E-01
  0.1293060E+02 -0.1061190E+02 -0.2568960E-01  0.1370302E+00  0.2451390E+01  0.1056664E+00 -0.8724624E-01
  0.1390850E+02 -0.9293360E+01 -0.2568960E-01  0.1486916E+00  0.2452250E+01  0.1147401E+00 -0.9457229E-01
  0.1475240E+02 -0.7885330E+01 -0.2568960E-01  0.1576996E+00  0.2472203E+01  0.1236681E+00 -0.9785379E-01
  0.1545430E+02 -0.6401380E+01 -0.2568960E-01  0.1652560E+00  0.2497792E+01  0.1321751E+00 -0.9919322E-01
  0.1600730E+02 -0.4855760E+01 -0.2568960E-01  0.1724117E+00  0.2518580E+01  0.1400197E+00 -0.1005995E+00
  0.1640620E+02 -0.3263390E+01 -0.2568960E-01  0.1796063E+00  0.2530679E+01  0.1471199E+00 -0.1030252E+00
  0.1664710E+02 -0.1639590E+01 -0.2568960E-01  0.1865294E+00  0.2536174E+01  0.1533763E+00 -0.1061551E+00
  0.1672760E+02  0.0000000E+00 -0.1027320E+00  0.1921018E+00  0.2540884E+01  0.1584715E+00 -0.1085813E+00
  0.1664710E+02  0.1639590E+01 -0.1027320E+00  0.1976966E+00  0.2545242E+01  0.1635723E+00 -0.1110318E+00
  0.1640620E+02  0.3263390E+01 -0.1027320E+00  0.2026951E+00  0.2547993E+01  0.1680206E+00 -0.1133771E+00
  0.1600730E+02  0.4855770E+01 -0.1027320E+00  0.2075109E+00  0.2547256E+01  0.1719270E+00 -0.1161976E+00
  0.1545430E+02  0.6401380E+01 -0.1027320E+00  0.2126359E+00  0.2541030E+01  0.1754285E+00 -0.1201619E+00
  0.1475240E+02  0.7885340E+01 -0.1027320E+00  0.2177345E+00  0.2531656E+01  0.1784736E+00 -0.1247217E+00
  0.1390850E+02  0.9293360E+01 -0.1027320E+00  0.2214523E+00  0.2523149E+01  0.1804353E+00 -0.1283909E+00
  0.1293060E+02  0.1061190E+02 -0.1027320E+00  0.2221341E+00  0.2518432E+01  0.1803814E+00 -0.1296384E+00
  0.1182820E+02  0.1182820E+02 -0.1027320E+00  0.2225255E+00  0.2511807E+01  0.1798348E+00 -0.1310611E+00
  0.1061190E+02  0.1293060E+02 -0.1027320E+00  0.2222206E+00  0.2504847E+01  0.1786731E+00 -0.1321284E+00
  0.9293360E+01  0.1390850E+02 -0.1027320E+00  0.2195363E+00  0.2500196E+01  0.1759058E+00 -0.1313519E+00
  0.7885330E+01  0.1475240E+02 -0.1027320E+00  0.2174914E+00  0.2493709E+01  0.1734196E+00 -0.1312561E+00
  0.6401380E+01  0.1545430E+02 -0.1027320E+00  0.2131366E+00  0.2490574E+01  0.1695431E+00 -0.1291601E+00
  0.4855770E+01  0.1600730E+02 -0.1027320E+00  0.2036348E+00  0.2496494E+01  0.1627125E+00 -0.1224410E+00
  0.3263390E+01  0.1640620E+02 -0.1027320E+00  0.1882922E+00  0.2515181E+01  0.1525423E+00 -0.1103847E+00
  0.1639590E+01  0.1664710E+02 -0.1027320E+00  0.1553411E+00  0.2572075E+01  0.1308222E+00 -0.8376399E-01
 -0.7311870E-06  0.1672760E+02 -0.1027320E+00  0.1062730E+00  0.2715227E+01  0.9675888E-01 -0.4395078E-01
 -0.1639590E+01  0.1664710E+02 -0.1027320E+00  0.5050898E-01 -0.2883771E+01  0.4883954E-01  0.1287852E-01
 -0.3263390E+01  0.1640620E+02 -0.1027320E+00  0.8221745E-01 -0.1476907E+01 -0.7707980E-02  0.8185533E-01
 -0.4855770E+01  0.1600730E+02 -0.1027320E+00  0.1403531E+00 -0.1208810E+01 -0.4970364E-01  0.1312575E+00
 -0.6401380E+01  0.1545430E+02 -0.1027320E+00  0.1803466E+00 -0.1119224E+01 -0.7869986E-01  0.1622690E+00
 -0.7885340E+01  0.1475240E+02 -0.1027320E+00  0.2085066E+00 -0.1068283E+01 -0.1004229E+00  0.1827299E+00
 -0.9293360E+01  0.1390850E+02 -0.1027320E+00  0.2294479E+00 -0.1032191E+01 -0.1176928E+00  0.1969638E+00
 -0.1061190E+02  0.1293060E+02 -0.1027320E+00  0.2480781E+00 -0.1003164E+01 -0.1333761E+00  0.2091736E+00
 -0.1182820E+02  0.1182820E+02 -0.1027320E+00  0.2619159E+00 -0.9798883E+00 -0.1459174E+00  0.2175042E+00
 -0.1293060E+02  0.1061190E+02 -0.1027320E+00  0.2742006E+00 -0.9604998E+00 -0.1571472E+00  0.2247014E+00
 -0.1390850E+02  0.9293360E+01 -0.1027320E+00  0.2862374E+00 -0.9450852E+00 -0.1676417E+00  0.2320088E+00
 -0.1475240E+02  0.7885330E+01 -0.1027320E+00  0.2930982E+00 -0.9320986E+00 -0.1747306E+00  0.2353205E+00
 -0.1545430E+02  0.6401370E+01 -0.1027320E+00  0.2971909E+00 -0.9216318E+00 -0.1796582E+00  0.2367390E+00
 -0.1600730E+02  0.4855770E+01 -0.1027320E+00  0.3007907E+00 -0.9146808E+00 -0.1834954E+00  0.2383369E+00
 -0.1640620E+02  0.3263390E+01 -0.1027320E+00  0.3048670E+00 -0.9121882E+00 -0.1865837E+00  0.2411025E+00
 -0.1664710E+02  0.1639590E+01 -0.1027320E+00  0.3090399E+00 -0.9137570E+00 -0.1887539E+00  0.2446990E+00
 -0.1672760E+02 -0.1462370E-05 -0.1027320E+00  0.3119601E+00 -0.9186402E+00 -0.1893290E+00  0.2479388E+00
 -0.1664710E+02 -0.1639590E+01 -0.1027320E+00  0.3136397E+00 -0.9270046E+00 -0.1882567E+00  0.2508571E+00
 -0.1640620E+02 -0.3263400E+01 -0.1027320E+00  0.3142939E+00 -0.9392893E+00 -0.1855471E+00  0.2536788E+00
 -0.1600730E+02 -0.4855770E+01 -0.1027320E+00  0.3146334E+00 -0.9560342E+00 -0.1814693E+00  0.2570274E+00
 -0.1545430E+02 -0.6401380E+01 -0.1027320E+00  0.3152657E+00 -0.9784830E+00 -0.1760071E+00  0.2615606E+00
 -0.1475240E+02 -0.7885340E+01 -0.1027320E+00  0.3156390E+00 -0.1006131E+01 -0.1689088E+00  0.2666417E+00
 -0.1390850E+02 -0.9293360E+01 -0.1027320E+00  0.3144130E+00 -0.1037179E+01 -0.1599265E+00  0.2707011E+00
 -0.1293060E+02 -0.1061190E+02 -0.1027320E+00  0.3103152E+00 -0.1070098E+01 -0.1489632E+00  0.2722233E+00
 -0.1182820E+02 -0.1182820E+02 -0.1027320E+00  0.3060187E+00 -0.1107921E+01 -0.1366443E+00  0.2738170E+00
 -0.1061190E+02 -0.1293060E+02 -0.1027320E+00  0.3010347E+00 -0.1151124E+01 -0.1226599E+00  0.2749117E+00
 -0.9293350E+01 -0.1390850E+02 -0.1027320E+00  0.2940158E+00 -0.1199477E+01 -0.1066822E+00  0.2739785E+00
 -0.7885340E+01 -0.1475240E+02 -0.1027320E+00  0.2874071E+00 -0.1258207E+01 -0.8838447E-01  0.2734795E+00
 -0.6401370E+01 -0.1545430E+02 -0.1027320E+00  0.2789524E+00 -0.1326884E+01 -0.6736722E-01  0.2706956E+00
 -0.4855760E+01 -0.1600730E+02 -0.1027320E+00  0.2664617E+00 -0.1408406E+01 -0.4308075E-01  0.2629561E+00
 -0.3263390E+01 -0.1640620E+02 -0.1027320E+00  0.2497133E+00 -0.1517331E+01 -0.1334461E-01  0.2493565E+00
 -0.1639590E+01 -0.1664710E+02 -0.1027320E+00  0.2216064E+00 -0.1649790E+01  0.1748726E-01  0.2209153E+00
  0.1994750E-06 -0.1672760E+02 -0.1027320E+00  0.1840027E+00 -0.1780070E+01  0.3822646E-01  0.1799881E+00
  0.1639600E+01 -0.1664710E+02 -0.1027320E+00  0.1316190E+00 -0.1934171E+01  0.4678141E-01  0.1230246E+00
  0.3263390E+01 -0.1640620E+02 -0.1027320E+00  0.7225262E-01 -0.2282616E+01  0.4719631E-01  0.5470786E-01
  0.4855770E+01 -0.1600730E+02 -0.1027320E+00  0.5046690E-01 -0.3023206E+01  0.5011365E-01  0.5960647E-02
  0.6401380E+01 -0.1545430E+02 -0.1027320E+00  0.6242060E-01  0.2734408E+01  0.5731705E-01 -0.2472017E-01
  0.7885340E+01 -0.1475240E+02 -0.1027320E+00  0.7994835E-01  0.2543445E+01  0.6606771E-01 -0.4501995E-01
  0.9293360E+01 -0.1390850E+02 -0.1027320E+00  0.9614261E-01  0.2478217E+01  0.7575248E-01 -0.5920273E-01
  0.1061190E+02 -0.1293060E+02 -0.1027320E+00  0.1114997E+00  0.2446605E+01  0.8563861E-01 -0.7140173E-01
  0.1182820E+02 -0.1182820E+02 -0.1027320E+00  0.1245221E+00  0.2446581E+01  0.9563870E-01 -0.7974328E-01
  0.1293060E+02 -0.1061190E+02 -0.1027320E+00  0.1365027E+00  0.2451196E+01  0.1052427E+00 -0.8693074E-01
  0.1390850E+02 -0.9293360E+01 -0.1027320E+00  0.1480919E+00  0.2452348E+01  0.1142864E+00 -0.9417979E-01
