 VARIABLES="X" "Y" "Z" "abs(eta) (m)" "angle(phi) (rad)" "PRE1" "PRE2"
ZONE N=   3200 ,E =    3136 ,F=FEPOINT,ET=QUADRILATERAL
  0.1530690E+02  0.0000000E+00  0.0000000E+00  0.9083187E-01 -0.1484925E+01 -0.7790242E-02  0.9049719E-01
  0.1523320E+02  0.1500340E+01  0.0000000E+00  0.9360434E-01 -0.1483664E+01 -0.8145634E-02  0.9324925E-01
  0.1501280E+02  0.2986230E+01  0.0000000E+00  0.9629676E-01 -0.1486224E+01 -0.8134330E-02  0.9595259E-01
  0.1464780E+02  0.4443360E+01  0.0000000E+00  0.9895707E-01 -0.1492277E+01 -0.7762020E-02  0.9865218E-01
  0.1414170E+02  0.5857700E+01  0.0000000E+00  0.1015977E+00 -0.1500049E+01 -0.7181815E-02  0.1013435E+00
  0.1349950E+02  0.7215620E+01  0.0000000E+00  0.1044653E+00 -0.1510421E+01 -0.6303292E-02  0.1042750E+00
  0.1272720E+02  0.8504060E+01  0.0000000E+00  0.1074097E+00 -0.1524051E+01 -0.5019032E-02  0.1072924E+00
  0.1183240E+02  0.9710600E+01  0.0000000E+00  0.1104275E+00 -0.1541517E+01 -0.3232772E-02  0.1103802E+00
  0.1082360E+02  0.1082360E+02  0.0000000E+00  0.1138536E+00 -0.1561372E+01 -0.1073011E-02  0.1138486E+00
  0.9710590E+01  0.1183240E+02  0.0000000E+00  0.1174731E+00 -0.1582716E+01  0.1400223E-02  0.1174647E+00
  0.8504060E+01  0.1272720E+02  0.0000000E+00  0.1213593E+00 -0.1608556E+01  0.4581433E-02  0.1212728E+00
  0.7215620E+01  0.1349950E+02  0.0000000E+00  0.1261350E+00 -0.1638201E+01  0.8495674E-02  0.1258485E+00
  0.5857700E+01  0.1414170E+02  0.0000000E+00  0.1324287E+00 -0.1674114E+01  0.1365794E-01  0.1317225E+00
  0.4443360E+01  0.1464780E+02  0.0000000E+00  0.1402601E+00 -0.1716327E+01  0.2034021E-01  0.1387774E+00
  0.2986230E+01  0.1501280E+02  0.0000000E+00  0.1552664E+00 -0.1777866E+01  0.3192175E-01  0.1519496E+00
  0.1500340E+01  0.1523320E+02  0.0000000E+00  0.1848919E+00 -0.1875986E+01  0.5555522E-01  0.1763480E+00
 -0.6690860E-06  0.1530690E+02  0.0000000E+00  0.1833204E+00 -0.1906588E+01  0.6040711E-01  0.1730819E+00
 -0.1500340E+01  0.1523320E+02  0.0000000E+00  0.1599433E+00 -0.1918324E+01  0.5447258E-01  0.1503816E+00
 -0.2986230E+01  0.1501280E+02  0.0000000E+00  0.9123363E-01 -0.1892739E+01  0.2886725E-01  0.8654628E-01
 -0.4443360E+01  0.1464780E+02  0.0000000E+00  0.6604915E-01 -0.1885215E+01  0.2042662E-01  0.6281117E-01
 -0.5857700E+01  0.1414170E+02  0.0000000E+00  0.5287958E-01 -0.1898842E+01  0.1703745E-01  0.5005971E-01
 -0.7215620E+01  0.1349950E+02  0.0000000E+00  0.4352152E-01 -0.1925058E+01  0.1509752E-01  0.4081896E-01
 -0.8504060E+01  0.1272720E+02  0.0000000E+00  0.3682849E-01 -0.1969207E+01  0.1428777E-01  0.3394403E-01
 -0.9710590E+01  0.1183240E+02  0.0000000E+00  0.3096750E-01 -0.2035209E+01  0.1387028E-01  0.2768757E-01
 -0.1082360E+02  0.1082360E+02  0.0000000E+00  0.2696717E-01 -0.2120542E+01  0.1408955E-01  0.2299376E-01
 -0.1183240E+02  0.9710590E+01  0.0000000E+00  0.2327537E-01 -0.2236986E+01  0.1438406E-01  0.1829867E-01
 -0.1272720E+02  0.8504060E+01  0.0000000E+00  0.2043276E-01 -0.2385323E+01  0.1486280E-01  0.1402123E-01
 -0.1349950E+02  0.7215620E+01  0.0000000E+00  0.1922213E-01 -0.2533042E+01  0.1577133E-01  0.1098888E-01
 -0.1414170E+02  0.5857690E+01  0.0000000E+00  0.1889102E-01 -0.2675295E+01  0.1687419E-01  0.8493071E-02
 -0.1464780E+02  0.4443360E+01  0.0000000E+00  0.1889541E-01 -0.2832744E+01  0.1800136E-01  0.5743485E-02
 -0.1501280E+02  0.2986230E+01  0.0000000E+00  0.1925289E-01 -0.3006984E+01  0.1907873E-01  0.2583782E-02
 -0.1523320E+02  0.1500340E+01  0.0000000E+00  0.2031178E-01  0.3119433E+01  0.2030679E-01 -0.4500565E-03
 -0.1530690E+02 -0.1338170E-05  0.0000000E+00  0.2195714E-01  0.2990295E+01  0.2170631E-01 -0.3309411E-02
 -0.1523320E+02 -0.1500340E+01  0.0000000E+00  0.2403135E-01  0.2887095E+01  0.2325730E-01 -0.6050123E-02
 -0.1501280E+02 -0.2986230E+01  0.0000000E+00  0.2645076E-01  0.2804332E+01  0.2496065E-01 -0.8752644E-02
 -0.1464780E+02 -0.4443360E+01  0.0000000E+00  0.2915344E-01  0.2737551E+01  0.2680600E-01 -0.1146132E-01
 -0.1414170E+02 -0.5857700E+01  0.0000000E+00  0.3198525E-01  0.2682959E+01  0.2867984E-01 -0.1416062E-01
 -0.1349950E+02 -0.7215620E+01  0.0000000E+00  0.3511744E-01  0.2632882E+01  0.3067062E-01 -0.1710401E-01
 -0.1272720E+02 -0.8504060E+01  0.0000000E+00  0.3846892E-01  0.2590525E+01  0.3277420E-01 -0.2014223E-01
 -0.1183240E+02 -0.9710600E+01  0.0000000E+00  0.4202986E-01  0.2554983E+01  0.3500341E-01 -0.2326523E-01
 -0.1082360E+02 -0.1082360E+02  0.0000000E+00  0.4594574E-01  0.2519494E+01  0.3733813E-01 -0.2677451E-01
 -0.9710600E+01 -0.1183240E+02  0.0000000E+00  0.5006997E-01  0.2487951E+01  0.3974926E-01 -0.3044664E-01
 -0.8504050E+01 -0.1272720E+02  0.0000000E+00  0.5463982E-01  0.2461838E+01  0.4249487E-01 -0.3434670E-01
 -0.7215620E+01 -0.1349950E+02  0.0000000E+00  0.6016478E-01  0.2435264E+01  0.4577035E-01 -0.3904965E-01
 -0.5857690E+01 -0.1414170E+02  0.0000000E+00  0.6733672E-01  0.2407467E+01  0.4999190E-01 -0.4511147E-01
 -0.4443360E+01 -0.1464780E+02  0.0000000E+00  0.7622055E-01  0.2383031E+01  0.5532285E-01 -0.5243048E-01
 -0.2986230E+01 -0.1501280E+02  0.0000000E+00  0.9275669E-01  0.2348756E+01  0.6509918E-01 -0.6607496E-01
 -0.1500340E+01 -0.1523320E+02  0.0000000E+00  0.1243945E+00  0.2315608E+01  0.8431874E-01 -0.9145673E-01
  0.1825330E-06 -0.1530690E+02  0.0000000E+00  0.1224824E+00  0.2335041E+01  0.8475683E-01 -0.8842064E-01
  0.1500340E+01 -0.1523320E+02  0.0000000E+00  0.9845726E-01  0.2413268E+01  0.7347774E-01 -0.6553514E-01
  0.2986230E+01 -0.1501280E+02  0.0000000E+00  0.3953015E-01  0.3122171E+01  0.3952269E-01 -0.7676739E-03
  0.4443360E+01 -0.1464780E+02  0.0000000E+00  0.3570244E-01 -0.2426272E+01  0.2695117E-01  0.2341577E-01
  0.5857700E+01 -0.1414170E+02  0.0000000E+00  0.4163150E-01 -0.2076866E+01  0.2018061E-01  0.3641326E-01
  0.7215620E+01 -0.1349950E+02  0.0000000E+00  0.4825386E-01 -0.1889202E+01  0.1510598E-01  0.4582842E-01
  0.8504060E+01 -0.1272720E+02  0.0000000E+00  0.5401104E-01 -0.1781068E+01  0.1127347E-01  0.5282141E-01
  0.9710600E+01 -0.1183240E+02  0.0000000E+00  0.5967763E-01 -0.1701629E+01  0.7785522E-02  0.5916760E-01
  0.1082360E+02 -0.1082360E+02  0.0000000E+00  0.6412347E-01 -0.1650350E+01  0.5095857E-02  0.6392066E-01
  0.1183240E+02 -0.9710590E+01  0.0000000E+00  0.6870766E-01 -0.1606684E+01  0.2465250E-02  0.6866342E-01
  0.1272720E+02 -0.8504060E+01  0.0000000E+00  0.7298489E-01 -0.1571356E+01  0.4081739E-04  0.7298487E-01
  0.1349950E+02 -0.7215620E+01  0.0000000E+00  0.7606884E-01 -0.1547574E+01 -0.1766308E-02  0.7604833E-01
  0.1414170E+02 -0.5857700E+01  0.0000000E+00  0.7863895E-01 -0.1529470E+01 -0.3248963E-02  0.7857180E-01
  0.1464780E+02 -0.4443350E+01  0.0000000E+00  0.8148605E-01 -0.1513682E+01 -0.4651513E-02  0.8135317E-01
  0.1501280E+02 -0.2986230E+01  0.0000000E+00  0.8476588E-01 -0.1499717E+01 -0.6020028E-02  0.8455184E-01
  0.1523320E+02 -0.1500330E+01  0.0000000E+00  0.8790248E-01 -0.1490143E+01 -0.7081918E-02  0.8761673E-01
  0.1530690E+02  0.0000000E+00 -0.2568960E-01  0.9075239E-01 -0.1484952E+01 -0.7781022E-02  0.9041820E-01
  0.1523320E+02  0.1500340E+01 -0.2568960E-01  0.9352195E-01 -0.1483691E+01 -0.8135990E-02  0.9316738E-01
  0.1501280E+02  0.2986230E+01 -0.2568960E-01  0.9621138E-01 -0.1486250E+01 -0.8124650E-02  0.9586772E-01
  0.1464780E+02  0.4443360E+01 -0.2568960E-01  0.9886899E-01 -0.1492294E+01 -0.7753429E-02  0.9856451E-01
  0.1414170E+02  0.5857700E+01 -0.2568960E-01  0.1015069E+00 -0.1500067E+01 -0.7173552E-02  0.1012531E+00
  0.1349950E+02  0.7215620E+01 -0.2568960E-01  0.1043706E+00 -0.1510445E+01 -0.6295082E-02  0.1041805E+00
  0.1272720E+02  0.8504060E+01 -0.2568960E-01  0.1073119E+00 -0.1524077E+01 -0.5011701E-02  0.1071948E+00
  0.1183240E+02  0.9710600E+01 -0.2568960E-01  0.1103279E+00 -0.1541535E+01 -0.3227835E-02  0.1102807E+00
  0.1082360E+02  0.1082360E+02 -0.2568960E-01  0.1137504E+00 -0.1561383E+01 -0.1070760E-02  0.1137454E+00
  0.9710590E+01  0.1183240E+02 -0.2568960E-01  0.1173671E+00 -0.1582743E+01  0.1402100E-02  0.1173587E+00
  0.8504060E+01  0.1272720E+02 -0.2568960E-01  0.1212516E+00 -0.1608580E+01  0.4580257E-02  0.1211651E+00
  0.7215620E+01  0.1349950E+02 -0.2568960E-01  0.1260244E+00 -0.1638234E+01  0.8492379E-02  0.1257380E+00
  0.5857700E+01  0.1414170E+02 -0.2568960E-01  0.1323095E+00 -0.1674140E+01  0.1364909E-01  0.1316036E+00
  0.4443360E+01  0.1464780E+02 -0.2568960E-01  0.1401423E+00 -0.1716370E+01  0.2032900E-01  0.1386600E+00
  0.2986230E+01  0.1501280E+02 -0.2568960E-01  0.1551429E+00 -0.1777921E+01  0.3190463E-01  0.1518269E+00
  0.1500340E+01  0.1523320E+02 -0.2568960E-01  0.1847776E+00 -0.1876071E+01  0.5553581E-01  0.1762344E+00
 -0.6690860E-06  0.1530690E+02 -0.2568960E-01  0.1831770E+00 -0.1906635E+01  0.6036806E-01  0.1729436E+00
 -0.1500340E+01  0.1523320E+02 -0.2568960E-01  0.1598488E+00 -0.1918404E+01  0.5445245E-01  0.1502883E+00
 -0.2986230E+01  0.1501280E+02 -0.2568960E-01  0.9115952E-01 -0.1892818E+01  0.2885060E-01  0.8647370E-01
 -0.4443360E+01  0.1464780E+02 -0.2568960E-01  0.6598911E-01 -0.1885301E+01  0.2041346E-01  0.6275231E-01
 -0.5857700E+01  0.1414170E+02 -0.2568960E-01  0.5282923E-01 -0.1898912E+01  0.1702473E-01  0.5001086E-01
 -0.7215620E+01  0.1349950E+02 -0.2568960E-01  0.4348015E-01 -0.1925152E+01  0.1508701E-01  0.4077874E-01
 -0.8504060E+01  0.1272720E+02 -0.2568960E-01  0.3679064E-01 -0.1969306E+01  0.1427645E-01  0.3390773E-01
 -0.9710590E+01  0.1183240E+02 -0.2568960E-01  0.3094114E-01 -0.2035289E+01  0.1386067E-01  0.2766290E-01
 -0.1082360E+02  0.1082360E+02 -0.2568960E-01  0.2694000E-01 -0.2120644E+01  0.1407768E-01  0.2296916E-01
 -0.1183240E+02  0.9710590E+01 -0.2568960E-01  0.2325423E-01 -0.2237075E+01  0.1437263E-01  0.1828078E-01
 -0.1272720E+02  0.8504060E+01 -0.2568960E-01  0.2041839E-01 -0.2385295E+01  0.1485196E-01  0.1401177E-01
 -0.1349950E+02  0.7215620E+01 -0.2568960E-01  0.1920691E-01 -0.2533068E+01  0.1575912E-01  0.1097977E-01
 -0.1414170E+02  0.5857690E+01 -0.2568960E-01  0.1887291E-01 -0.2675506E+01  0.1685981E-01  0.8481365E-02
 -0.1464780E+02  0.4443360E+01 -0.2568960E-01  0.1887755E-01 -0.2833078E+01  0.1798626E-01  0.5732051E-02
 -0.1501280E+02  0.2986230E+01 -0.2568960E-01  0.1923633E-01 -0.3007258E+01  0.1906302E-01  0.2576345E-02
 -0.1523320E+02  0.1500340E+01 -0.2568960E-01  0.2029573E-01  0.3119243E+01  0.2029066E-01 -0.4535676E-03
 -0.1530690E+02 -0.1338170E-05 -0.2568960E-01  0.2194036E-01  0.2990164E+01  0.2168928E-01 -0.3309724E-02
 -0.1523320E+02 -0.1500340E+01 -0.2568960E-01  0.2401292E-01  0.2887012E+01  0.2323896E-01 -0.6047410E-02
 -0.1501280E+02 -0.2986230E+01 -0.2568960E-01  0.2643000E-01  0.2804280E+01  0.2494060E-01 -0.8747079E-02
 -0.1464780E+02 -0.4443360E+01 -0.2568960E-01  0.2912983E-01  0.2737523E+01  0.2678396E-01 -0.1145279E-01
 -0.1414170E+02 -0.5857700E+01 -0.2568960E-01  0.3195903E-01  0.2682950E+01  0.2865621E-01 -0.1414926E-01
 -0.1349950E+02 -0.7215620E+01 -0.2568960E-01  0.3508735E-01  0.2632904E+01  0.3064473E-01 -0.1708866E-01
 -0.1272720E+02 -0.8504060E+01 -0.2568960E-01  0.3843531E-01  0.2590551E+01  0.3274610E-01 -0.2012375E-01
 -0.1183240E+02 -0.9710600E+01 -0.2568960E-01  0.4199332E-01  0.2554988E+01  0.3497310E-01 -0.2324482E-01
 -0.1082360E+02 -0.1082360E+02 -0.2568960E-01  0.4590563E-01  0.2519509E+01  0.3730594E-01 -0.2675058E-01
 -0.9710600E+01 -0.1183240E+02 -0.2568960E-01  0.5002743E-01  0.2487975E+01  0.3971623E-01 -0.3041981E-01
 -0.8504050E+01 -0.1272720E+02 -0.2568960E-01  0.5459470E-01  0.2461843E+01  0.4245992E-01 -0.3431816E-01
 -0.7215620E+01 -0.1349950E+02 -0.2568960E-01  0.6011642E-01  0.2435267E+01  0.4573368E-01 -0.3901813E-01
 -0.5857690E+01 -0.1414170E+02 -0.2568960E-01  0.6727886E-01  0.2407493E+01  0.4995013E-01 -0.4507139E-01
 -0.4443360E+01 -0.1464780E+02 -0.2568960E-01  0.7616348E-01  0.2383018E+01  0.5528077E-01 -0.5239190E-01
 -0.2986230E+01 -0.1501280E+02 -0.2568960E-01  0.9269264E-01  0.2348737E+01  0.6505300E-01 -0.6603055E-01
 -0.1500340E+01 -0.1523320E+02 -0.2568960E-01  0.1243388E+00  0.2315541E+01  0.8427485E-01 -0.9142149E-01
  0.1825330E-06 -0.1530690E+02 -0.2568960E-01  0.1223964E+00  0.2335027E+01  0.8469611E-01 -0.8835979E-01
  0.1500340E+01 -0.1523320E+02 -0.2568960E-01  0.9841996E-01  0.2413137E+01  0.7344133E-01 -0.6551991E-01
  0.2986230E+01 -0.1501280E+02 -0.2568960E-01  0.3950289E-01  0.3122022E+01  0.3949532E-01 -0.7730457E-03
  0.4443360E+01 -0.1464780E+02 -0.2568960E-01  0.3567443E-01 -0.2426310E+01  0.2693091E-01  0.2339640E-01
  0.5857700E+01 -0.1414170E+02 -0.2568960E-01  0.4159753E-01 -0.2076867E+01  0.2016416E-01  0.3638353E-01
  0.7215620E+01 -0.1349950E+02 -0.2568960E-01  0.4821357E-01 -0.1889232E+01  0.1509477E-01  0.4578970E-01
  0.8504060E+01 -0.1272720E+02 -0.2568960E-01  0.5396745E-01 -0.1781062E+01  0.1126407E-01  0.5277884E-01
  0.9710600E+01 -0.1183240E+02 -0.2568960E-01  0.5962333E-01 -0.1701679E+01  0.7781423E-02  0.5911338E-01
  0.1082360E+02 -0.1082360E+02 -0.2568960E-01  0.6406890E-01 -0.1650352E+01  0.5091663E-02  0.6386626E-01
  0.1183240E+02 -0.9710590E+01 -0.2568960E-01  0.6864662E-01 -0.1606695E+01  0.2463805E-02  0.6860240E-01
  0.1272720E+02 -0.8504060E+01 -0.2568960E-01  0.7291541E-01 -0.1571397E+01  0.4376744E-04  0.7291540E-01
  0.1349950E+02 -0.7215620E+01 -0.2568960E-01  0.7599884E-01 -0.1547600E+01 -0.1762725E-02  0.7597839E-01
  0.1414170E+02 -0.5857700E+01 -0.2568960E-01  0.7857170E-01 -0.1529483E+01 -0.3245113E-02  0.7850466E-01
  0.1464780E+02 -0.4443350E+01 -0.2568960E-01  0.8141834E-01 -0.1513686E+01 -0.4647330E-02  0.8128560E-01
  0.1501280E+02 -0.2986230E+01 -0.2568960E-01  0.8469392E-01 -0.1499737E+01 -0.6013267E-02  0.8448018E-01
  0.1523320E+02 -0.1500330E+01 -0.2568960E-01  0.8782648E-01 -0.1490168E+01 -0.7073587E-02  0.8754116E-01
  0.1530690E+02  0.0000000E+00 -0.1027320E+00  0.9051862E-01 -0.1485018E+01 -0.7755003E-02  0.9018581E-01
  0.1523320E+02  0.1500340E+01 -0.1027320E+00  0.9327953E-01 -0.1483756E+01 -0.8108833E-02  0.9292641E-01
  0.1501280E+02  0.2986230E+01 -0.1027320E+00  0.9596094E-01 -0.1486302E+01 -0.8098465E-02  0.9561860E-01
  0.1464780E+02  0.4443360E+01 -0.1027320E+00  0.9861006E-01 -0.1492332E+01 -0.7729457E-02  0.9830666E-01
  0.1414170E+02  0.5857700E+01 -0.1027320E+00  0.1012399E+00 -0.1500110E+01 -0.7150366E-02  0.1009870E+00
  0.1349950E+02  0.7215620E+01 -0.1027320E+00  0.1040915E+00 -0.1510495E+01 -0.6273082E-02  0.1039023E+00
  0.1272720E+02  0.8504060E+01 -0.1027320E+00  0.1070237E+00 -0.1524130E+01 -0.4992549E-02  0.1069072E+00
  0.1183240E+02  0.9710600E+01 -0.1027320E+00  0.1100340E+00 -0.1541569E+01 -0.3215573E-02  0.1099870E+00
  0.1082360E+02  0.1082360E+02 -0.1027320E+00  0.1134459E+00 -0.1561411E+01 -0.1064740E-02  0.1134409E+00
  0.9710590E+01  0.1183240E+02 -0.1027320E+00  0.1170536E+00 -0.1582812E+01  0.1406408E-02  0.1170451E+00
  0.8504060E+01  0.1272720E+02 -0.1027320E+00  0.1209332E+00 -0.1608643E+01  0.4575870E-02  0.1208466E+00
  0.7215620E+01  0.1349950E+02 -0.1027320E+00  0.1256956E+00 -0.1638327E+01  0.8481910E-02  0.1254091E+00
  0.5857700E+01  0.1414170E+02 -0.1027320E+00  0.1319566E+00 -0.1674215E+01  0.1362253E-01  0.1312516E+00
  0.4443360E+01  0.1464780E+02 -0.1027320E+00  0.1397900E+00 -0.1716481E+01  0.2029325E-01  0.1383092E+00
  0.2986230E+01  0.1501280E+02 -0.1027320E+00  0.1547657E+00 -0.1778065E+01  0.3184892E-01  0.1514532E+00
  0.1500340E+01  0.1523320E+02 -0.1027320E+00  0.1843408E+00 -0.1876168E+01  0.5542162E-01  0.1758123E+00
 -0.6690860E-06  0.1530690E+02 -0.1027320E+00  0.1827380E+00 -0.1906757E+01  0.6024440E-01  0.1725219E+00
 -0.1500340E+01  0.1523320E+02 -0.1027320E+00  0.1594367E+00 -0.1918547E+01  0.5433355E-01  0.1498931E+00
 -0.2986230E+01  0.1501280E+02 -0.1027320E+00  0.9093855E-01 -0.1893034E+01  0.2879931E-01  0.8625786E-01
 -0.4443360E+01  0.1464780E+02 -0.1027320E+00  0.6580667E-01 -0.1885537E+01  0.2037177E-01  0.6257403E-01
 -0.5857700E+01  0.1414170E+02 -0.1027320E+00  0.5268045E-01 -0.1899122E+01  0.1698724E-01  0.4986646E-01
 -0.7215620E+01  0.1349950E+02 -0.1027320E+00  0.4336544E-01 -0.1925418E+01  0.1505804E-01  0.4066715E-01
 -0.8504060E+01  0.1272720E+02 -0.1027320E+00  0.3667832E-01 -0.1969588E+01  0.1424239E-01  0.3380020E-01
 -0.9710590E+01  0.1183240E+02 -0.1027320E+00  0.3086200E-01 -0.2035504E+01  0.1383117E-01  0.2758916E-01
 -0.1082360E+02  0.1082360E+02 -0.1027320E+00  0.2685792E-01 -0.2120928E+01  0.1404130E-01  0.2289519E-01
 -0.1183240E+02  0.9710590E+01 -0.1027320E+00  0.2318929E-01 -0.2237307E+01  0.1433671E-01  0.1822641E-01
 -0.1272720E+02  0.8504060E+01 -0.1027320E+00  0.2037355E-01 -0.2385218E+01  0.1481827E-01  0.1398214E-01
 -0.1349950E+02  0.7215620E+01 -0.1027320E+00  0.1915905E-01 -0.2533194E+01  0.1572123E-01  0.1095044E-01
 -0.1414170E+02  0.5857690E+01 -0.1027320E+00  0.1881701E-01 -0.2676254E+01  0.1681619E-01  0.8443681E-02
 -0.1464780E+02  0.4443360E+01 -0.1027320E+00  0.1882111E-01 -0.2834191E+01  0.1793883E-01  0.5694954E-02
 -0.1501280E+02  0.2986230E+01 -0.1027320E+00  0.1918564E-01 -0.3008238E+01  0.1901530E-01  0.2550910E-02
 -0.1523320E+02  0.1500340E+01 -0.1027320E+00  0.2024680E-01  0.3118495E+01  0.2024140E-01 -0.4676112E-03
 -0.1530690E+02 -0.1338170E-05 -0.1027320E+00  0.2188979E-01  0.2989609E+01  0.2163746E-01 -0.3314102E-02
 -0.1523320E+02 -0.1500340E+01 -0.1027320E+00  0.2395799E-01  0.2886587E+01  0.2318324E-01 -0.6043413E-02
 -0.1501280E+02 -0.2986230E+01 -0.1027320E+00  0.2636848E-01  0.2803962E+01  0.2487977E-01 -0.8734628E-02
 -0.1464780E+02 -0.4443360E+01 -0.1027320E+00  0.2905962E-01  0.2737283E+01  0.2671667E-01 -0.1143159E-01
 -0.1414170E+02 -0.5857700E+01 -0.1027320E+00  0.3188091E-01  0.2682769E+01  0.2858360E-01 -0.1411986E-01
 -0.1349950E+02 -0.7215620E+01 -0.1027320E+00  0.3499854E-01  0.2632843E+01  0.3056611E-01 -0.1704730E-01
 -0.1272720E+02 -0.8504060E+01 -0.1027320E+00  0.3833653E-01  0.2590524E+01  0.3266141E-01 -0.2007291E-01
 -0.1183240E+02 -0.9710600E+01 -0.1027320E+00  0.4188585E-01  0.2554915E+01  0.3488187E-01 -0.2318790E-01
 -0.1082360E+02 -0.1082360E+02 -0.1027320E+00  0.4578656E-01  0.2519470E+01  0.3720815E-01 -0.2668263E-01
 -0.9710600E+01 -0.1183240E+02 -0.1027320E+00  0.4990098E-01  0.2487976E+01  0.3961587E-01 -0.3034289E-01
 -0.8504050E+01 -0.1272720E+02 -0.1027320E+00  0.5446108E-01  0.2461800E+01  0.4235455E-01 -0.3423597E-01
 -0.7215620E+01 -0.1349950E+02 -0.1027320E+00  0.5997193E-01  0.2435242E+01  0.4562277E-01 -0.3892551E-01
 -0.5857690E+01 -0.1414170E+02 -0.1027320E+00  0.6710839E-01  0.2407535E+01  0.4982544E-01 -0.4495510E-01
 -0.4443360E+01 -0.1464780E+02 -0.1027320E+00  0.7599155E-01  0.2382967E+01  0.5515328E-01 -0.5227649E-01
 -0.2986230E+01 -0.1501280E+02 -0.1027320E+00  0.9249344E-01  0.2348687E+01  0.6490991E-01 -0.6589188E-01
 -0.1500340E+01 -0.1523320E+02 -0.1027320E+00  0.1240730E+00  0.2315475E+01  0.8408875E-01 -0.9123155E-01
  0.1825330E-06 -0.1530690E+02 -0.1027320E+00  0.1221289E+00  0.2334992E+01  0.8450793E-01 -0.8816962E-01
  0.1500340E+01 -0.1523320E+02 -0.1027320E+00  0.9818125E-01  0.2413193E+01  0.7326682E-01 -0.6535695E-01
  0.2986230E+01 -0.1501280E+02 -0.1027320E+00  0.3942145E-01  0.3121497E+01  0.3941349E-01 -0.7921275E-03
  0.4443360E+01 -0.1464780E+02 -0.1027320E+00  0.3558918E-01 -0.2426358E+01  0.2686766E-01  0.2333921E-01
  0.5857700E+01 -0.1414170E+02 -0.1027320E+00  0.4149466E-01 -0.2076914E+01  0.2011600E-01  0.3629261E-01
  0.7215620E+01 -0.1349950E+02 -0.1027320E+00  0.4808601E-01 -0.1889433E+01  0.1506401E-01  0.4566552E-01
  0.8504060E+01 -0.1272720E+02 -0.1027320E+00  0.5383575E-01 -0.1781031E+01  0.1123494E-01  0.5265039E-01
  0.9710600E+01 -0.1183240E+02 -0.1027320E+00  0.5946063E-01 -0.1701808E+01  0.7767789E-02  0.5895106E-01
  0.1082360E+02 -0.1082360E+02 -0.1027320E+00  0.6390617E-01 -0.1650337E+01  0.5077775E-02  0.6370412E-01
  0.1183240E+02 -0.9710590E+01 -0.1027320E+00  0.6846474E-01 -0.1606725E+01  0.2459291E-02  0.6842056E-01
  0.1272720E+02 -0.8504060E+01 -0.1027320E+00  0.7270873E-01 -0.1571504E+01  0.5144534E-04  0.7270871E-01
