 VARIABLES="X" "Y" "Z" "abs(eta) (m)" "angle(phi) (rad)" "PRE1" "PRE2"
ZONE N=   3200 ,E =    3136 ,F=FEPOINT,ET=QUADRILATERAL
  0.1530690E+02  0.0000000E+00  0.0000000E+00  0.3597625E+00  0.2152662E+01  0.1977194E+00 -0.3005597E+00
  0.1523320E+02  0.1500340E+01  0.0000000E+00  0.3619538E+00  0.2157548E+01  0.2003988E+00 -0.3014148E+00
  0.1501280E+02  0.2986230E+01  0.0000000E+00  0.3628171E+00  0.2160791E+01  0.2018558E+00 -0.3014805E+00
  0.1464780E+02  0.4443360E+01  0.0000000E+00  0.3625023E+00  0.2161974E+01  0.2020367E+00 -0.3009802E+00
  0.1414170E+02  0.5857700E+01  0.0000000E+00  0.3607685E+00  0.2161897E+01  0.2010474E+00 -0.2995561E+00
  0.1349950E+02  0.7215620E+01  0.0000000E+00  0.3582046E+00  0.2160127E+01  0.1990918E+00 -0.2977801E+00
  0.1272720E+02  0.8504060E+01  0.0000000E+00  0.3562193E+00  0.2155934E+01  0.1967450E+00 -0.2969573E+00
  0.1183240E+02  0.9710600E+01  0.0000000E+00  0.3538550E+00  0.2150333E+01  0.1937837E+00 -0.2960763E+00
  0.1082360E+02  0.1082360E+02  0.0000000E+00  0.3509481E+00  0.2142825E+01  0.1899820E+00 -0.2950787E+00
  0.9710590E+01  0.1183240E+02  0.0000000E+00  0.3458960E+00  0.2134721E+01  0.1848839E+00 -0.2923388E+00
  0.8504060E+01  0.1272720E+02  0.0000000E+00  0.3411748E+00  0.2125495E+01  0.1796923E+00 -0.2900188E+00
  0.7215620E+01  0.1349950E+02  0.0000000E+00  0.3306372E+00  0.2118915E+01  0.1722892E+00 -0.2822010E+00
  0.5857700E+01  0.1414170E+02  0.0000000E+00  0.3183846E+00  0.2113033E+01  0.1643034E+00 -0.2727143E+00
  0.4443360E+01  0.1464780E+02  0.0000000E+00  0.3019571E+00  0.2108795E+01  0.1547283E+00 -0.2593014E+00
  0.2986230E+01  0.1501280E+02  0.0000000E+00  0.2682844E+00  0.2116123E+01  0.1391584E+00 -0.2293719E+00
  0.1500340E+01  0.1523320E+02  0.0000000E+00  0.1404525E+00  0.2227674E+01  0.8576693E-01 -0.1112247E+00
 -0.6690860E-06  0.1530690E+02  0.0000000E+00  0.4702717E-01  0.2756844E+01  0.4358914E-01 -0.1765052E-01
 -0.1500340E+01  0.1523320E+02  0.0000000E+00  0.8858557E-01 -0.1571621E+01  0.7307978E-04  0.8858554E-01
 -0.2986230E+01  0.1501280E+02  0.0000000E+00  0.2727104E+00 -0.1350708E+01 -0.5953689E-01  0.2661322E+00
 -0.4443360E+01  0.1464780E+02  0.0000000E+00  0.3291684E+00 -0.1319199E+01 -0.8194679E-01  0.3188049E+00
 -0.5857700E+01  0.1414170E+02  0.0000000E+00  0.3584989E+00 -0.1296180E+01 -0.9721677E-01  0.3450657E+00
 -0.7215620E+01  0.1349950E+02  0.0000000E+00  0.3795427E+00 -0.1275805E+01 -0.1103449E+00  0.3631483E+00
 -0.8504060E+01  0.1272720E+02  0.0000000E+00  0.3973792E+00 -0.1257477E+01 -0.1224796E+00  0.3780331E+00
 -0.9710590E+01  0.1183240E+02  0.0000000E+00  0.4079199E+00 -0.1241093E+01 -0.1320691E+00  0.3859487E+00
 -0.1082360E+02  0.1082360E+02  0.0000000E+00  0.4186051E+00 -0.1226884E+01 -0.1411422E+00  0.3940928E+00
 -0.1183240E+02  0.9710590E+01  0.0000000E+00  0.4261117E+00 -0.1214260E+01 -0.1487259E+00  0.3993142E+00
 -0.1272720E+02  0.8504060E+01  0.0000000E+00  0.4326210E+00 -0.1203495E+01 -0.1553533E+00  0.4037651E+00
 -0.1349950E+02  0.7215620E+01  0.0000000E+00  0.4387625E+00 -0.1194928E+01 -0.1610610E+00  0.4081323E+00
 -0.1414170E+02  0.5857690E+01  0.0000000E+00  0.4457605E+00 -0.1189061E+01 -0.1660600E+00  0.4136744E+00
 -0.1464780E+02  0.4443360E+01  0.0000000E+00  0.4516391E+00 -0.1185427E+01 -0.1697718E+00  0.4185157E+00
 -0.1501280E+02  0.2986230E+01  0.0000000E+00  0.4558728E+00 -0.1183909E+01 -0.1720044E+00  0.4221783E+00
 -0.1523320E+02  0.1500340E+01  0.0000000E+00  0.4586208E+00 -0.1184755E+01 -0.1726819E+00  0.4248694E+00
 -0.1530690E+02 -0.1338170E-05  0.0000000E+00  0.4598163E+00 -0.1187760E+01 -0.1718509E+00  0.4264954E+00
 -0.1523320E+02 -0.1500340E+01  0.0000000E+00  0.4598806E+00 -0.1192993E+01 -0.1696407E+00  0.4274485E+00
 -0.1501280E+02 -0.2986230E+01  0.0000000E+00  0.4587352E+00 -0.1200276E+01 -0.1661082E+00  0.4276051E+00
 -0.1464780E+02 -0.4443360E+01  0.0000000E+00  0.4566461E+00 -0.1209662E+01 -0.1613491E+00  0.4271910E+00
 -0.1414170E+02 -0.5857700E+01  0.0000000E+00  0.4532584E+00 -0.1221062E+01 -0.1553082E+00  0.4258198E+00
 -0.1349950E+02 -0.7215620E+01  0.0000000E+00  0.4491439E+00 -0.1234952E+01 -0.1480227E+00  0.4240514E+00
 -0.1272720E+02 -0.8504060E+01  0.0000000E+00  0.4456076E+00 -0.1252323E+01 -0.1395274E+00  0.4232000E+00
 -0.1183240E+02 -0.9710600E+01  0.0000000E+00  0.4417271E+00 -0.1272666E+01 -0.1297502E+00  0.4222413E+00
 -0.1082360E+02 -0.1082360E+02  0.0000000E+00  0.4375220E+00 -0.1295923E+01 -0.1187545E+00  0.4210972E+00
 -0.9710600E+01 -0.1183240E+02  0.0000000E+00  0.4314613E+00 -0.1321498E+01 -0.1064521E+00  0.4181229E+00
 -0.8504050E+01 -0.1272720E+02  0.0000000E+00  0.4257603E+00 -0.1350882E+01 -0.9287788E-01  0.4155064E+00
 -0.7215620E+01 -0.1349950E+02  0.0000000E+00  0.4146456E+00 -0.1382164E+01 -0.7775266E-01  0.4072905E+00
 -0.5857690E+01 -0.1414170E+02  0.0000000E+00  0.4019709E+00 -0.1418184E+01 -0.6110803E-01  0.3972989E+00
 -0.4443360E+01 -0.1464780E+02  0.0000000E+00  0.3855566E+00 -0.1459761E+01 -0.4272247E-01  0.3831823E+00
 -0.2986230E+01 -0.1501280E+02  0.0000000E+00  0.3527750E+00 -0.1510454E+01 -0.2127427E-01  0.3521329E+00
 -0.1500340E+01 -0.1523320E+02  0.0000000E+00  0.2316498E+00 -0.1588300E+01  0.4054631E-02  0.2316144E+00
  0.1825330E-06 -0.1530690E+02  0.0000000E+00  0.1393236E+00 -0.1737672E+01  0.2314197E-01  0.1373882E+00
  0.1500340E+01 -0.1523320E+02  0.0000000E+00  0.5215241E-01 -0.2495375E+01  0.4163678E-01  0.3140465E-01
  0.2986230E+01 -0.1501280E+02  0.0000000E+00  0.1577819E+00  0.1988438E+01  0.6399734E-01 -0.1442203E+00
  0.4443360E+01 -0.1464780E+02  0.0000000E+00  0.2118639E+00  0.1960459E+01  0.8048215E-01 -0.1959819E+00
  0.5857700E+01 -0.1414170E+02  0.0000000E+00  0.2411593E+00  0.1975279E+01  0.9490652E-01 -0.2216993E+00
  0.7215620E+01 -0.1349950E+02  0.0000000E+00  0.2627360E+00  0.1995405E+01  0.1082378E+00 -0.2394050E+00
  0.8504060E+01 -0.1272720E+02  0.0000000E+00  0.2811946E+00  0.2014380E+01  0.1206830E+00 -0.2539804E+00
  0.9710600E+01 -0.1183240E+02  0.0000000E+00  0.2930994E+00  0.2038333E+01  0.1320966E+00 -0.2616443E+00
  0.1082360E+02 -0.1082360E+02  0.0000000E+00  0.3050937E+00  0.2058240E+01  0.1428965E+00 -0.2695603E+00
  0.1183240E+02 -0.9710590E+01  0.0000000E+00  0.3142115E+00  0.2078462E+01  0.1527503E+00 -0.2745837E+00
  0.1272720E+02 -0.8504060E+01  0.0000000E+00  0.3223144E+00  0.2096238E+01  0.1616713E+00 -0.2788351E+00
  0.1349950E+02 -0.7215620E+01  0.0000000E+00  0.3300119E+00  0.2111107E+01  0.1697588E+00 -0.2830014E+00
  0.1414170E+02 -0.5857700E+01  0.0000000E+00  0.3383743E+00  0.2121570E+01  0.1770870E+00 -0.2883355E+00
  0.1464780E+02 -0.4443350E+01  0.0000000E+00  0.3457586E+00  0.2130556E+01  0.1835918E+00 -0.2929898E+00
  0.1501280E+02 -0.2986230E+01  0.0000000E+00  0.3517118E+00  0.2138789E+01  0.1892001E+00 -0.2964870E+00
  0.1523320E+02 -0.1500330E+01  0.0000000E+00  0.3564347E+00  0.2146173E+01  0.1939543E+00 -0.2990442E+00
  0.1530690E+02  0.0000000E+00 -0.2568960E-01  0.3593529E+00  0.2152673E+01  0.1974979E+00 -0.3002151E+00
  0.1523320E+02  0.1500340E+01 -0.2568960E-01  0.3615447E+00  0.2157554E+01  0.2001743E+00 -0.3010727E+00
  0.1501280E+02  0.2986230E+01 -0.2568960E-01  0.3624129E+00  0.2160791E+01  0.2016309E+00 -0.3011447E+00
  0.1464780E+02  0.4443360E+01 -0.2568960E-01  0.3621077E+00  0.2161964E+01  0.2018137E+00 -0.3006546E+00
  0.1414170E+02  0.5857700E+01 -0.2568960E-01  0.3603875E+00  0.2161871E+01  0.2008272E+00 -0.2992451E+00
  0.1349950E+02  0.7215620E+01 -0.2568960E-01  0.3578380E+00  0.2160102E+01  0.1988805E+00 -0.2974804E+00
  0.1272720E+02  0.8504060E+01 -0.2568960E-01  0.3558551E+00  0.2155911E+01  0.1965369E+00 -0.2966582E+00
  0.1183240E+02  0.9710600E+01 -0.2568960E-01  0.3534849E+00  0.2150307E+01  0.1935735E+00 -0.2957717E+00
  0.1082360E+02  0.1082360E+02 -0.2568960E-01  0.3505799E+00  0.2142806E+01  0.1897768E+00 -0.2947728E+00
  0.9710590E+01  0.1183240E+02 -0.2568960E-01  0.3455444E+00  0.2134702E+01  0.1846905E+00 -0.2920451E+00
  0.8504060E+01  0.1272720E+02 -0.2568960E-01  0.3408059E+00  0.2125487E+01  0.1794958E+00 -0.2897066E+00
  0.7215620E+01  0.1349950E+02 -0.2568960E-01  0.3303212E+00  0.2118887E+01  0.1721166E+00 -0.2819361E+00
  0.5857700E+01  0.1414170E+02 -0.2568960E-01  0.3180651E+00  0.2113011E+01  0.1641326E+00 -0.2724443E+00
  0.4443360E+01  0.1464780E+02 -0.2568960E-01  0.3016619E+00  0.2108776E+01  0.1545723E+00 -0.2590508E+00
  0.2986230E+01  0.1501280E+02 -0.2568960E-01  0.2680136E+00  0.2116103E+01  0.1390135E+00 -0.2291431E+00
  0.1500340E+01  0.1523320E+02 -0.2568960E-01  0.1403894E+00  0.2227505E+01  0.8570961E-01 -0.1111892E+00
 -0.6690860E-06  0.1530690E+02 -0.2568960E-01  0.4698513E-01  0.2756591E+01  0.4354571E-01 -0.1764577E-01
 -0.1500340E+01  0.1523320E+02 -0.2568960E-01  0.8861801E-01 -0.1571249E+01  0.4007298E-04  0.8861800E-01
 -0.2986230E+01  0.1501280E+02 -0.2568960E-01  0.2724025E+00 -0.1350714E+01 -0.5946814E-01  0.2658320E+00
 -0.4443360E+01  0.1464780E+02 -0.2568960E-01  0.3288426E+00 -0.1319199E+01 -0.8186574E-01  0.3184893E+00
 -0.5857700E+01  0.1414170E+02 -0.2568960E-01  0.3581274E+00 -0.1296188E+01 -0.9711336E-01  0.3447089E+00
 -0.7215620E+01  0.1349950E+02 -0.2568960E-01  0.3791720E+00 -0.1275811E+01 -0.1102352E+00  0.3627942E+00
 -0.8504060E+01  0.1272720E+02 -0.2568960E-01  0.3969430E+00 -0.1257486E+01 -0.1223417E+00  0.3776191E+00
 -0.9710590E+01  0.1183240E+02 -0.2568960E-01  0.4074975E+00 -0.1241104E+01 -0.1319280E+00  0.3855505E+00
 -0.1082360E+02  0.1082360E+02 -0.2568960E-01  0.4181570E+00 -0.1226892E+01 -0.1409879E+00  0.3936721E+00
 -0.1183240E+02  0.9710590E+01 -0.2568960E-01  0.4256590E+00 -0.1214267E+01 -0.1485651E+00  0.3988909E+00
 -0.1272720E+02  0.8504060E+01 -0.2568960E-01  0.4321700E+00 -0.1203506E+01 -0.1551868E+00  0.4033459E+00
 -0.1349950E+02  0.7215620E+01 -0.2568960E-01  0.4383062E+00 -0.1194944E+01 -0.1608872E+00  0.4077103E+00
 -0.1414170E+02  0.5857690E+01 -0.2568960E-01  0.4452828E+00 -0.1189074E+01 -0.1658763E+00  0.4132334E+00
 -0.1464780E+02  0.4443360E+01 -0.2568960E-01  0.4511408E+00 -0.1185436E+01 -0.1695805E+00  0.4180555E+00
 -0.1501280E+02  0.2986230E+01 -0.2568960E-01  0.4553600E+00 -0.1183912E+01 -0.1718095E+00  0.4217040E+00
 -0.1523320E+02  0.1500340E+01 -0.2568960E-01  0.4580977E+00 -0.1184760E+01 -0.1724828E+00  0.4243857E+00
 -0.1530690E+02 -0.1338170E-05 -0.2568960E-01  0.4592913E+00 -0.1187765E+01 -0.1716529E+00  0.4260091E+00
 -0.1523320E+02 -0.1500340E+01 -0.2568960E-01  0.4593596E+00 -0.1192987E+01 -0.1694508E+00  0.4269633E+00
 -0.1501280E+02 -0.2986230E+01 -0.2568960E-01  0.4582212E+00 -0.1200278E+01 -0.1659211E+00  0.4271263E+00
 -0.1464780E+02 -0.4443360E+01 -0.2568960E-01  0.4561437E+00 -0.1209671E+01 -0.1611679E+00  0.4267224E+00
 -0.1414170E+02 -0.5857700E+01 -0.2568960E-01  0.4527730E+00 -0.1221074E+01 -0.1551368E+00  0.4253657E+00
 -0.1349950E+02 -0.7215620E+01 -0.2568960E-01  0.4486715E+00 -0.1234976E+01 -0.1478569E+00  0.4236089E+00
 -0.1272720E+02 -0.8504060E+01 -0.2568960E-01  0.4451398E+00 -0.1252338E+01 -0.1393744E+00  0.4227578E+00
 -0.1183240E+02 -0.9710600E+01 -0.2568960E-01  0.4412563E+00 -0.1272682E+01 -0.1296052E+00  0.4217933E+00
 -0.1082360E+02 -0.1082360E+02 -0.2568960E-01  0.4370548E+00 -0.1295930E+01 -0.1186247E+00  0.4206484E+00
 -0.9710600E+01 -0.1183240E+02 -0.2568960E-01  0.4310094E+00 -0.1321511E+01 -0.1063348E+00  0.4176865E+00
 -0.8504050E+01 -0.1272720E+02 -0.2568960E-01  0.4252939E+00 -0.1350891E+01 -0.9277241E-01  0.4150520E+00
 -0.7215620E+01 -0.1349950E+02 -0.2568960E-01  0.4142298E+00 -0.1382188E+01 -0.7766485E-01  0.4068839E+00
 -0.5857690E+01 -0.1414170E+02 -0.2568960E-01  0.4015539E+00 -0.1418198E+01 -0.6103874E-01  0.3968877E+00
 -0.4443360E+01 -0.1464780E+02 -0.2568960E-01  0.3851619E+00 -0.1459773E+01 -0.4267417E-01  0.3827905E+00
 -0.2986230E+01 -0.1501280E+02 -0.2568960E-01  0.3524044E+00 -0.1510467E+01 -0.2124740E-01  0.3517633E+00
 -0.1500340E+01 -0.1523320E+02 -0.2568960E-01  0.2314791E+00 -0.1588278E+01  0.4046466E-02  0.2314438E+00
  0.1825330E-06 -0.1530690E+02 -0.2568960E-01  0.1391800E+00 -0.1737688E+01  0.2312032E-01  0.1372462E+00
  0.1500340E+01 -0.1523320E+02 -0.2568960E-01  0.5202331E-01 -0.2497549E+01  0.4160170E-01  0.3123658E-01
  0.2986230E+01 -0.1501280E+02 -0.2568960E-01  0.1576076E+00  0.1988474E+01  0.6393179E-01 -0.1440586E+00
  0.4443360E+01 -0.1464780E+02 -0.2568960E-01  0.2116698E+00  0.1960413E+01  0.8039936E-01 -0.1958061E+00
  0.5857700E+01 -0.1414170E+02 -0.2568960E-01  0.2409211E+00  0.1975250E+01  0.9480646E-01 -0.2214830E+00
  0.7215620E+01 -0.1349950E+02 -0.2568960E-01  0.2624945E+00  0.1995348E+01  0.1081248E+00 -0.2391911E+00
  0.8504060E+01 -0.1272720E+02 -0.2568960E-01  0.2808914E+00  0.2014374E+01  0.1205513E+00 -0.2537072E+00
  0.9710600E+01 -0.1183240E+02 -0.2568960E-01  0.2928064E+00  0.2038300E+01  0.1319560E+00 -0.2613871E+00
  0.1082360E+02 -0.1082360E+02 -0.2568960E-01  0.3047744E+00  0.2058221E+01  0.1427417E+00 -0.2692810E+00
  0.1183240E+02 -0.9710590E+01 -0.2568960E-01  0.3138830E+00  0.2078431E+01  0.1525822E+00 -0.2743013E+00
  0.1272720E+02 -0.8504060E+01 -0.2568960E-01  0.3219853E+00  0.2096192E+01  0.1614935E+00 -0.2785576E+00
  0.1349950E+02 -0.7215620E+01 -0.2568960E-01  0.3296775E+00  0.2111065E+01  0.1695750E+00 -0.2827217E+00
  0.1414170E+02 -0.5857700E+01 -0.2568960E-01  0.3380168E+00  0.2121541E+01  0.1768915E+00 -0.2880360E+00
  0.1464780E+02 -0.4443350E+01 -0.2568960E-01  0.3453825E+00  0.2130558E+01  0.1833926E+00 -0.2926708E+00
  0.1501280E+02 -0.2986230E+01 -0.2568960E-01  0.3513188E+00  0.2138789E+01  0.1889888E+00 -0.2961556E+00
  0.1523320E+02 -0.1500330E+01 -0.2568960E-01  0.3560300E+00  0.2146180E+01  0.1937360E+00 -0.2987034E+00
  0.1530690E+02  0.0000000E+00 -0.1027320E+00  0.3581143E+00  0.2152723E+01  0.1968320E+00 -0.2991705E+00
  0.1523320E+02  0.1500340E+01 -0.1027320E+00  0.3603045E+00  0.2157592E+01  0.1994989E+00 -0.3000325E+00
  0.1501280E+02  0.2986230E+01 -0.1027320E+00  0.3611876E+00  0.2160804E+01  0.2009530E+00 -0.3001240E+00
  0.1464780E+02  0.4443360E+01 -0.1027320E+00  0.3609108E+00  0.2161953E+01  0.2011434E+00 -0.2996630E+00
  0.1414170E+02  0.5857700E+01 -0.1027320E+00  0.3592339E+00  0.2161831E+01  0.2001725E+00 -0.2982951E+00
  0.1349950E+02  0.7215620E+01 -0.1027320E+00  0.3567252E+00  0.2160041E+01  0.1982439E+00 -0.2965674E+00
  0.1272720E+02  0.8504060E+01 -0.1027320E+00  0.3547450E+00  0.2155849E+01  0.1959054E+00 -0.2957449E+00
  0.1183240E+02  0.9710600E+01 -0.1027320E+00  0.3523642E+00  0.2150265E+01  0.1929473E+00 -0.2948422E+00
  0.1082360E+02  0.1082360E+02 -0.1027320E+00  0.3494624E+00  0.2142767E+01  0.1891604E+00 -0.2938406E+00
  0.9710590E+01  0.1183240E+02 -0.1027320E+00  0.3444767E+00  0.2134649E+01  0.1841042E+00 -0.2911526E+00
  0.8504060E+01  0.1272720E+02 -0.1027320E+00  0.3396914E+00  0.2125479E+01  0.1789065E+00 -0.2887607E+00
  0.7215620E+01  0.1349950E+02 -0.1027320E+00  0.3293368E+00  0.2118822E+01  0.1715854E+00 -0.2811071E+00
  0.5857700E+01  0.1414170E+02 -0.1027320E+00  0.3171091E+00  0.2112953E+01  0.1636234E+00 -0.2716350E+00
  0.4443360E+01  0.1464780E+02 -0.1027320E+00  0.3007605E+00  0.2108730E+01  0.1540984E+00 -0.2582838E+00
  0.2986230E+01  0.1501280E+02 -0.1027320E+00  0.2672734E+00  0.2115986E+01  0.1386028E+00 -0.2285264E+00
  0.1500340E+01  0.1523320E+02 -0.1027320E+00  0.1400752E+00  0.2227247E+01  0.8548912E-01 -0.1109625E+00
 -0.6690860E-06  0.1530690E+02 -0.1027320E+00  0.4685323E-01  0.2755995E+01  0.4341298E-01 -0.1762209E-01
 -0.1500340E+01  0.1523320E+02 -0.1027320E+00  0.8846956E-01 -0.1570809E+01  0.1162931E-05  0.8846956E-01
 -0.2986230E+01  0.1501280E+02 -0.1027320E+00  0.2715816E+00 -0.1350673E+01 -0.5929977E-01  0.2650285E+00
 -0.4443360E+01  0.1464780E+02 -0.1027320E+00  0.3278497E+00 -0.1319208E+01 -0.8161562E-01  0.3175284E+00
 -0.5857700E+01  0.1414170E+02 -0.1027320E+00  0.3570134E+00 -0.1296199E+01 -0.9680761E-01  0.3436376E+00
 -0.7215620E+01  0.1349950E+02 -0.1027320E+00  0.3780180E+00 -0.1275827E+01 -0.1098939E+00  0.3616918E+00
 -0.8504060E+01  0.1272720E+02 -0.1027320E+00  0.3956248E+00 -0.1257509E+01 -0.1219266E+00  0.3763681E+00
 -0.9710590E+01  0.1183240E+02 -0.1027320E+00  0.4062194E+00 -0.1241131E+01 -0.1315040E+00  0.3843447E+00
 -0.1082360E+02  0.1082360E+02 -0.1027320E+00  0.4167995E+00 -0.1226913E+01 -0.1405220E+00  0.3923970E+00
 -0.1183240E+02  0.9710590E+01 -0.1027320E+00  0.4242846E+00 -0.1214288E+01 -0.1480772E+00  0.3976060E+00
 -0.1272720E+02  0.8504060E+01 -0.1027320E+00  0.4308020E+00 -0.1203537E+01 -0.1546831E+00  0.4020739E+00
 -0.1349950E+02  0.7215620E+01 -0.1027320E+00  0.4369230E+00 -0.1194979E+01 -0.1603649E+00  0.4064293E+00
 -0.1414170E+02  0.5857690E+01 -0.1027320E+00  0.4438352E+00 -0.1189109E+01 -0.1653230E+00  0.4118956E+00
 -0.1464780E+02  0.4443360E+01 -0.1027320E+00  0.4496315E+00 -0.1185458E+01 -0.1690041E+00  0.4166607E+00
 -0.1501280E+02  0.2986230E+01 -0.1027320E+00  0.4538060E+00 -0.1183925E+01 -0.1712179E+00  0.4202669E+00
 -0.1523320E+02  0.1500340E+01 -0.1027320E+00  0.4565171E+00 -0.1184765E+01 -0.1718856E+00  0.4229222E+00
 -0.1530690E+02 -0.1338170E-05 -0.1027320E+00  0.4577052E+00 -0.1187763E+01 -0.1710608E+00  0.4245377E+00
 -0.1523320E+02 -0.1500340E+01 -0.1027320E+00  0.4577821E+00 -0.1192987E+01 -0.1688691E+00  0.4254970E+00
 -0.1501280E+02 -0.2986230E+01 -0.1027320E+00  0.4566676E+00 -0.1200279E+01 -0.1653582E+00  0.4256782E+00
 -0.1464780E+02 -0.4443360E+01 -0.1027320E+00  0.4546248E+00 -0.1209684E+01 -0.1606256E+00  0.4253035E+00
 -0.1414170E+02 -0.5857700E+01 -0.1027320E+00  0.4512993E+00 -0.1221111E+01 -0.1546160E+00  0.4239870E+00
 -0.1349950E+02 -0.7215620E+01 -0.1027320E+00  0.4472431E+00 -0.1235029E+01 -0.1473639E+00  0.4222680E+00
 -0.1272720E+02 -0.8504060E+01 -0.1027320E+00  0.4437204E+00 -0.1252389E+01 -0.1389087E+00  0.4214169E+00
 -0.1183240E+02 -0.9710600E+01 -0.1027320E+00  0.4398313E+00 -0.1272720E+01 -0.1291705E+00  0.4204361E+00
 -0.1082360E+02 -0.1082360E+02 -0.1027320E+00  0.4356385E+00 -0.1295964E+01 -0.1182258E+00  0.4192893E+00
 -0.9710600E+01 -0.1183240E+02 -0.1027320E+00  0.4296433E+00 -0.1321561E+01 -0.1059772E+00  0.4163679E+00
 -0.8504050E+01 -0.1272720E+02 -0.1027320E+00  0.4238851E+00 -0.1350915E+01 -0.9245501E-01  0.4136794E+00
 -0.7215620E+01 -0.1349950E+02 -0.1027320E+00  0.4129492E+00 -0.1382244E+01 -0.7740209E-01  0.4056303E+00
 -0.5857690E+01 -0.1414170E+02 -0.1027320E+00  0.4003046E+00 -0.1418239E+01 -0.6083261E-01  0.3956553E+00
 -0.4443360E+01 -0.1464780E+02 -0.1027320E+00  0.3839666E+00 -0.1459815E+01 -0.4252585E-01  0.3816044E+00
 -0.2986230E+01 -0.1501280E+02 -0.1027320E+00  0.3513667E+00 -0.1510516E+01 -0.2116782E-01  0.3507285E+00
 -0.1500340E+01 -0.1523320E+02 -0.1027320E+00  0.2308442E+00 -0.1588306E+01  0.4041712E-02  0.2308088E+00
  0.1825330E-06 -0.1530690E+02 -0.1027320E+00  0.1387423E+00 -0.1737748E+01  0.2305581E-01  0.1368132E+00
  0.1500340E+01 -0.1523320E+02 -0.1027320E+00  0.5177167E-01 -0.2500145E+01  0.4148103E-01  0.3097789E-01
  0.2986230E+01 -0.1501280E+02 -0.1027320E+00  0.1571744E+00  0.1988325E+01  0.6373458E-01 -0.1436722E+00
  0.4443360E+01 -0.1464780E+02 -0.1027320E+00  0.2110704E+00  0.1960285E+01  0.8014669E-01 -0.1952619E+00
  0.5857700E+01 -0.1414170E+02 -0.1027320E+00  0.2402035E+00  0.1975159E+01  0.9450396E-01 -0.2208319E+00
  0.7215620E+01 -0.1349950E+02 -0.1027320E+00  0.2617301E+00  0.1995214E+01  0.1077778E+00 -0.2385091E+00
  0.8504060E+01 -0.1272720E+02 -0.1027320E+00  0.2799732E+00  0.2014377E+01  0.1201578E+00 -0.2528777E+00
  0.9710600E+01 -0.1183240E+02 -0.1027320E+00  0.2919142E+00  0.2038205E+01  0.1315291E+00 -0.2606031E+00
  0.1082360E+02 -0.1082360E+02 -0.1027320E+00  0.3038027E+00  0.2058174E+01  0.1422739E+00 -0.2684292E+00
  0.1183240E+02 -0.9710590E+01 -0.1027320E+00  0.3128872E+00  0.2078382E+01  0.1520849E+00 -0.2734385E+00
  0.1272720E+02 -0.8504060E+01 -0.1027320E+00  0.3209893E+00  0.2096102E+01  0.1609690E+00 -0.2777105E+00
