 VARIABLES="X" "Y" "Z" "abs(eta) (m)" "angle(phi) (rad)" "PRE1" "PRE2"
ZONE N=   3200 ,E =    3136 ,F=FEPOINT,ET=QUADRILATERAL
  0.1672760E+02  0.0000000E+00  0.0000000E+00  0.1429437E+00  0.2272625E+01  0.9228663E-01 -0.1091608E+00
  0.1664710E+02  0.1639590E+01  0.0000000E+00  0.1385352E+00  0.2260936E+01  0.8819769E-01 -0.1068325E+00
  0.1640620E+02  0.3263390E+01  0.0000000E+00  0.1337881E+00  0.2247061E+01  0.8373586E-01 -0.1043435E+00
  0.1600730E+02  0.4855770E+01  0.0000000E+00  0.1281297E+00  0.2235420E+01  0.7902560E-01 -0.1008572E+00
  0.1545430E+02  0.6401380E+01  0.0000000E+00  0.1214145E+00  0.2228155E+01  0.7418765E-01 -0.9611280E-01
  0.1475240E+02  0.7885340E+01  0.0000000E+00  0.1136969E+00  0.2226765E+01  0.6934687E-01 -0.9009998E-01
  0.1390850E+02  0.9293360E+01  0.0000000E+00  0.1056988E+00  0.2225239E+01  0.6434065E-01 -0.8386006E-01
  0.1293060E+02  0.1061190E+02  0.0000000E+00  0.9768972E-01  0.2218184E+01  0.5891716E-01 -0.7792336E-01
  0.1182820E+02  0.1182820E+02  0.0000000E+00  0.8896837E-01  0.2214015E+01  0.5336092E-01 -0.7118977E-01
  0.1061190E+02  0.1293060E+02  0.0000000E+00  0.7871085E-01  0.2227998E+01  0.4808478E-01 -0.6231573E-01
  0.9293360E+01  0.1390850E+02  0.0000000E+00  0.6748985E-01  0.2258596E+01  0.4284516E-01 -0.5214569E-01
  0.7885330E+01  0.1475240E+02  0.0000000E+00  0.5439928E-01  0.2344376E+01  0.3800879E-01 -0.3891803E-01
  0.6401380E+01  0.1545430E+02  0.0000000E+00  0.3936965E-01  0.2612979E+01  0.3399597E-01 -0.1985554E-01
  0.4855770E+01  0.1600730E+02  0.0000000E+00  0.3264252E-01 -0.2927428E+01  0.3189678E-01  0.6937549E-02
  0.3263390E+01  0.1640620E+02  0.0000000E+00  0.6062845E-01 -0.2159214E+01  0.3365154E-01  0.5043196E-01
  0.1639590E+01  0.1664710E+02  0.0000000E+00  0.1163457E+00 -0.1906632E+01  0.3834272E-01  0.1098461E+00
 -0.7311870E-06  0.1672760E+02  0.0000000E+00  0.1640507E+00 -0.1800067E+01  0.3728339E-01  0.1597579E+00
 -0.1639590E+01  0.1664710E+02  0.0000000E+00  0.1972066E+00 -0.1712176E+01  0.2778832E-01  0.1952390E+00
 -0.3263390E+01  0.1640620E+02  0.0000000E+00  0.2179183E+00 -0.1620335E+01  0.1079108E-01  0.2176510E+00
 -0.4855770E+01  0.1600730E+02  0.0000000E+00  0.2287750E+00 -0.1542826E+01 -0.6398024E-02  0.2286855E+00
 -0.6401380E+01  0.1545430E+02  0.0000000E+00  0.2343327E+00 -0.1481189E+01 -0.2096983E-01  0.2333925E+00
 -0.7885340E+01  0.1475240E+02  0.0000000E+00  0.2393268E+00 -0.1432151E+01 -0.3307532E-01  0.2370302E+00
 -0.9293360E+01  0.1390850E+02  0.0000000E+00  0.2415534E+00 -0.1387979E+01 -0.4391466E-01  0.2375280E+00
 -0.1061190E+02  0.1293060E+02  0.0000000E+00  0.2429998E+00 -0.1349033E+01 -0.5344778E-01  0.2370490E+00
 -0.1182820E+02  0.1182820E+02  0.0000000E+00  0.2443294E+00 -0.1314486E+01 -0.6194083E-01  0.2363476E+00
 -0.1293060E+02  0.1061190E+02  0.0000000E+00  0.2454816E+00 -0.1285491E+01 -0.6909091E-01  0.2355582E+00
 -0.1390850E+02  0.9293360E+01  0.0000000E+00  0.2463309E+00 -0.1260313E+01 -0.7525870E-01  0.2345528E+00
 -0.1475240E+02  0.7885330E+01  0.0000000E+00  0.2471282E+00 -0.1238487E+01 -0.8061992E-01  0.2336082E+00
 -0.1545430E+02  0.6401370E+01  0.0000000E+00  0.2478086E+00 -0.1220399E+01 -0.8506548E-01  0.2327509E+00
 -0.1600730E+02  0.4855770E+01  0.0000000E+00  0.2476583E+00 -0.1205163E+01 -0.8854783E-01  0.2312875E+00
 -0.1640620E+02  0.3263390E+01  0.0000000E+00  0.2463945E+00 -0.1192164E+01 -0.9107979E-01  0.2289426E+00
 -0.1664710E+02  0.1639590E+01  0.0000000E+00  0.2440673E+00 -0.1181578E+01 -0.9261504E-01  0.2258126E+00
 -0.1672760E+02 -0.1462370E-05  0.0000000E+00  0.2417241E+00 -0.1173876E+01 -0.9344562E-01  0.2229315E+00
 -0.1664710E+02 -0.1639590E+01  0.0000000E+00  0.2395490E+00 -0.1169208E+01 -0.9363518E-01  0.2204907E+00
 -0.1640620E+02 -0.3263400E+01  0.0000000E+00  0.2369599E+00 -0.1167244E+01 -0.9305131E-01  0.2179253E+00
 -0.1600730E+02 -0.4855770E+01  0.0000000E+00  0.2330000E+00 -0.1168037E+01 -0.9132622E-01  0.2143561E+00
 -0.1545430E+02 -0.6401380E+01  0.0000000E+00  0.2273803E+00 -0.1171733E+01 -0.8834977E-01  0.2095141E+00
 -0.1475240E+02 -0.7885340E+01  0.0000000E+00  0.2200898E+00 -0.1178697E+01 -0.8410268E-01  0.2033870E+00
 -0.1390850E+02 -0.9293360E+01  0.0000000E+00  0.2123295E+00 -0.1188925E+01 -0.7912627E-01  0.1970351E+00
 -0.1293060E+02 -0.1061190E+02  0.0000000E+00  0.2047931E+00 -0.1201877E+01 -0.7384996E-01  0.1910141E+00
 -0.1182820E+02 -0.1182820E+02  0.0000000E+00  0.1962880E+00 -0.1218073E+01 -0.6780872E-01  0.1842036E+00
 -0.1061190E+02 -0.1293060E+02  0.0000000E+00  0.1853559E+00 -0.1238970E+01 -0.6038342E-01  0.1752445E+00
 -0.9293350E+01 -0.1390850E+02  0.0000000E+00  0.1730151E+00 -0.1264918E+01 -0.5210023E-01  0.1649842E+00
 -0.7885340E+01 -0.1475240E+02  0.0000000E+00  0.1573824E+00 -0.1299408E+01 -0.4218935E-01  0.1516222E+00
 -0.6401370E+01 -0.1545430E+02  0.0000000E+00  0.1355776E+00 -0.1352660E+01 -0.2934045E-01  0.1323647E+00
 -0.4855760E+01 -0.1600730E+02  0.0000000E+00  0.1059790E+00 -0.1452533E+01 -0.1250419E-01  0.1052388E+00
 -0.3263390E+01 -0.1640620E+02  0.0000000E+00  0.6261270E-01 -0.1781976E+01  0.1312450E-01  0.6122172E-01
 -0.1639590E+01 -0.1664710E+02  0.0000000E+00  0.4731112E-01 -0.3115082E+01  0.4729449E-01  0.1254105E-02
  0.1994750E-06 -0.1672760E+02  0.0000000E+00  0.9004312E-01  0.2569622E+01  0.7571149E-01 -0.4873944E-01
  0.1639600E+01 -0.1664710E+02  0.0000000E+00  0.1263228E+00  0.2416952E+01  0.9458264E-01 -0.8373520E-01
  0.3263390E+01 -0.1640620E+02  0.0000000E+00  0.1480054E+00  0.2350802E+01  0.1040898E+00 -0.1052185E+00
  0.4855770E+01 -0.1600730E+02  0.0000000E+00  0.1577001E+00  0.2320302E+01  0.1074374E+00 -0.1154406E+00
  0.6401380E+01 -0.1545430E+02  0.0000000E+00  0.1614356E+00  0.2307273E+01  0.1084334E+00 -0.1195979E+00
  0.7885340E+01 -0.1475240E+02  0.0000000E+00  0.1646661E+00  0.2299183E+01  0.1096127E+00 -0.1228819E+00
  0.9293360E+01 -0.1390850E+02  0.0000000E+00  0.1648275E+00  0.2297877E+01  0.1095594E+00 -0.1231456E+00
  0.1061190E+02 -0.1293060E+02  0.0000000E+00  0.1640718E+00  0.2298525E+01  0.1091365E+00 -0.1225103E+00
  0.1182820E+02 -0.1182820E+02  0.0000000E+00  0.1630273E+00  0.2298675E+01  0.1084599E+00 -0.1217142E+00
  0.1293060E+02 -0.1061190E+02  0.0000000E+00  0.1618988E+00  0.2298275E+01  0.1076609E+00 -0.1209147E+00
  0.1390850E+02 -0.9293360E+01  0.0000000E+00  0.1604631E+00  0.2297308E+01  0.1065902E+00 -0.1199456E+00
  0.1475240E+02 -0.7885330E+01  0.0000000E+00  0.1589459E+00  0.2294888E+01  0.1052945E+00 -0.1190667E+00
  0.1545430E+02 -0.6401380E+01  0.0000000E+00  0.1573657E+00  0.2290751E+01  0.1037591E+00 -0.1183132E+00
  0.1600730E+02 -0.4855760E+01  0.0000000E+00  0.1550218E+00  0.2286429E+01  0.1017091E+00 -0.1169916E+00
  0.1640620E+02 -0.3263390E+01  0.0000000E+00  0.1516510E+00  0.2282716E+01  0.9907180E-01 -0.1148164E+00
  0.1664710E+02 -0.1639590E+01  0.0000000E+00  0.1473870E+00  0.2279653E+01  0.9594396E-01 -0.1118824E+00
  0.1672760E+02  0.0000000E+00 -0.2568960E-01  0.1427745E+00  0.2272657E+01  0.9218094E-01 -0.1090286E+00
  0.1664710E+02  0.1639590E+01 -0.2568960E-01  0.1383693E+00  0.2260982E+01  0.8809703E-01 -0.1067004E+00
  0.1640620E+02  0.3263390E+01 -0.2568960E-01  0.1336266E+00  0.2247128E+01  0.8364173E-01 -0.1042120E+00
  0.1600730E+02  0.4855770E+01 -0.2568960E-01  0.1279779E+00  0.2235487E+01  0.7893877E-01 -0.1007323E+00
  0.1545430E+02  0.6401380E+01 -0.2568960E-01  0.1212757E+00  0.2228183E+01  0.7410559E-01 -0.9600084E-01
  0.1475240E+02  0.7885340E+01 -0.2568960E-01  0.1135761E+00  0.2226736E+01  0.6927056E-01 -0.9000620E-01
  0.1390850E+02  0.9293360E+01 -0.2568960E-01  0.1055923E+00  0.2225155E+01  0.6426881E-01 -0.8378094E-01
  0.1293060E+02  0.1061190E+02 -0.2568960E-01  0.9759222E-01  0.2218116E+01  0.5885305E-01 -0.7784960E-01
  0.1182820E+02  0.1182820E+02 -0.2568960E-01  0.8887772E-01  0.2213988E+01  0.5330463E-01 -0.7111867E-01
  0.1061190E+02  0.1293060E+02 -0.2568960E-01  0.7863470E-01  0.2227893E+01  0.4803170E-01 -0.6226052E-01
  0.9293360E+01  0.1390850E+02 -0.2568960E-01  0.6742455E-01  0.2258523E+01  0.4279993E-01 -0.5209832E-01
  0.7885330E+01  0.1475240E+02 -0.2568960E-01  0.5434503E-01  0.2344346E+01  0.3796972E-01 -0.3888036E-01
  0.6401380E+01  0.1545430E+02 -0.2568960E-01  0.3933454E-01  0.2612786E+01  0.3396184E-01 -0.1984440E-01
  0.4855770E+01  0.1600730E+02 -0.2568960E-01  0.3260964E-01 -0.2927652E+01  0.3186620E-01  0.6923441E-02
  0.3263390E+01  0.1640620E+02 -0.2568960E-01  0.6056475E-01 -0.2159320E+01  0.3362152E-01  0.5037541E-01
  0.1639590E+01  0.1664710E+02 -0.2568960E-01  0.1162410E+00 -0.1906682E+01  0.3831360E-01  0.1097453E+00
 -0.7311870E-06  0.1672760E+02 -0.2568960E-01  0.1638974E+00 -0.1800146E+01  0.3726107E-01  0.1596057E+00
 -0.1639590E+01  0.1664710E+02 -0.2568960E-01  0.1970008E+00 -0.1712241E+01  0.2777192E-01  0.1950334E+00
 -0.3263390E+01  0.1640620E+02 -0.2568960E-01  0.2176935E+00 -0.1620384E+01  0.1079058E-01  0.2174259E+00
 -0.4855770E+01  0.1600730E+02 -0.2568960E-01  0.2285324E+00 -0.1542859E+01 -0.6383801E-02  0.2284432E+00
 -0.6401380E+01  0.1545430E+02 -0.2568960E-01  0.2340878E+00 -0.1481225E+01 -0.2093959E-01  0.2331494E+00
 -0.7885340E+01  0.1475240E+02 -0.2568960E-01  0.2390628E+00 -0.1432168E+01 -0.3303492E-01  0.2367693E+00
 -0.9293360E+01  0.1390850E+02 -0.2568960E-01  0.2412917E+00 -0.1388000E+01 -0.4386206E-01  0.2372715E+00
 -0.1061190E+02  0.1293060E+02 -0.2568960E-01  0.2427386E+00 -0.1349053E+01 -0.5338559E-01  0.2367953E+00
 -0.1182820E+02  0.1182820E+02 -0.2568960E-01  0.2440651E+00 -0.1314512E+01 -0.6186748E-01  0.2360936E+00
 -0.1293060E+02  0.1061190E+02 -0.2568960E-01  0.2452158E+00 -0.1285513E+01 -0.6901103E-01  0.2353047E+00
 -0.1390850E+02  0.9293360E+01 -0.2568960E-01  0.2460631E+00 -0.1260326E+01 -0.7517388E-01  0.2342989E+00
 -0.1475240E+02  0.7885330E+01 -0.2568960E-01  0.2468545E+00 -0.1238495E+01 -0.8052863E-01  0.2333501E+00
 -0.1545430E+02  0.6401370E+01 -0.2568960E-01  0.2475255E+00 -0.1220402E+01 -0.8496770E-01  0.2324852E+00
 -0.1600730E+02  0.4855770E+01 -0.2568960E-01  0.2473696E+00 -0.1205153E+01 -0.8844700E-01  0.2310170E+00
 -0.1640620E+02  0.3263390E+01 -0.2568960E-01  0.2461047E+00 -0.1192153E+01 -0.9097518E-01  0.2286723E+00
 -0.1664710E+02  0.1639590E+01 -0.2568960E-01  0.2437827E+00 -0.1181563E+01 -0.9251057E-01  0.2255477E+00
 -0.1672760E+02 -0.1462370E-05 -0.2568960E-01  0.2414426E+00 -0.1173862E+01 -0.9333993E-01  0.2226705E+00
 -0.1664710E+02 -0.1639590E+01 -0.2568960E-01  0.2392672E+00 -0.1169197E+01 -0.9352729E-01  0.2202304E+00
 -0.1640620E+02 -0.3263400E+01 -0.2568960E-01  0.2366775E+00 -0.1167244E+01 -0.9294026E-01  0.2176657E+00
 -0.1600730E+02 -0.4855770E+01 -0.2568960E-01  0.2327242E+00 -0.1168038E+01 -0.9121791E-01  0.2141024E+00
 -0.1545430E+02 -0.6401380E+01 -0.2568960E-01  0.2271184E+00 -0.1171742E+01 -0.8824629E-01  0.2092734E+00
 -0.1475240E+02 -0.7885340E+01 -0.2568960E-01  0.2198484E+00 -0.1178708E+01 -0.8400828E-01  0.2031648E+00
 -0.1390850E+02 -0.9293360E+01 -0.2568960E-01  0.2121061E+00 -0.1188928E+01 -0.7904232E-01  0.1968281E+00
 -0.1293060E+02 -0.1061190E+02 -0.2568960E-01  0.2045756E+00 -0.1201888E+01 -0.7376944E-01  0.1908121E+00
 -0.1182820E+02 -0.1182820E+02 -0.2568960E-01  0.1960752E+00 -0.1218081E+01 -0.6773368E-01  0.1840044E+00
 -0.1061190E+02 -0.1293060E+02 -0.2568960E-01  0.1851620E+00 -0.1238978E+01 -0.6031892E-01  0.1750617E+00
 -0.9293350E+01 -0.1390850E+02 -0.2568960E-01  0.1728313E+00 -0.1264919E+01 -0.5204469E-01  0.1648090E+00
 -0.7885340E+01 -0.1475240E+02 -0.2568960E-01  0.1572104E+00 -0.1299422E+01 -0.4214109E-01  0.1514570E+00
 -0.6401370E+01 -0.1545430E+02 -0.2568960E-01  0.1354351E+00 -0.1352662E+01 -0.2930934E-01  0.1322256E+00
 -0.4855760E+01 -0.1600730E+02 -0.2568960E-01  0.1058644E+00 -0.1452542E+01 -0.1248980E-01  0.1051251E+00
 -0.3263390E+01 -0.1640620E+02 -0.2568960E-01  0.6254121E-01 -0.1782069E+01  0.1311515E-01  0.6115060E-01
 -0.1639590E+01 -0.1664710E+02 -0.2568960E-01  0.4727556E-01 -0.3115616E+01  0.4725961E-01  0.1227937E-02
  0.1994750E-06 -0.1672760E+02 -0.2568960E-01  0.8997574E-01  0.2569474E+01  0.7564762E-01 -0.4871419E-01
  0.1639600E+01 -0.1664710E+02 -0.2568960E-01  0.1262023E+00  0.2416933E+01  0.9449087E-01 -0.8365704E-01
  0.3263390E+01 -0.1640620E+02 -0.2568960E-01  0.1478652E+00  0.2350776E+01  0.1039884E+00 -0.1051215E+00
  0.4855770E+01 -0.1600730E+02 -0.2568960E-01  0.1575428E+00  0.2320289E+01  0.1073288E+00 -0.1153268E+00
  0.6401380E+01 -0.1545430E+02 -0.2568960E-01  0.1612787E+00  0.2307252E+01  0.1083255E+00 -0.1194839E+00
  0.7885340E+01 -0.1475240E+02 -0.2568960E-01  0.1644890E+00  0.2299177E+01  0.1094941E+00 -0.1227505E+00
  0.9293360E+01 -0.1390850E+02 -0.2568960E-01  0.1646556E+00  0.2297861E+01  0.1094432E+00 -0.1230189E+00
  0.1061190E+02 -0.1293060E+02 -0.2568960E-01  0.1639033E+00  0.2298510E+01  0.1090226E+00 -0.1223860E+00
  0.1182820E+02 -0.1182820E+02 -0.2568960E-01  0.1628579E+00  0.2298655E+01  0.1083448E+00 -0.1215899E+00
  0.1293060E+02 -0.1061190E+02 -0.2568960E-01  0.1617310E+00  0.2298256E+01  0.1075470E+00 -0.1207914E+00
  0.1390850E+02 -0.9293360E+01 -0.2568960E-01  0.1602944E+00  0.2297287E+01  0.1064757E+00 -0.1198216E+00
  0.1475240E+02 -0.7885330E+01 -0.2568960E-01  0.1587734E+00  0.2294880E+01  0.1051793E+00 -0.1189382E+00
  0.1545430E+02 -0.6401380E+01 -0.2568960E-01  0.1571864E+00  0.2290764E+01  0.1036425E+00 -0.1181771E+00
  0.1600730E+02 -0.4855760E+01 -0.2568960E-01  0.1548390E+00  0.2286459E+01  0.1015926E+00 -0.1168506E+00
  0.1640620E+02 -0.3263390E+01 -0.2568960E-01  0.1514702E+00  0.2282755E+01  0.9895819E-01 -0.1146756E+00
  0.1664710E+02 -0.1639590E+01 -0.2568960E-01  0.1472114E+00  0.2279680E+01  0.9583266E-01 -0.1117466E+00
  0.1672760E+02  0.0000000E+00 -0.1027320E+00  0.1422666E+00  0.2272785E+01  0.9186694E-01 -0.1086290E+00
  0.1664710E+02  0.1639590E+01 -0.1027320E+00  0.1378728E+00  0.2261162E+01  0.8780006E-01 -0.1063018E+00
  0.1640620E+02  0.3263390E+01 -0.1027320E+00  0.1331428E+00  0.2247364E+01  0.8336338E-01 -0.1038150E+00
  0.1600730E+02  0.4855770E+01 -0.1027320E+00  0.1275195E+00  0.2235716E+01  0.7867896E-01 -0.1003536E+00
  0.1545430E+02  0.6401380E+01 -0.1027320E+00  0.1208586E+00  0.2228335E+01  0.7386524E-01 -0.9565942E-01
  0.1475240E+02  0.7885340E+01 -0.1027320E+00  0.1132097E+00  0.2226688E+01  0.6904282E-01 -0.8971919E-01
  0.1390850E+02  0.9293360E+01 -0.1027320E+00  0.1052691E+00  0.2224958E+01  0.6405567E-01 -0.8353719E-01
  0.1293060E+02  0.1061190E+02 -0.1027320E+00  0.9729342E-01  0.2217957E+01  0.5866048E-01 -0.7762060E-01
  0.1182820E+02  0.1182820E+02 -0.1027320E+00  0.8859958E-01  0.2213948E+01  0.5313502E-01 -0.7089821E-01
  0.1061190E+02  0.1293060E+02 -0.1027320E+00  0.7840308E-01  0.2227646E+01  0.4787488E-01 -0.6208896E-01
  0.9293360E+01  0.1390850E+02 -0.1027320E+00  0.6722296E-01  0.2258328E+01  0.4266180E-01 -0.5195091E-01
  0.7885330E+01  0.1475240E+02 -0.1027320E+00  0.5417822E-01  0.2344282E+01  0.3785071E-01 -0.3876342E-01
  0.6401380E+01  0.1545430E+02 -0.1027320E+00  0.3922789E-01  0.2612315E+01  0.3386041E-01 -0.1980657E-01
  0.4855770E+01  0.1600730E+02 -0.1027320E+00  0.3251175E-01 -0.2928144E+01  0.3177393E-01  0.6887030E-02
  0.3263390E+01  0.1640620E+02 -0.1027320E+00  0.6036362E-01 -0.2159682E+01  0.3352807E-01  0.5019597E-01
  0.1639590E+01  0.1664710E+02 -0.1027320E+00  0.1159239E+00 -0.1906829E+01  0.3822527E-01  0.1094403E+00
 -0.7311870E-06  0.1672760E+02 -0.1027320E+00  0.1634259E+00 -0.1800352E+01  0.3718679E-01  0.1591388E+00
 -0.1639590E+01  0.1664710E+02 -0.1027320E+00  0.1963782E+00 -0.1712402E+01  0.2771538E-01  0.1944126E+00
 -0.3263390E+01  0.1640620E+02 -0.1027320E+00  0.2170207E+00 -0.1620501E+01  0.1078247E-01  0.2167526E+00
 -0.4855770E+01  0.1600730E+02 -0.1027320E+00  0.2278021E+00 -0.1542944E+01 -0.6343985E-02  0.2277137E+00
 -0.6401380E+01  0.1545430E+02 -0.1027320E+00  0.2333522E+00 -0.1481326E+01 -0.2085014E-01  0.2324189E+00
 -0.7885340E+01  0.1475240E+02 -0.1027320E+00  0.2382705E+00 -0.1432200E+01 -0.3291785E-01  0.2359857E+00
 -0.9293360E+01  0.1390850E+02 -0.1027320E+00  0.2405045E+00 -0.1388052E+01 -0.4370666E-01  0.2364998E+00
 -0.1061190E+02  0.1293060E+02 -0.1027320E+00  0.2419521E+00 -0.1349106E+01 -0.5320007E-01  0.2360309E+00
 -0.1182820E+02  0.1182820E+02 -0.1027320E+00  0.2432691E+00 -0.1314578E+01 -0.6165024E-01  0.2353277E+00
 -0.1293060E+02  0.1061190E+02 -0.1027320E+00  0.2444169E+00 -0.1285569E+01 -0.6877286E-01  0.2345419E+00
 -0.1390850E+02  0.9293360E+01 -0.1027320E+00  0.2452565E+00 -0.1260373E+01 -0.7491650E-01  0.2335343E+00
 -0.1475240E+02  0.7885330E+01 -0.1027320E+00  0.2460295E+00 -0.1238527E+01 -0.8025217E-01  0.2325728E+00
 -0.1545430E+02  0.6401370E+01 -0.1027320E+00  0.2466747E+00 -0.1220398E+01 -0.8467657E-01  0.2316858E+00
 -0.1600730E+02  0.4855770E+01 -0.1027320E+00  0.2465000E+00 -0.1205132E+01 -0.8814091E-01  0.2302030E+00
 -0.1640620E+02  0.3263390E+01 -0.1027320E+00  0.2452338E+00 -0.1192117E+01 -0.9066130E-01  0.2278599E+00
 -0.1664710E+02  0.1639590E+01 -0.1027320E+00  0.2429248E+00 -0.1181530E+01 -0.9219229E-01  0.2247511E+00
 -0.1672760E+02 -0.1462370E-05 -0.1027320E+00  0.2405930E+00 -0.1173841E+01 -0.9301621E-01  0.2218851E+00
 -0.1664710E+02 -0.1639590E+01 -0.1027320E+00  0.2384168E+00 -0.1169179E+01 -0.9319884E-01  0.2194460E+00
 -0.1640620E+02 -0.3263400E+01 -0.1027320E+00  0.2358272E+00 -0.1167241E+01 -0.9260713E-01  0.2168834E+00
 -0.1600730E+02 -0.4855770E+01 -0.1027320E+00  0.2318926E+00 -0.1168052E+01 -0.9088906E-01  0.2133386E+00
 -0.1545430E+02 -0.6401380E+01 -0.1027320E+00  0.2263284E+00 -0.1171765E+01 -0.8793438E-01  0.2085475E+00
 -0.1475240E+02 -0.7885340E+01 -0.1027320E+00  0.2191198E+00 -0.1178731E+01 -0.8372516E-01  0.2024934E+00
 -0.1390850E+02 -0.9293360E+01 -0.1027320E+00  0.2114274E+00 -0.1188948E+01 -0.7878559E-01  0.1961998E+00
 -0.1293060E+02 -0.1061190E+02 -0.1027320E+00  0.2039171E+00 -0.1201909E+01 -0.7352798E-01  0.1901994E+00
 -0.1182820E+02 -0.1182820E+02 -0.1027320E+00  0.1954294E+00 -0.1218113E+01 -0.6750466E-01  0.1834005E+00
 -0.1061190E+02 -0.1293060E+02 -0.1027320E+00  0.1845738E+00 -0.1238994E+01 -0.6012445E-01  0.1745066E+00
 -0.9293350E+01 -0.1390850E+02 -0.1027320E+00  0.1722733E+00 -0.1264943E+01 -0.5187271E-01  0.1642781E+00
 -0.7885340E+01 -0.1475240E+02 -0.1027320E+00  0.1566905E+00 -0.1299456E+01 -0.4199663E-01  0.1509576E+00
 -0.6401370E+01 -0.1545430E+02 -0.1027320E+00  0.1350039E+00 -0.1352685E+01 -0.2921298E-01  0.1318054E+00
 -0.4855760E+01 -0.1600730E+02 -0.1027320E+00  0.1055162E+00 -0.1452597E+01 -0.1244295E-01  0.1047800E+00
 -0.3263390E+01 -0.1640620E+02 -0.1027320E+00  0.6233706E-01 -0.1782145E+01  0.1307700E-01  0.6094999E-01
 -0.1639590E+01 -0.1664710E+02 -0.1027320E+00  0.4716378E-01 -0.3117134E+01  0.4714968E-01  0.1153429E-02
  0.1994750E-06 -0.1672760E+02 -0.1027320E+00  0.8976170E-01  0.2569084E+01  0.7544873E-01 -0.4862768E-01
  0.1639600E+01 -0.1664710E+02 -0.1027320E+00  0.1258315E+00  0.2416872E+01  0.9420812E-01 -0.8341708E-01
  0.3263390E+01 -0.1640620E+02 -0.1027320E+00  0.1474439E+00  0.2350688E+01  0.1036829E+00 -0.1048312E+00
  0.4855770E+01 -0.1600730E+02 -0.1027320E+00  0.1570646E+00  0.2320237E+01  0.1069970E+00 -0.1149823E+00
  0.6401380E+01 -0.1545430E+02 -0.1027320E+00  0.1608032E+00  0.2307170E+01  0.1079964E+00 -0.1191405E+00
  0.7885340E+01 -0.1475240E+02 -0.1027320E+00  0.1639568E+00  0.2299168E+01  0.1091388E+00 -0.1223543E+00
  0.9293360E+01 -0.1390850E+02 -0.1027320E+00  0.1641369E+00  0.2297827E+01  0.1090942E+00 -0.1226351E+00
  0.1061190E+02 -0.1293060E+02 -0.1027320E+00  0.1633914E+00  0.2298453E+01  0.1086751E+00 -0.1220100E+00
  0.1182820E+02 -0.1182820E+02 -0.1027320E+00  0.1623473E+00  0.2298615E+01  0.1080002E+00 -0.1212130E+00
  0.1293060E+02 -0.1061190E+02 -0.1027320E+00  0.1612233E+00  0.2298210E+01  0.1072038E+00 -0.1204172E+00
  0.1390850E+02 -0.9293360E+01 -0.1027320E+00  0.1597862E+00  0.2297254E+01  0.1061341E+00 -0.1194452E+00
