 VARIABLES="X" "Y" "Z" "abs(eta) (m)" "angle(phi) (rad)" "PRE1" "PRE2"
ZONE N=   3200 ,E =    3136 ,F=FEPOINT,ET=QUADRILATERAL
  0.1672760E+02  0.0000000E+00  0.0000000E+00  0.2739820E+00  0.2013601E+01  0.1173946E+00 -0.2475574E+00
  0.1664710E+02  0.1639590E+01  0.0000000E+00  0.2732114E+00  0.2013514E+01  0.1170429E+00 -0.2468713E+00
  0.1640620E+02  0.3263390E+01  0.0000000E+00  0.2710426E+00  0.2013042E+01  0.1159982E+00 -0.2449663E+00
  0.1600730E+02  0.4855770E+01  0.0000000E+00  0.2675604E+00  0.2012072E+01  0.1142733E+00 -0.2419301E+00
  0.1545430E+02  0.6401380E+01  0.0000000E+00  0.2639427E+00  0.2009195E+01  0.1120411E+00 -0.2389823E+00
  0.1475240E+02  0.7885340E+01  0.0000000E+00  0.2604489E+00  0.2004115E+01  0.1093587E+00 -0.2363774E+00
  0.1390850E+02  0.9293360E+01  0.0000000E+00  0.2581396E+00  0.1995184E+01  0.1062924E+00 -0.2352403E+00
  0.1293060E+02  0.1061190E+02  0.0000000E+00  0.2560746E+00  0.1983375E+01  0.1026790E+00 -0.2345873E+00
  0.1182820E+02  0.1182820E+02  0.0000000E+00  0.2488041E+00  0.1975363E+01  0.9793439E-01 -0.2287189E+00
  0.1061190E+02  0.1293060E+02  0.0000000E+00  0.2409967E+00  0.1966175E+01  0.9282167E-01 -0.2224040E+00
  0.9293360E+01  0.1390850E+02  0.0000000E+00  0.2313570E+00  0.1957099E+01  0.8716749E-01 -0.2143079E+00
  0.7885330E+01  0.1475240E+02  0.0000000E+00  0.2157048E+00  0.1952537E+01  0.8035792E-01 -0.2001779E+00
  0.6401380E+01  0.1545430E+02  0.0000000E+00  0.1976110E+00  0.1948045E+01  0.7279275E-01 -0.1837153E+00
  0.4855770E+01  0.1600730E+02  0.0000000E+00  0.1688312E+00  0.1956029E+01  0.6344251E-01 -0.1564578E+00
  0.3263390E+01  0.1640620E+02  0.0000000E+00  0.1188383E+00  0.2010370E+01  0.5057211E-01 -0.1075407E+00
  0.1639590E+01  0.1664710E+02  0.0000000E+00  0.4701934E-01  0.2372405E+01  0.3378225E-01 -0.3270441E-01
 -0.7311870E-06  0.1672760E+02  0.0000000E+00  0.4854730E-01 -0.1939813E+01  0.1751094E-01  0.4527922E-01
 -0.1639590E+01  0.1664710E+02  0.0000000E+00  0.1234730E+00 -0.1592962E+01  0.2736602E-02  0.1234427E+00
 -0.3263390E+01  0.1640620E+02  0.0000000E+00  0.1990294E+00 -0.1516780E+01 -0.1074565E-01  0.1987391E+00
 -0.4855770E+01  0.1600730E+02  0.0000000E+00  0.2490623E+00 -0.1482169E+01 -0.2204489E-01  0.2480848E+00
 -0.6401380E+01  0.1545430E+02  0.0000000E+00  0.2774476E+00 -0.1456821E+01 -0.3155386E-01  0.2756475E+00
 -0.7885340E+01  0.1475240E+02  0.0000000E+00  0.2950534E+00 -0.1435200E+01 -0.3988561E-01  0.2923451E+00
 -0.9293360E+01  0.1390850E+02  0.0000000E+00  0.3103623E+00 -0.1416172E+01 -0.4779860E-01  0.3066595E+00
 -0.1061190E+02  0.1293060E+02  0.0000000E+00  0.3196312E+00 -0.1398602E+01 -0.5476722E-01  0.3149042E+00
 -0.1182820E+02  0.1182820E+02  0.0000000E+00  0.3270877E+00 -0.1383090E+01 -0.6103646E-01  0.3213424E+00
 -0.1293060E+02  0.1061190E+02  0.0000000E+00  0.3340389E+00 -0.1369878E+01 -0.6666381E-01  0.3273193E+00
 -0.1390850E+02  0.9293360E+01  0.0000000E+00  0.3357050E+00 -0.1356924E+01 -0.7125182E-01  0.3280565E+00
 -0.1475240E+02  0.7885330E+01  0.0000000E+00  0.3377618E+00 -0.1345983E+01 -0.7529546E-01  0.3292622E+00
 -0.1545430E+02  0.6401370E+01  0.0000000E+00  0.3411476E+00 -0.1337714E+01 -0.7879730E-01  0.3319227E+00
 -0.1600730E+02  0.4855770E+01  0.0000000E+00  0.3447101E+00 -0.1331856E+01 -0.8158362E-01  0.3349166E+00
 -0.1640620E+02  0.3263390E+01  0.0000000E+00  0.3481831E+00 -0.1328216E+01 -0.8363643E-01  0.3379888E+00
 -0.1664710E+02  0.1639590E+01  0.0000000E+00  0.3503540E+00 -0.1326068E+01 -0.8488824E-01  0.3399146E+00
 -0.1672760E+02 -0.1462370E-05  0.0000000E+00  0.3511279E+00 -0.1325384E+01 -0.8530888E-01  0.3406071E+00
 -0.1664710E+02 -0.1639590E+01  0.0000000E+00  0.3503539E+00 -0.1326068E+01 -0.8488814E-01  0.3399144E+00
 -0.1640620E+02 -0.3263400E+01  0.0000000E+00  0.3481828E+00 -0.1328217E+01 -0.8363604E-01  0.3379886E+00
 -0.1600730E+02 -0.4855770E+01  0.0000000E+00  0.3447104E+00 -0.1331855E+01 -0.8158416E-01  0.3349168E+00
 -0.1545430E+02 -0.6401380E+01  0.0000000E+00  0.3411471E+00 -0.1337715E+01 -0.7879716E-01  0.3319222E+00
 -0.1475240E+02 -0.7885340E+01  0.0000000E+00  0.3377616E+00 -0.1345982E+01 -0.7529550E-01  0.3292620E+00
 -0.1390850E+02 -0.9293360E+01  0.0000000E+00  0.3357050E+00 -0.1356926E+01 -0.7125118E-01  0.3280566E+00
 -0.1293060E+02 -0.1061190E+02  0.0000000E+00  0.3340389E+00 -0.1369880E+01 -0.6666328E-01  0.3273194E+00
 -0.1182820E+02 -0.1182820E+02  0.0000000E+00  0.3270878E+00 -0.1383090E+01 -0.6103663E-01  0.3213424E+00
 -0.1061190E+02 -0.1293060E+02  0.0000000E+00  0.3196313E+00 -0.1398600E+01 -0.5476769E-01  0.3149042E+00
 -0.9293350E+01 -0.1390850E+02  0.0000000E+00  0.3103625E+00 -0.1416173E+01 -0.4779821E-01  0.3066597E+00
 -0.7885340E+01 -0.1475240E+02  0.0000000E+00  0.2950534E+00 -0.1435202E+01 -0.3988506E-01  0.2923451E+00
 -0.6401370E+01 -0.1545430E+02  0.0000000E+00  0.2774474E+00 -0.1456820E+01 -0.3155395E-01  0.2756473E+00
 -0.4855760E+01 -0.1600730E+02  0.0000000E+00  0.2490619E+00 -0.1482172E+01 -0.2204413E-01  0.2480845E+00
 -0.3263390E+01 -0.1640620E+02  0.0000000E+00  0.1990299E+00 -0.1516776E+01 -0.1074640E-01  0.1987396E+00
 -0.1639590E+01 -0.1664710E+02  0.0000000E+00  0.1234730E+00 -0.1592960E+01  0.2736421E-02  0.1234427E+00
  0.1994750E-06 -0.1672760E+02  0.0000000E+00  0.4854710E-01 -0.1939826E+01  0.1751147E-01  0.4527879E-01
  0.1639600E+01 -0.1664710E+02  0.0000000E+00  0.4702041E-01  0.2372404E+01  0.3378299E-01 -0.3270518E-01
  0.3263390E+01 -0.1640620E+02  0.0000000E+00  0.1188384E+00  0.2010370E+01  0.5057217E-01 -0.1075408E+00
  0.4855770E+01 -0.1600730E+02  0.0000000E+00  0.1688306E+00  0.1956031E+01  0.6344253E-01 -0.1564571E+00
  0.6401380E+01 -0.1545430E+02  0.0000000E+00  0.1976113E+00  0.1948051E+01  0.7279398E-01 -0.1837151E+00
  0.7885340E+01 -0.1475240E+02  0.0000000E+00  0.2157041E+00  0.1952534E+01  0.8035708E-01 -0.2001774E+00
  0.9293360E+01 -0.1390850E+02  0.0000000E+00  0.2313565E+00  0.1957099E+01  0.8716734E-01 -0.2143075E+00
  0.1061190E+02 -0.1293060E+02  0.0000000E+00  0.2409966E+00  0.1966174E+01  0.9282149E-01 -0.2224040E+00
  0.1182820E+02 -0.1182820E+02  0.0000000E+00  0.2488036E+00  0.1975363E+01  0.9793425E-01 -0.2287185E+00
  0.1293060E+02 -0.1061190E+02  0.0000000E+00  0.2560744E+00  0.1983375E+01  0.1026789E+00 -0.2345872E+00
  0.1390850E+02 -0.9293360E+01  0.0000000E+00  0.2581400E+00  0.1995186E+01  0.1062929E+00 -0.2352404E+00
  0.1475240E+02 -0.7885330E+01  0.0000000E+00  0.2604489E+00  0.2004114E+01  0.1093585E+00 -0.2363776E+00
  0.1545430E+02 -0.6401380E+01  0.0000000E+00  0.2639424E+00  0.2009194E+01  0.1120406E+00 -0.2389822E+00
  0.1600730E+02 -0.4855760E+01  0.0000000E+00  0.2675604E+00  0.2012073E+01  0.1142735E+00 -0.2419301E+00
  0.1640620E+02 -0.3263390E+01  0.0000000E+00  0.2710430E+00  0.2013045E+01  0.1159991E+00 -0.2449664E+00
  0.1664710E+02 -0.1639590E+01  0.0000000E+00  0.2732114E+00  0.2013514E+01  0.1170429E+00 -0.2468712E+00
  0.1672760E+02  0.0000000E+00 -0.2568960E-01  0.2737333E+00  0.2013608E+01  0.1172898E+00 -0.2473318E+00
  0.1664710E+02  0.1639590E+01 -0.2568960E-01  0.2729642E+00  0.2013511E+01  0.1169363E+00 -0.2466483E+00
  0.1640620E+02  0.3263390E+01 -0.2568960E-01  0.2708047E+00  0.2013041E+01  0.1158960E+00 -0.2447515E+00
  0.1600730E+02  0.4855770E+01 -0.2568960E-01  0.2673327E+00  0.2012056E+01  0.1141721E+00 -0.2417261E+00
  0.1545430E+02  0.6401380E+01 -0.2568960E-01  0.2637243E+00  0.2009175E+01  0.1119437E+00 -0.2387868E+00
  0.1475240E+02  0.7885340E+01 -0.2568960E-01  0.2602332E+00  0.2004093E+01  0.1092628E+00 -0.2361842E+00
  0.1390850E+02  0.9293360E+01 -0.2568960E-01  0.2579128E+00  0.1995174E+01  0.1061966E+00 -0.2350346E+00
  0.1293060E+02  0.1061190E+02 -0.2568960E-01  0.2558332E+00  0.1983393E+01  0.1025864E+00 -0.2343644E+00
  0.1182820E+02  0.1182820E+02 -0.2568960E-01  0.2485853E+00  0.1975367E+01  0.9784921E-01 -0.2285174E+00
  0.1061190E+02  0.1293060E+02 -0.2568960E-01  0.2407853E+00  0.1966182E+01  0.9274179E-01 -0.2222083E+00
  0.9293360E+01  0.1390850E+02 -0.2568960E-01  0.2311440E+00  0.1957102E+01  0.8708796E-01 -0.2141103E+00
  0.7885330E+01  0.1475240E+02 -0.2568960E-01  0.2155311E+00  0.1952509E+01  0.8028749E-01 -0.2000189E+00
  0.6401380E+01  0.1545430E+02 -0.2568960E-01  0.1974411E+00  0.1948050E+01  0.7273110E-01 -0.1835570E+00
  0.4855770E+01  0.1600730E+02 -0.2568960E-01  0.1686811E+00  0.1956039E+01  0.6338764E-01 -0.1563180E+00
  0.3263390E+01  0.1640620E+02 -0.2568960E-01  0.1187479E+00  0.2010339E+01  0.5053034E-01 -0.1074605E+00
  0.1639590E+01  0.1664710E+02 -0.2568960E-01  0.4699981E-01  0.2372138E+01  0.3375951E-01 -0.3269981E-01
 -0.7311870E-06  0.1672760E+02 -0.2568960E-01  0.4850454E-01 -0.1939906E+01  0.1749973E-01  0.4523771E-01
 -0.1639590E+01  0.1664710E+02 -0.2568960E-01  0.1233859E+00 -0.1592959E+01  0.2734290E-02  0.1233556E+00
 -0.3263390E+01  0.1640620E+02 -0.2568960E-01  0.1988652E+00 -0.1516796E+01 -0.1073355E-01  0.1985754E+00
 -0.4855770E+01  0.1600730E+02 -0.2568960E-01  0.2488379E+00 -0.1482184E+01 -0.2202137E-01  0.2478615E+00
 -0.6401380E+01  0.1545430E+02 -0.2568960E-01  0.2772040E+00 -0.1456834E+01 -0.3152251E-01  0.2754059E+00
 -0.7885340E+01  0.1475240E+02 -0.2568960E-01  0.2948072E+00 -0.1435213E+01 -0.3984850E-01  0.2921016E+00
 -0.9293360E+01  0.1390850E+02 -0.2568960E-01  0.3100770E+00 -0.1416180E+01 -0.4775226E-01  0.3063780E+00
 -0.1061190E+02  0.1293060E+02 -0.2568960E-01  0.3193469E+00 -0.1398611E+01 -0.5471567E-01  0.3146246E+00
 -0.1182820E+02  0.1182820E+02 -0.2568960E-01  0.3267969E+00 -0.1383103E+01 -0.6097791E-01  0.3210574E+00
 -0.1293060E+02  0.1061190E+02 -0.2568960E-01  0.3337249E+00 -0.1369884E+01 -0.6659936E-01  0.3270119E+00
 -0.1390850E+02  0.9293360E+01 -0.2568960E-01  0.3354080E+00 -0.1356933E+01 -0.7118595E-01  0.3277668E+00
 -0.1475240E+02  0.7885330E+01 -0.2568960E-01  0.3374753E+00 -0.1345994E+01 -0.7522789E-01  0.3289838E+00
 -0.1545430E+02  0.6401370E+01 -0.2568960E-01  0.3408583E+00 -0.1337729E+01 -0.7872572E-01  0.3316423E+00
 -0.1600730E+02  0.4855770E+01 -0.2568960E-01  0.3444127E+00 -0.1331873E+01 -0.8150744E-01  0.3346291E+00
 -0.1640620E+02  0.3263390E+01 -0.2568960E-01  0.3478740E+00 -0.1328221E+01 -0.8356061E-01  0.3376891E+00
 -0.1664710E+02  0.1639590E+01 -0.2568960E-01  0.3500361E+00 -0.1326078E+01 -0.8480781E-01  0.3396069E+00
 -0.1672760E+02 -0.1462370E-05 -0.2568960E-01  0.3508072E+00 -0.1325388E+01 -0.8522961E-01  0.3402964E+00
 -0.1664710E+02 -0.1639590E+01 -0.2568960E-01  0.3500359E+00 -0.1326080E+01 -0.8480694E-01  0.3396070E+00
 -0.1640620E+02 -0.3263400E+01 -0.2568960E-01  0.3478739E+00 -0.1328223E+01 -0.8355992E-01  0.3376892E+00
 -0.1600730E+02 -0.4855770E+01 -0.2568960E-01  0.3444127E+00 -0.1331872E+01 -0.8150791E-01  0.3346290E+00
 -0.1545430E+02 -0.6401380E+01 -0.2568960E-01  0.3408580E+00 -0.1337731E+01 -0.7872478E-01  0.3316423E+00
 -0.1475240E+02 -0.7885340E+01 -0.2568960E-01  0.3374756E+00 -0.1345995E+01 -0.7522748E-01  0.3289842E+00
 -0.1390850E+02 -0.9293360E+01 -0.2568960E-01  0.3354077E+00 -0.1356933E+01 -0.7118583E-01  0.3277665E+00
 -0.1293060E+02 -0.1061190E+02 -0.2568960E-01  0.3337249E+00 -0.1369883E+01 -0.6659967E-01  0.3270120E+00
 -0.1182820E+02 -0.1182820E+02 -0.2568960E-01  0.3267971E+00 -0.1383102E+01 -0.6097858E-01  0.3210576E+00
 -0.1061190E+02 -0.1293060E+02 -0.2568960E-01  0.3193473E+00 -0.1398609E+01 -0.5471614E-01  0.3146249E+00
 -0.9293350E+01 -0.1390850E+02 -0.2568960E-01  0.3100770E+00 -0.1416180E+01 -0.4775231E-01  0.3063780E+00
 -0.7885340E+01 -0.1475240E+02 -0.2568960E-01  0.2948076E+00 -0.1435213E+01 -0.3984857E-01  0.2921020E+00
 -0.6401370E+01 -0.1545430E+02 -0.2568960E-01  0.2772040E+00 -0.1456834E+01 -0.3152248E-01  0.2754059E+00
 -0.4855760E+01 -0.1600730E+02 -0.2568960E-01  0.2488382E+00 -0.1482185E+01 -0.2202114E-01  0.2478619E+00
 -0.3263390E+01 -0.1640620E+02 -0.2568960E-01  0.1988651E+00 -0.1516797E+01 -0.1073337E-01  0.1985753E+00
 -0.1639590E+01 -0.1664710E+02 -0.2568960E-01  0.1233861E+00 -0.1592959E+01  0.2734306E-02  0.1233558E+00
  0.1994750E-06 -0.1672760E+02 -0.2568960E-01  0.4850513E-01 -0.1939909E+01  0.1750008E-01  0.4523820E-01
  0.1639600E+01 -0.1664710E+02 -0.2568960E-01  0.4699975E-01  0.2372152E+01  0.3375992E-01 -0.3269930E-01
  0.3263390E+01 -0.1640620E+02 -0.2568960E-01  0.1187480E+00  0.2010340E+01  0.5053046E-01 -0.1074605E+00
  0.4855770E+01 -0.1600730E+02 -0.2568960E-01  0.1686814E+00  0.1956039E+01  0.6338774E-01 -0.1563182E+00
  0.6401380E+01 -0.1545430E+02 -0.2568960E-01  0.1974412E+00  0.1948049E+01  0.7273093E-01 -0.1835572E+00
  0.7885340E+01 -0.1475240E+02 -0.2568960E-01  0.2155314E+00  0.1952510E+01  0.8028784E-01 -0.2000192E+00
  0.9293360E+01 -0.1390850E+02 -0.2568960E-01  0.2311442E+00  0.1957103E+01  0.8708825E-01 -0.2141104E+00
  0.1061190E+02 -0.1293060E+02 -0.2568960E-01  0.2407855E+00  0.1966183E+01  0.9274212E-01 -0.2222083E+00
  0.1182820E+02 -0.1182820E+02 -0.2568960E-01  0.2485861E+00  0.1975369E+01  0.9784991E-01 -0.2285180E+00
  0.1293060E+02 -0.1061190E+02 -0.2568960E-01  0.2558331E+00  0.1983393E+01  0.1025863E+00 -0.2343643E+00
  0.1390850E+02 -0.9293360E+01 -0.2568960E-01  0.2579128E+00  0.1995176E+01  0.1061972E+00 -0.2350345E+00
  0.1475240E+02 -0.7885330E+01 -0.2568960E-01  0.2602333E+00  0.2004093E+01  0.1092628E+00 -0.2361843E+00
  0.1545430E+02 -0.6401380E+01 -0.2568960E-01  0.2637247E+00  0.2009177E+01  0.1119443E+00 -0.2387869E+00
  0.1600730E+02 -0.4855760E+01 -0.2568960E-01  0.2673329E+00  0.2012056E+01  0.1141723E+00 -0.2417262E+00
  0.1640620E+02 -0.3263390E+01 -0.2568960E-01  0.2708051E+00  0.2013044E+01  0.1158970E+00 -0.2447515E+00
  0.1664710E+02 -0.1639590E+01 -0.2568960E-01  0.2729644E+00  0.2013511E+01  0.1169363E+00 -0.2466484E+00
  0.1672760E+02  0.0000000E+00 -0.1027320E+00  0.2730097E+00  0.2013585E+01  0.1169741E+00 -0.2466808E+00
  0.1664710E+02  0.1639590E+01 -0.1027320E+00  0.2722505E+00  0.2013483E+01  0.1166236E+00 -0.2460066E+00
  0.1640620E+02  0.3263390E+01 -0.1027320E+00  0.2701129E+00  0.2012989E+01  0.1155874E+00 -0.2441322E+00
  0.1600730E+02  0.4855770E+01 -0.1027320E+00  0.2666774E+00  0.2011974E+01  0.1138724E+00 -0.2411430E+00
  0.1545430E+02  0.6401380E+01 -0.1027320E+00  0.2630920E+00  0.2009076E+01  0.1116515E+00 -0.2382254E+00
  0.1475240E+02  0.7885340E+01 -0.1027320E+00  0.2596077E+00  0.2003999E+01  0.1089781E+00 -0.2356267E+00
  0.1390850E+02  0.9293360E+01 -0.1027320E+00  0.2572558E+00  0.1995134E+01  0.1059167E+00 -0.2344402E+00
  0.1293060E+02  0.1061190E+02 -0.1027320E+00  0.2551267E+00  0.1983414E+01  0.1023080E+00 -0.2337151E+00
  0.1182820E+02  0.1182820E+02 -0.1027320E+00  0.2479458E+00  0.1975341E+01  0.9759151E-01 -0.2279320E+00
  0.1061190E+02  0.1293060E+02 -0.1027320E+00  0.2401640E+00  0.1966164E+01  0.9249867E-01 -0.2216365E+00
  0.9293360E+01  0.1390850E+02 -0.1027320E+00  0.2305195E+00  0.1957122E+01  0.8685682E-01 -0.2135301E+00
  0.7885330E+01  0.1475240E+02 -0.1027320E+00  0.2150192E+00  0.1952447E+01  0.8008447E-01 -0.1995488E+00
  0.6401380E+01  0.1545430E+02 -0.1027320E+00  0.1969360E+00  0.1948046E+01  0.7254434E-01 -0.1830877E+00
  0.4855770E+01  0.1600730E+02 -0.1027320E+00  0.1682304E+00  0.1956061E+01  0.6322169E-01 -0.1558989E+00
  0.3263390E+01  0.1640620E+02 -0.1027320E+00  0.1184933E+00  0.2010251E+01  0.5041247E-01 -0.1072345E+00
  0.1639590E+01  0.1664710E+02 -0.1027320E+00  0.4693034E-01  0.2371362E+01  0.3368425E-01 -0.3267764E-01
 -0.7311870E-06  0.1672760E+02 -0.1027320E+00  0.4837552E-01 -0.1940085E+01  0.1746124E-01  0.4511426E-01
 -0.1639590E+01  0.1664710E+02 -0.1027320E+00  0.1231164E+00 -0.1592972E+01  0.2729919E-02  0.1230861E+00
 -0.3263390E+01  0.1640620E+02 -0.1027320E+00  0.1983900E+00 -0.1516831E+01 -0.1070095E-01  0.1981012E+00
 -0.4855770E+01  0.1600730E+02 -0.1027320E+00  0.2481655E+00 -0.1482217E+01 -0.2195351E-01  0.2471925E+00
 -0.6401380E+01  0.1545430E+02 -0.1027320E+00  0.2764775E+00 -0.1456871E+01 -0.3142959E-01  0.2746853E+00
 -0.7885340E+01  0.1475240E+02 -0.1027320E+00  0.2940778E+00 -0.1435252E+01 -0.3973876E-01  0.2913805E+00
 -0.9293360E+01  0.1390850E+02 -0.1027320E+00  0.3092350E+00 -0.1416199E+01 -0.4761661E-01  0.3055469E+00
 -0.1061190E+02  0.1293060E+02 -0.1027320E+00  0.3185094E+00 -0.1398644E+01 -0.5456165E-01  0.3138013E+00
 -0.1182820E+02  0.1182820E+02 -0.1027320E+00  0.3259422E+00 -0.1383136E+01 -0.6080803E-01  0.3202198E+00
 -0.1293060E+02  0.1061190E+02 -0.1027320E+00  0.3328048E+00 -0.1369890E+01 -0.6641373E-01  0.3261108E+00
 -0.1390850E+02  0.9293360E+01 -0.1027320E+00  0.3345388E+00 -0.1356965E+01 -0.7099100E-01  0.3269197E+00
 -0.1475240E+02  0.7885330E+01 -0.1027320E+00  0.3366412E+00 -0.1346043E+01 -0.7502571E-01  0.3281744E+00
 -0.1545430E+02  0.6401370E+01 -0.1027320E+00  0.3400180E+00 -0.1337781E+01 -0.7851429E-01  0.3308288E+00
 -0.1600730E+02  0.4855770E+01 -0.1027320E+00  0.3435479E+00 -0.1331919E+01 -0.8128744E-01  0.3337926E+00
 -0.1640620E+02  0.3263390E+01 -0.1027320E+00  0.3469725E+00 -0.1328257E+01 -0.8333179E-01  0.3368170E+00
 -0.1664710E+02  0.1639590E+01 -0.1027320E+00  0.3491111E+00 -0.1326103E+01 -0.8457512E-01  0.3387116E+00
 -0.1672760E+02 -0.1462370E-05 -0.1027320E+00  0.3498740E+00 -0.1325409E+01 -0.8499566E-01  0.3393929E+00
 -0.1664710E+02 -0.1639590E+01 -0.1027320E+00  0.3491111E+00 -0.1326102E+01 -0.8457556E-01  0.3387116E+00
 -0.1640620E+02 -0.3263400E+01 -0.1027320E+00  0.3469723E+00 -0.1328258E+01 -0.8333135E-01  0.3368169E+00
 -0.1600730E+02 -0.4855770E+01 -0.1027320E+00  0.3435477E+00 -0.1331921E+01 -0.8128682E-01  0.3337926E+00
 -0.1545430E+02 -0.6401380E+01 -0.1027320E+00  0.3400179E+00 -0.1337781E+01 -0.7851436E-01  0.3308288E+00
 -0.1475240E+02 -0.7885340E+01 -0.1027320E+00  0.3366409E+00 -0.1346044E+01 -0.7502547E-01  0.3281741E+00
 -0.1390850E+02 -0.9293360E+01 -0.1027320E+00  0.3345386E+00 -0.1356966E+01 -0.7099053E-01  0.3269196E+00
 -0.1293060E+02 -0.1061190E+02 -0.1027320E+00  0.3328052E+00 -0.1369888E+01 -0.6641427E-01  0.3261110E+00
 -0.1182820E+02 -0.1182820E+02 -0.1027320E+00  0.3259422E+00 -0.1383136E+01 -0.6080801E-01  0.3202198E+00
 -0.1061190E+02 -0.1293060E+02 -0.1027320E+00  0.3185093E+00 -0.1398646E+01 -0.5456105E-01  0.3138013E+00
 -0.9293350E+01 -0.1390850E+02 -0.1027320E+00  0.3092352E+00 -0.1416201E+01 -0.4761596E-01  0.3055473E+00
 -0.7885340E+01 -0.1475240E+02 -0.1027320E+00  0.2940781E+00 -0.1435251E+01 -0.3973901E-01  0.2913808E+00
 -0.6401370E+01 -0.1545430E+02 -0.1027320E+00  0.2764775E+00 -0.1456869E+01 -0.3143039E-01  0.2746852E+00
 -0.4855760E+01 -0.1600730E+02 -0.1027320E+00  0.2481657E+00 -0.1482217E+01 -0.2195369E-01  0.2471927E+00
 -0.3263390E+01 -0.1640620E+02 -0.1027320E+00  0.1983900E+00 -0.1516838E+01 -0.1069958E-01  0.1981013E+00
 -0.1639590E+01 -0.1664710E+02 -0.1027320E+00  0.1231164E+00 -0.1592966E+01  0.2729231E-02  0.1230861E+00
  0.1994750E-06 -0.1672760E+02 -0.1027320E+00  0.4837577E-01 -0.1940099E+01  0.1746196E-01  0.4511425E-01
  0.1639600E+01 -0.1664710E+02 -0.1027320E+00  0.4693124E-01  0.2371358E+01  0.3368478E-01 -0.3267839E-01
  0.3263390E+01 -0.1640620E+02 -0.1027320E+00  0.1184939E+00  0.2010247E+01  0.5041225E-01 -0.1072352E+00
  0.4855770E+01 -0.1600730E+02 -0.1027320E+00  0.1682303E+00  0.1956058E+01  0.6322129E-01 -0.1558990E+00
  0.6401380E+01 -0.1545430E+02 -0.1027320E+00  0.1969355E+00  0.1948043E+01  0.7254369E-01 -0.1830875E+00
  0.7885340E+01 -0.1475240E+02 -0.1027320E+00  0.2150190E+00  0.1952449E+01  0.8008493E-01 -0.1995485E+00
  0.9293360E+01 -0.1390850E+02 -0.1027320E+00  0.2305196E+00  0.1957124E+01  0.8685734E-01 -0.2135301E+00
  0.1061190E+02 -0.1293060E+02 -0.1027320E+00  0.2401641E+00  0.1966165E+01  0.9249891E-01 -0.2216365E+00
  0.1182820E+02 -0.1182820E+02 -0.1027320E+00  0.2479457E+00  0.1975342E+01  0.9759166E-01 -0.2279319E+00
  0.1293060E+02 -0.1061190E+02 -0.1027320E+00  0.2551262E+00  0.1983412E+01  0.1023073E+00 -0.2337148E+00
  0.1390850E+02 -0.9293360E+01 -0.1027320E+00  0.2572558E+00  0.1995131E+01  0.1059161E+00 -0.2344405E+00
