 VARIABLES="X" "Y" "Z" "abs(eta) (m)" "angle(phi) (rad)" "PRE1" "PRE2"
ZONE N=   3200 ,E =    3136 ,F=FEPOINT,ET=QUADRILATERAL
  0.1530690E+02  0.0000000E+00  0.0000000E+00  0.5513164E+00 -0.9494734E+00 -0.3209275E+00  0.4482804E+00
  0.1523320E+02  0.1500340E+01  0.0000000E+00  0.5502262E+00 -0.9458439E+00 -0.3219146E+00  0.4462285E+00
  0.1501280E+02  0.2986230E+01  0.0000000E+00  0.5496075E+00 -0.9461928E+00 -0.3213971E+00  0.4458389E+00
  0.1464780E+02  0.4443360E+01  0.0000000E+00  0.5492637E+00 -0.9502304E+00 -0.3193945E+00  0.4468533E+00
  0.1414170E+02  0.5857700E+01  0.0000000E+00  0.5476694E+00 -0.9570203E+00 -0.3154347E+00  0.4477082E+00
  0.1349950E+02  0.7215620E+01  0.0000000E+00  0.5409423E+00 -0.9649802E+00 -0.3080305E+00  0.4446749E+00
  0.1272720E+02  0.8504060E+01  0.0000000E+00  0.5301760E+00 -0.9751041E+00 -0.2974721E+00  0.4388586E+00
  0.1183240E+02  0.9710600E+01  0.0000000E+00  0.5178085E+00 -0.9881184E+00 -0.2849303E+00  0.4323660E+00
  0.1082360E+02  0.1082360E+02  0.0000000E+00  0.5059927E+00 -0.1004363E+01 -0.2715288E+00  0.4269668E+00
  0.9710590E+01  0.1183240E+02  0.0000000E+00  0.4911729E+00 -0.1023074E+01 -0.2557755E+00  0.4193206E+00
  0.8504060E+01  0.1272720E+02  0.0000000E+00  0.4703728E+00 -0.1043468E+01 -0.2367042E+00  0.4064747E+00
  0.7215620E+01  0.1349950E+02  0.0000000E+00  0.4516483E+00 -0.1067000E+01 -0.2180348E+00  0.3955338E+00
  0.5857700E+01  0.1414170E+02  0.0000000E+00  0.4208268E+00 -0.1093217E+01 -0.1934249E+00  0.3737406E+00
  0.4443360E+01  0.1464780E+02  0.0000000E+00  0.3798052E+00 -0.1122949E+01 -0.1644656E+00  0.3423494E+00
  0.2986230E+01  0.1501280E+02  0.0000000E+00  0.3064843E+00 -0.1160606E+01 -0.1222209E+00  0.2810599E+00
  0.1500340E+01  0.1523320E+02  0.0000000E+00  0.8035302E-01 -0.1471662E+01 -0.7952735E-02  0.7995851E-01
 -0.6690860E-06  0.1530690E+02  0.0000000E+00  0.7941108E-01  0.2673535E+01  0.7087011E-01 -0.3582663E-01
 -0.1500340E+01  0.1523320E+02  0.0000000E+00  0.1948235E+00  0.2396649E+01  0.1432198E+00 -0.1320768E+00
 -0.2986230E+01  0.1501280E+02  0.0000000E+00  0.3370403E+00  0.2317583E+01  0.2289461E+00 -0.2473456E+00
 -0.4443360E+01  0.1464780E+02  0.0000000E+00  0.3737590E+00  0.2318473E+01  0.2541326E+00 -0.2740665E+00
 -0.5857700E+01  0.1414170E+02  0.0000000E+00  0.3956534E+00  0.2326642E+01  0.2713804E+00 -0.2879137E+00
 -0.7215620E+01  0.1349950E+02  0.0000000E+00  0.4122356E+00  0.2337628E+01  0.2860327E+00 -0.2968560E+00
 -0.8504060E+01  0.1272720E+02  0.0000000E+00  0.4199431E+00  0.2352562E+01  0.2958641E+00 -0.2980212E+00
 -0.9710590E+01  0.1183240E+02  0.0000000E+00  0.4307066E+00  0.2363611E+01  0.3068059E+00 -0.3022885E+00
 -0.1082360E+02  0.1082360E+02  0.0000000E+00  0.4374316E+00  0.2374837E+01  0.3150232E+00 -0.3034910E+00
 -0.1183240E+02  0.9710590E+01  0.0000000E+00  0.4418260E+00  0.2385415E+01  0.3214126E+00 -0.3031570E+00
 -0.1272720E+02  0.8504060E+01  0.0000000E+00  0.4465103E+00  0.2393606E+01  0.3273188E+00 -0.3037001E+00
 -0.1349950E+02  0.7215620E+01  0.0000000E+00  0.4502013E+00  0.2399566E+01  0.3318435E+00 -0.3042385E+00
 -0.1414170E+02  0.5857690E+01  0.0000000E+00  0.4507128E+00  0.2404554E+01  0.3337357E+00 -0.3029232E+00
 -0.1464780E+02  0.4443360E+01  0.0000000E+00  0.4468061E+00  0.2410378E+01  0.3325862E+00 -0.2983658E+00
 -0.1501280E+02  0.2986230E+01  0.0000000E+00  0.4417369E+00  0.2414045E+01  0.3298924E+00 -0.2937729E+00
 -0.1523320E+02  0.1500340E+01  0.0000000E+00  0.4367041E+00  0.2414204E+01  0.3261800E+00 -0.2903740E+00
 -0.1530690E+02 -0.1338170E-05  0.0000000E+00  0.4318613E+00  0.2410506E+01  0.3214989E+00 -0.2883446E+00
 -0.1523320E+02 -0.1500340E+01  0.0000000E+00  0.4263682E+00  0.2403621E+01  0.3154420E+00 -0.2868557E+00
 -0.1501280E+02 -0.2986230E+01  0.0000000E+00  0.4209142E+00  0.2391386E+01  0.3079188E+00 -0.2869751E+00
 -0.1464780E+02 -0.4443360E+01  0.0000000E+00  0.4153216E+00  0.2373936E+01  0.2988404E+00 -0.2884206E+00
 -0.1414170E+02 -0.5857700E+01  0.0000000E+00  0.4084771E+00  0.2353395E+01  0.2880273E+00 -0.2896443E+00
 -0.1349950E+02 -0.7215620E+01  0.0000000E+00  0.3974747E+00  0.2334950E+01  0.2750233E+00 -0.2869641E+00
 -0.1272720E+02 -0.8504060E+01  0.0000000E+00  0.3835923E+00  0.2317461E+01  0.2605338E+00 -0.2815407E+00
 -0.1183240E+02 -0.9710600E+01  0.0000000E+00  0.3685569E+00  0.2297482E+01  0.2448679E+00 -0.2754521E+00
 -0.1082360E+02 -0.1082360E+02  0.0000000E+00  0.3536819E+00  0.2271263E+01  0.2279743E+00 -0.2704045E+00
 -0.9710600E+01 -0.1183240E+02  0.0000000E+00  0.3364208E+00  0.2243595E+01  0.2096499E+00 -0.2631081E+00
 -0.8504050E+01 -0.1272720E+02  0.0000000E+00  0.3142564E+00  0.2218423E+01  0.1895893E+00 -0.2506251E+00
 -0.7215620E+01 -0.1349950E+02  0.0000000E+00  0.2934720E+00  0.2183516E+01  0.1687741E+00 -0.2400857E+00
 -0.5857690E+01 -0.1414170E+02  0.0000000E+00  0.2630910E+00  0.2159394E+01  0.1460669E+00 -0.2188180E+00
 -0.4443360E+01 -0.1464780E+02  0.0000000E+00  0.2240603E+00  0.2144567E+01  0.1216207E+00 -0.1881793E+00
 -0.2986230E+01 -0.1501280E+02  0.0000000E+00  0.1596647E+00  0.2207570E+01  0.9493734E-01 -0.1283734E+00
 -0.1500340E+01 -0.1523320E+02  0.0000000E+00  0.9330009E-01 -0.2297153E+01  0.6196524E-01  0.6975110E-01
  0.1825330E-06 -0.1530690E+02  0.0000000E+00  0.1878431E+00 -0.1731295E+01  0.3001933E-01  0.1854289E+00
  0.1500340E+01 -0.1523320E+02  0.0000000E+00  0.2833590E+00 -0.1546525E+01 -0.6876948E-02  0.2832755E+00
  0.2986230E+01 -0.1501280E+02  0.0000000E+00  0.4079591E+00 -0.1417919E+01 -0.6212493E-01  0.4032011E+00
  0.4443360E+01 -0.1464780E+02  0.0000000E+00  0.4440809E+00 -0.1338911E+01 -0.1020553E+00  0.4321950E+00
  0.5857700E+01 -0.1414170E+02  0.0000000E+00  0.4672649E+00 -0.1278090E+01 -0.1348269E+00  0.4473904E+00
  0.7215620E+01 -0.1349950E+02  0.0000000E+00  0.4857700E+00 -0.1226853E+01 -0.1638027E+00  0.4573195E+00
  0.8504060E+01 -0.1272720E+02  0.0000000E+00  0.4967162E+00 -0.1179590E+01 -0.1894000E+00  0.4591891E+00
  0.9710600E+01 -0.1183240E+02  0.0000000E+00  0.5105342E+00 -0.1140252E+01 -0.2130792E+00  0.4639423E+00
  0.1082360E+02 -0.1082360E+02  0.0000000E+00  0.5209470E+00 -0.1104803E+01 -0.2340669E+00  0.4654015E+00
  0.1183240E+02 -0.9710590E+01  0.0000000E+00  0.5293893E+00 -0.1073099E+01 -0.2527324E+00  0.4651659E+00
  0.1272720E+02 -0.8504060E+01  0.0000000E+00  0.5380120E+00 -0.1046251E+01 -0.2694468E+00  0.4656773E+00
  0.1349950E+02 -0.7215620E+01  0.0000000E+00  0.5458122E+00 -0.1023369E+01 -0.2840909E+00  0.4660508E+00
  0.1414170E+02 -0.5857700E+01  0.0000000E+00  0.5510066E+00 -0.1002864E+01 -0.2963812E+00  0.4645066E+00
  0.1464780E+02 -0.4443350E+01  0.0000000E+00  0.5520773E+00 -0.9837472E+00 -0.3057992E+00  0.4596479E+00
  0.1501280E+02 -0.2986230E+01  0.0000000E+00  0.5519378E+00 -0.9680627E+00 -0.3128916E+00  0.4546803E+00
  0.1523320E+02 -0.1500330E+01  0.0000000E+00  0.5516464E+00 -0.9566142E+00 -0.3179085E+00  0.4508303E+00
  0.1530690E+02  0.0000000E+00 -0.2568960E-01  0.5505925E+00 -0.9494940E+00 -0.3204969E+00  0.4476984E+00
  0.1523320E+02  0.1500340E+01 -0.2568960E-01  0.5495040E+00 -0.9458606E+00 -0.3214847E+00  0.4456481E+00
  0.1501280E+02  0.2986230E+01 -0.2568960E-01  0.5488762E+00 -0.9462027E+00 -0.3209651E+00  0.4452488E+00
  0.1464780E+02  0.4443360E+01 -0.2568960E-01  0.5485128E+00 -0.9502317E+00 -0.3189572E+00  0.4462427E+00
  0.1414170E+02  0.5857700E+01 -0.2568960E-01  0.5468999E+00 -0.9570177E+00 -0.3149927E+00  0.4470783E+00
  0.1349950E+02  0.7215620E+01 -0.2568960E-01  0.5401915E+00 -0.9649804E+00 -0.3076029E+00  0.4440578E+00
  0.1272720E+02  0.8504060E+01 -0.2568960E-01  0.5294636E+00 -0.9751117E+00 -0.2970691E+00  0.4382712E+00
  0.1183240E+02  0.9710600E+01 -0.2568960E-01  0.5171295E+00 -0.9881315E+00 -0.2845510E+00  0.4318027E+00
  0.1082360E+02  0.1082360E+02 -0.2568960E-01  0.5053204E+00 -0.1004373E+01 -0.2711637E+00  0.4264024E+00
  0.9710590E+01  0.1183240E+02 -0.2568960E-01  0.4905175E+00 -0.1023079E+01 -0.2554320E+00  0.4187624E+00
  0.8504060E+01  0.1272720E+02 -0.2568960E-01  0.4697849E+00 -0.1043481E+01 -0.2364031E+00  0.4059698E+00
  0.7215620E+01  0.1349950E+02 -0.2568960E-01  0.4510477E+00 -0.1067009E+01 -0.2177412E+00  0.3950099E+00
  0.5857700E+01  0.1414170E+02 -0.2568960E-01  0.4202912E+00 -0.1093214E+01 -0.1931799E+00  0.3732643E+00
  0.4443360E+01  0.1464780E+02 -0.2568960E-01  0.3793135E+00 -0.1122945E+01 -0.1642541E+00  0.3419054E+00
  0.2986230E+01  0.1501280E+02 -0.2568960E-01  0.3060855E+00 -0.1160596E+01 -0.1220647E+00  0.2806929E+00
  0.1500340E+01  0.1523320E+02 -0.2568960E-01  0.8026366E-01 -0.1471593E+01 -0.7949408E-02  0.7986903E-01
 -0.6690860E-06  0.1530690E+02 -0.2568960E-01  0.7930762E-01  0.2673584E+01  0.7077955E-01 -0.3577645E-01
 -0.1500340E+01  0.1523320E+02 -0.2568960E-01  0.1946075E+00  0.2396546E+01  0.1430475E+00 -0.1319451E+00
 -0.2986230E+01  0.1501280E+02 -0.2568960E-01  0.3366340E+00  0.2317544E+01  0.2286606E+00 -0.2470562E+00
 -0.4443360E+01  0.1464780E+02 -0.2568960E-01  0.3733062E+00  0.2318435E+01  0.2538143E+00 -0.2737441E+00
 -0.5857700E+01  0.1414170E+02 -0.2568960E-01  0.3951631E+00  0.2326615E+01  0.2710364E+00 -0.2875643E+00
 -0.7215620E+01  0.1349950E+02 -0.2568960E-01  0.4116986E+00  0.2337615E+01  0.2856560E+00 -0.2964732E+00
 -0.8504060E+01  0.1272720E+02 -0.2568960E-01  0.4194269E+00  0.2352525E+01  0.2954892E+00 -0.2976660E+00
 -0.9710590E+01  0.1183240E+02 -0.2568960E-01  0.4301412E+00  0.2363593E+01  0.3063978E+00 -0.3018970E+00
 -0.1082360E+02  0.1082360E+02 -0.2568960E-01  0.4368580E+00  0.2374822E+01  0.3146056E+00 -0.3030978E+00
 -0.1183240E+02  0.9710590E+01 -0.2568960E-01  0.4412525E+00  0.2385395E+01  0.3209893E+00 -0.3027700E+00
 -0.1272720E+02  0.8504060E+01 -0.2568960E-01  0.4459154E+00  0.2393596E+01  0.3268795E+00 -0.3032991E+00
 -0.1349950E+02  0.7215620E+01 -0.2568960E-01  0.4495803E+00  0.2399571E+01  0.3313873E+00 -0.3038172E+00
 -0.1414170E+02  0.5857690E+01 -0.2568960E-01  0.4500840E+00  0.2404567E+01  0.3332741E+00 -0.3024962E+00
 -0.1464780E+02  0.4443360E+01 -0.2568960E-01  0.4461987E+00  0.2410378E+01  0.3321343E+00 -0.2979599E+00
 -0.1501280E+02  0.2986230E+01 -0.2568960E-01  0.4411533E+00  0.2414028E+01  0.3294517E+00 -0.2933902E+00
 -0.1523320E+02  0.1500340E+01 -0.2568960E-01  0.4361378E+00  0.2414176E+01  0.3257489E+00 -0.2900067E+00
 -0.1530690E+02 -0.1338170E-05 -0.2568960E-01  0.4312991E+00  0.2410468E+01  0.3210694E+00 -0.2879816E+00
 -0.1523320E+02 -0.1500340E+01 -0.2568960E-01  0.4258143E+00  0.2403584E+01  0.3150216E+00 -0.2864947E+00
 -0.1501280E+02 -0.2986230E+01 -0.2568960E-01  0.4203574E+00  0.2391362E+01  0.3075048E+00 -0.2866028E+00
 -0.1464780E+02 -0.4443360E+01 -0.2568960E-01  0.4147584E+00  0.2373939E+01  0.2984361E+00 -0.2880284E+00
 -0.1414170E+02 -0.5857700E+01 -0.2568960E-01  0.4079070E+00  0.2353423E+01  0.2876332E+00 -0.2892322E+00
 -0.1349950E+02 -0.7215620E+01 -0.2568960E-01  0.3969288E+00  0.2334970E+01  0.2746513E+00 -0.2865644E+00
 -0.1272720E+02 -0.8504060E+01 -0.2568960E-01  0.3830811E+00  0.2317446E+01  0.2601825E+00 -0.2811694E+00
 -0.1183240E+02 -0.9710600E+01 -0.2568960E-01  0.3680809E+00  0.2297445E+01  0.2445413E+00 -0.2751055E+00
 -0.1082360E+02 -0.1082360E+02 -0.2568960E-01  0.3532192E+00  0.2271243E+01  0.2276707E+00 -0.2700553E+00
 -0.9710600E+01 -0.1183240E+02 -0.2568960E-01  0.3359787E+00  0.2243581E+01  0.2093705E+00 -0.2627655E+00
 -0.8504050E+01 -0.1272720E+02 -0.2568960E-01  0.3138759E+00  0.2218352E+01  0.1893421E+00 -0.2503351E+00
 -0.7215620E+01 -0.1349950E+02 -0.2568960E-01  0.2930923E+00  0.2183503E+01  0.1685526E+00 -0.2397772E+00
 -0.5857690E+01 -0.1414170E+02 -0.2568960E-01  0.2627662E+00  0.2159337E+01  0.1458740E+00 -0.2185563E+00
 -0.4443360E+01 -0.1464780E+02 -0.2568960E-01  0.2237841E+00  0.2144542E+01  0.1214660E+00 -0.1879504E+00
 -0.2986230E+01 -0.1501280E+02 -0.2568960E-01  0.1594699E+00  0.2207553E+01  0.9481934E-01 -0.1282184E+00
 -0.1500340E+01 -0.1523320E+02 -0.2568960E-01  0.9316376E-01 -0.2297416E+01  0.6189307E-01  0.6963285E-01
  0.1825330E-06 -0.1530690E+02 -0.2568960E-01  0.1875842E+00 -0.1731323E+01  0.2998308E-01  0.1851725E+00
  0.1500340E+01 -0.1523320E+02 -0.2568960E-01  0.2830177E+00 -0.1546545E+01 -0.6862984E-02  0.2829345E+00
  0.2986230E+01 -0.1501280E+02 -0.2568960E-01  0.4074464E+00 -0.1417947E+01 -0.6203555E-01  0.4026962E+00
  0.4443360E+01 -0.1464780E+02 -0.2568960E-01  0.4435211E+00 -0.1338935E+01 -0.1019164E+00  0.4316527E+00
  0.5857700E+01 -0.1414170E+02 -0.2568960E-01  0.4666651E+00 -0.1278116E+01 -0.1346419E+00  0.4468198E+00
  0.7215620E+01 -0.1349950E+02 -0.2568960E-01  0.4851255E+00 -0.1226864E+01 -0.1635802E+00  0.4567147E+00
  0.8504060E+01 -0.1272720E+02 -0.2568960E-01  0.4960851E+00 -0.1179618E+01 -0.1891465E+00  0.4586110E+00
  0.9710600E+01 -0.1183240E+02 -0.2568960E-01  0.5098561E+00 -0.1140265E+01 -0.2127903E+00  0.4633287E+00
  0.1082360E+02 -0.1082360E+02 -0.2568960E-01  0.5202528E+00 -0.1104820E+01 -0.2337472E+00  0.4647852E+00
  0.1183240E+02 -0.9710590E+01 -0.2568960E-01  0.5286887E+00 -0.1073117E+01 -0.2523897E+00  0.4645548E+00
  0.1272720E+02 -0.8504060E+01 -0.2568960E-01  0.5372880E+00 -0.1046261E+01 -0.2690797E+00  0.4650533E+00
  0.1349950E+02 -0.7215620E+01 -0.2568960E-01  0.5450591E+00 -0.1023366E+01 -0.2837003E+00  0.4654069E+00
  0.1414170E+02 -0.5857700E+01 -0.2568960E-01  0.5502378E+00 -0.1002855E+01 -0.2959716E+00  0.4638561E+00
  0.1464780E+02 -0.4443350E+01 -0.2568960E-01  0.5513229E+00 -0.9837455E+00 -0.3053822E+00  0.4590192E+00
  0.1501280E+02 -0.2986230E+01 -0.2568960E-01  0.5511986E+00 -0.9680765E+00 -0.3124663E+00  0.4540756E+00
  0.1523320E+02 -0.1500330E+01 -0.2568960E-01  0.5509192E+00 -0.9566321E+00 -0.3174813E+00  0.4502417E+00
  0.1530690E+02  0.0000000E+00 -0.1027320E+00  0.5484738E+00 -0.9495711E+00 -0.3192293E+00  0.4460002E+00
  0.1523320E+02  0.1500340E+01 -0.1027320E+00  0.5473887E+00 -0.9459329E+00 -0.3202150E+00  0.4439557E+00
  0.1501280E+02  0.2986230E+01 -0.1027320E+00  0.5467309E+00 -0.9462571E+00 -0.3196864E+00  0.4435259E+00
  0.1464780E+02  0.4443360E+01 -0.1027320E+00  0.5463070E+00 -0.9502579E+00 -0.3176630E+00  0.4444565E+00
  0.1414170E+02  0.5857700E+01 -0.1027320E+00  0.5446364E+00 -0.9570261E+00 -0.3136853E+00  0.4452306E+00
  0.1349950E+02  0.7215620E+01 -0.1027320E+00  0.5379771E+00 -0.9650012E+00 -0.3063327E+00  0.4422439E+00
  0.1272720E+02  0.8504060E+01 -0.1027320E+00  0.5273632E+00 -0.9751485E+00 -0.2958746E+00  0.4365435E+00
  0.1183240E+02  0.9710600E+01 -0.1027320E+00  0.5151278E+00 -0.9881763E+00 -0.2834303E+00  0.4301440E+00
  0.1082360E+02  0.1082360E+02 -0.1027320E+00  0.5033333E+00 -0.1004404E+01 -0.2700844E+00  0.4247338E+00
  0.9710590E+01  0.1183240E+02 -0.1027320E+00  0.4885734E+00 -0.1023098E+01 -0.2544116E+00  0.4171076E+00
  0.8504060E+01  0.1272720E+02 -0.1027320E+00  0.4680372E+00 -0.1043515E+01 -0.2355098E+00  0.4044675E+00
  0.7215620E+01  0.1349950E+02 -0.1027320E+00  0.4492176E+00 -0.1067035E+01 -0.2168476E+00  0.3934127E+00
  0.5857700E+01  0.1414170E+02 -0.1027320E+00  0.4186904E+00 -0.1093225E+01 -0.1924400E+00  0.3718447E+00
  0.4443360E+01  0.1464780E+02 -0.1027320E+00  0.3778398E+00 -0.1122935E+01 -0.1636193E+00  0.3405755E+00
  0.2986230E+01  0.1501280E+02 -0.1027320E+00  0.3048593E+00 -0.1160596E+01 -0.1215757E+00  0.2795685E+00
  0.1500340E+01  0.1523320E+02 -0.1027320E+00  0.8011707E-01 -0.1470854E+01 -0.7993801E-02  0.7971728E-01
 -0.6690860E-06  0.1530690E+02 -0.1027320E+00  0.7900026E-01  0.2673491E+01  0.7050194E-01 -0.3564434E-01
 -0.1500340E+01  0.1523320E+02 -0.1027320E+00  0.1939659E+00  0.2396301E+01  0.1425436E+00 -0.1315450E+00
 -0.2986230E+01  0.1501280E+02 -0.1027320E+00  0.3353703E+00  0.2317449E+01  0.2277786E+00 -0.2461506E+00
 -0.4443360E+01  0.1464780E+02 -0.1027320E+00  0.3719401E+00  0.2318319E+01  0.2528538E+00 -0.2727717E+00
 -0.5857700E+01  0.1414170E+02 -0.1027320E+00  0.3936998E+00  0.2326519E+01  0.2700052E+00 -0.2865252E+00
 -0.7215620E+01  0.1349950E+02 -0.1027320E+00  0.4100604E+00  0.2337571E+01  0.2845065E+00 -0.2953059E+00
 -0.8504060E+01  0.1272720E+02 -0.1027320E+00  0.4178911E+00  0.2352395E+01  0.2943688E+00 -0.2966143E+00
 -0.9710590E+01  0.1183240E+02 -0.1027320E+00  0.4284667E+00  0.2363521E+01  0.3051834E+00 -0.3007438E+00
 -0.1082360E+02  0.1082360E+02 -0.1027320E+00  0.4351607E+00  0.2374750E+01  0.3133615E+00 -0.3019427E+00
 -0.1183240E+02  0.9710590E+01 -0.1027320E+00  0.4395590E+00  0.2385308E+01  0.3197311E+00 -0.3016358E+00
 -0.1272720E+02  0.8504060E+01 -0.1027320E+00  0.4441679E+00  0.2393531E+01  0.3255790E+00 -0.3021315E+00
 -0.1349950E+02  0.7215620E+01 -0.1027320E+00  0.4477586E+00  0.2399548E+01  0.3300376E+00 -0.3025937E+00
 -0.1414170E+02  0.5857690E+01 -0.1027320E+00  0.4482345E+00  0.2404568E+01  0.3319048E+00 -0.3012529E+00
 -0.1464780E+02  0.4443360E+01 -0.1027320E+00  0.4444169E+00  0.2410327E+01  0.3307926E+00 -0.2967871E+00
 -0.1501280E+02  0.2986230E+01 -0.1027320E+00  0.4394464E+00  0.2413927E+01  0.3281474E+00 -0.2922882E+00
 -0.1523320E+02  0.1500340E+01 -0.1027320E+00  0.4344791E+00  0.2414032E+01  0.3244686E+00 -0.2889502E+00
 -0.1530690E+02 -0.1338170E-05 -0.1027320E+00  0.4296670E+00  0.2410308E+01  0.3198085E+00 -0.2869430E+00
 -0.1523320E+02 -0.1500340E+01 -0.1027320E+00  0.4241993E+00  0.2403420E+01  0.3137802E+00 -0.2854594E+00
 -0.1501280E+02 -0.2986230E+01 -0.1027320E+00  0.4187334E+00  0.2391235E+01  0.3062805E+00 -0.2855344E+00
 -0.1464780E+02 -0.4443360E+01 -0.1027320E+00  0.4131079E+00  0.2373896E+01  0.2972362E+00 -0.2868951E+00
 -0.1414170E+02 -0.5857700E+01 -0.1027320E+00  0.4062363E+00  0.2353467E+01  0.2864679E+00 -0.2880349E+00
 -0.1349950E+02 -0.7215620E+01 -0.1027320E+00  0.3953237E+00  0.2334989E+01  0.2735459E+00 -0.2854005E+00
 -0.1272720E+02 -0.8504060E+01 -0.1027320E+00  0.3815870E+00  0.2317375E+01  0.2591479E+00 -0.2800911E+00
 -0.1183240E+02 -0.9710600E+01 -0.1027320E+00  0.3666787E+00  0.2297300E+01  0.2435701E+00 -0.2740928E+00
 -0.1082360E+02 -0.1082360E+02 -0.1027320E+00  0.3518537E+00  0.2271148E+01  0.2267649E+00 -0.2690328E+00
 -0.9710600E+01 -0.1183240E+02 -0.1027320E+00  0.3346699E+00  0.2243517E+01  0.2085383E+00 -0.2617551E+00
 -0.8504050E+01 -0.1272720E+02 -0.1027320E+00  0.3127430E+00  0.2218118E+01  0.1886004E+00 -0.2494756E+00
 -0.7215620E+01 -0.1349950E+02 -0.1027320E+00  0.2919260E+00  0.2183516E+01  0.1678851E+00 -0.2388209E+00
 -0.5857690E+01 -0.1414170E+02 -0.1027320E+00  0.2618032E+00  0.2159190E+01  0.1453074E+00 -0.2177766E+00
 -0.4443360E+01 -0.1464780E+02 -0.1027320E+00  0.2229528E+00  0.2144481E+01  0.1210033E+00 -0.1872596E+00
 -0.2986230E+01 -0.1501280E+02 -0.1027320E+00  0.1588616E+00  0.2207580E+01  0.9446107E-01 -0.1277267E+00
 -0.1500340E+01 -0.1523320E+02 -0.1027320E+00  0.9267008E-01 -0.2298970E+01  0.6167265E-01  0.6916811E-01
  0.1825330E-06 -0.1530690E+02 -0.1027320E+00  0.1868255E+00 -0.1731379E+01  0.2987213E-01  0.1844218E+00
  0.1500340E+01 -0.1523320E+02 -0.1027320E+00  0.2819962E+00 -0.1546462E+01 -0.6861450E-02  0.2819127E+00
  0.2986230E+01 -0.1501280E+02 -0.1027320E+00  0.4058738E+00 -0.1417997E+01 -0.6177614E-01  0.4011449E+00
  0.4443360E+01 -0.1464780E+02 -0.1027320E+00  0.4418415E+00 -0.1339015E+01 -0.1014963E+00  0.4300261E+00
  0.5857700E+01 -0.1414170E+02 -0.1027320E+00  0.4648850E+00 -0.1278181E+01 -0.1340995E+00  0.4451241E+00
  0.7215620E+01 -0.1349950E+02 -0.1027320E+00  0.4831794E+00 -0.1226886E+01 -0.1629141E+00  0.4548860E+00
  0.8504060E+01 -0.1272720E+02 -0.1027320E+00  0.4942120E+00 -0.1179709E+01 -0.1883905E+00  0.4568966E+00
  0.9710600E+01 -0.1183240E+02 -0.1027320E+00  0.5078425E+00 -0.1140311E+01 -0.2119286E+00  0.4615087E+00
  0.1082360E+02 -0.1082360E+02 -0.1027320E+00  0.5182014E+00 -0.1104867E+01 -0.2328035E+00  0.4629636E+00
  0.1183240E+02 -0.9710590E+01 -0.1027320E+00  0.5266230E+00 -0.1073178E+01 -0.2513752E+00  0.4627551E+00
  0.1272720E+02 -0.8504060E+01 -0.1027320E+00  0.5351567E+00 -0.1046301E+01 -0.2679935E+00  0.4632194E+00
