 VARIABLES="X" "Y" "Z" "abs(eta) (m)" "angle(phi) (rad)" "PRE1" "PRE2"
ZONE N=   3200 ,E =    3136 ,F=FEPOINT,ET=QUADRILATERAL
  0.1530690E+02  0.0000000E+00  0.0000000E+00  0.4088590E+00  0.2148980E+01  0.2234431E+00 -0.3424016E+00
  0.1523320E+02  0.1500340E+01  0.0000000E+00  0.4092180E+00  0.2150108E+01  0.2240254E+00 -0.3424499E+00
  0.1501280E+02  0.2986230E+01  0.0000000E+00  0.4080518E+00  0.2149808E+01  0.2232848E+00 -0.3415408E+00
  0.1464780E+02  0.4443360E+01  0.0000000E+00  0.4055339E+00  0.2147831E+01  0.2212355E+00 -0.3398715E+00
  0.1414170E+02  0.5857700E+01  0.0000000E+00  0.4013668E+00  0.2144617E+01  0.2178798E+00 -0.3370812E+00
  0.1349950E+02  0.7215620E+01  0.0000000E+00  0.3961647E+00  0.2139664E+01  0.2134054E+00 -0.3337733E+00
  0.1272720E+02  0.8504060E+01  0.0000000E+00  0.3916624E+00  0.2131754E+01  0.2083632E+00 -0.3316386E+00
  0.1183240E+02  0.9710600E+01  0.0000000E+00  0.3867251E+00  0.2121989E+01  0.2025294E+00 -0.3294513E+00
  0.1082360E+02  0.1082360E+02  0.0000000E+00  0.3809520E+00  0.2109963E+01  0.1955887E+00 -0.3269090E+00
  0.9710590E+01  0.1183240E+02  0.0000000E+00  0.3724215E+00  0.2097264E+01  0.1871354E+00 -0.3219908E+00
  0.8504060E+01  0.1272720E+02  0.0000000E+00  0.3641797E+00  0.2082588E+01  0.1783533E+00 -0.3175168E+00
  0.7215620E+01  0.1349950E+02  0.0000000E+00  0.3490558E+00  0.2070647E+01  0.1673007E+00 -0.3063502E+00
  0.5857700E+01  0.1414170E+02  0.0000000E+00  0.3314379E+00  0.2058316E+01  0.1552574E+00 -0.2928245E+00
  0.4443360E+01  0.1464780E+02  0.0000000E+00  0.3076006E+00  0.2046842E+01  0.1409635E+00 -0.2733998E+00
  0.2986230E+01  0.1501280E+02  0.0000000E+00  0.2610258E+00  0.2048023E+01  0.1198936E+00 -0.2318620E+00
  0.1500340E+01  0.1523320E+02  0.0000000E+00  0.9899444E-01  0.2252389E+01  0.6236956E-01 -0.7687611E-01
 -0.6690860E-06  0.1530690E+02  0.0000000E+00  0.4008016E-01 -0.2147793E+01  0.2186411E-01  0.3359136E-01
 -0.1500340E+01  0.1523320E+02  0.0000000E+00  0.1497957E+00 -0.1463888E+01 -0.1598392E-01  0.1489405E+00
 -0.2986230E+01  0.1501280E+02  0.0000000E+00  0.3324744E+00 -0.1386131E+01 -0.6104815E-01  0.3268216E+00
 -0.4443360E+01  0.1464780E+02  0.0000000E+00  0.3860869E+00 -0.1355474E+01 -0.8249213E-01  0.3771712E+00
 -0.5857700E+01  0.1414170E+02  0.0000000E+00  0.4135957E+00 -0.1329197E+01 -0.9895507E-01  0.4015835E+00
 -0.7215620E+01  0.1349950E+02  0.0000000E+00  0.4336542E+00 -0.1305223E+01 -0.1138182E+00  0.4184512E+00
 -0.8504060E+01  0.1272720E+02  0.0000000E+00  0.4507966E+00 -0.1283795E+01 -0.1276104E+00  0.4323577E+00
 -0.9710590E+01  0.1183240E+02  0.0000000E+00  0.4605165E+00 -0.1263855E+01 -0.1391425E+00  0.4389929E+00
 -0.1082360E+02  0.1082360E+02  0.0000000E+00  0.4704856E+00 -0.1246651E+01 -0.1498492E+00  0.4459842E+00
 -0.1183240E+02  0.9710590E+01  0.0000000E+00  0.4774431E+00 -0.1230951E+01 -0.1591515E+00  0.4501363E+00
 -0.1272720E+02  0.8504060E+01  0.0000000E+00  0.4835787E+00 -0.1217294E+01 -0.1674082E+00  0.4536771E+00
 -0.1349950E+02  0.7215620E+01  0.0000000E+00  0.4893226E+00 -0.1206096E+01 -0.1745263E+00  0.4571402E+00
 -0.1414170E+02  0.5857690E+01  0.0000000E+00  0.4959239E+00 -0.1197921E+01 -0.1806627E+00  0.4618458E+00
 -0.1464780E+02  0.4443360E+01  0.0000000E+00  0.5014472E+00 -0.1191934E+01 -0.1854671E+00  0.4658876E+00
 -0.1501280E+02  0.2986230E+01  0.0000000E+00  0.5052858E+00 -0.1187907E+01 -0.1887758E+00  0.4686976E+00
 -0.1523320E+02  0.1500340E+01  0.0000000E+00  0.5076784E+00 -0.1186144E+01 -0.1904998E+00  0.4705818E+00
 -0.1530690E+02 -0.1338170E-05  0.0000000E+00  0.5084810E+00 -0.1186485E+01 -0.1906403E+00  0.4713907E+00
 -0.1523320E+02 -0.1500340E+01  0.0000000E+00  0.5080434E+00 -0.1189035E+01 -0.1892744E+00  0.4714693E+00
 -0.1501280E+02 -0.2986230E+01  0.0000000E+00  0.5061406E+00 -0.1193650E+01 -0.1863961E+00  0.4705686E+00
 -0.1464780E+02 -0.4443360E+01  0.0000000E+00  0.5029922E+00 -0.1200424E+01 -0.1820645E+00  0.4688856E+00
 -0.1414170E+02 -0.5857700E+01  0.0000000E+00  0.4982860E+00 -0.1209129E+01 -0.1763107E+00  0.4660510E+00
 -0.1349950E+02 -0.7215620E+01  0.0000000E+00  0.4926441E+00 -0.1220111E+01 -0.1692436E+00  0.4626606E+00
 -0.1272720E+02 -0.8504060E+01  0.0000000E+00  0.4877538E+00 -0.1234392E+01 -0.1610050E+00  0.4604141E+00
 -0.1183240E+02 -0.9710600E+01  0.0000000E+00  0.4824792E+00 -0.1251416E+01 -0.1514879E+00  0.4580803E+00
 -0.1082360E+02 -0.1082360E+02  0.0000000E+00  0.4766234E+00 -0.1270845E+01 -0.1408298E+00  0.4553425E+00
 -0.9710600E+01 -0.1183240E+02  0.0000000E+00  0.4682329E+00 -0.1292044E+01 -0.1288372E+00  0.4501589E+00
 -0.8504050E+01 -0.1272720E+02  0.0000000E+00  0.4601610E+00 -0.1316569E+01 -0.1157295E+00  0.4453704E+00
 -0.7215620E+01 -0.1349950E+02  0.0000000E+00  0.4453444E+00 -0.1342585E+01 -0.1007526E+00  0.4337979E+00
 -0.5857690E+01 -0.1414170E+02  0.0000000E+00  0.4281909E+00 -0.1372158E+01 -0.8449696E-01  0.4197710E+00
 -0.4443360E+01 -0.1464780E+02  0.0000000E+00  0.4051983E+00 -0.1405197E+01 -0.6679416E-01  0.3996551E+00
 -0.2986230E+01 -0.1501280E+02  0.0000000E+00  0.3599195E+00 -0.1443574E+01 -0.4566651E-01  0.3570106E+00
 -0.1500340E+01 -0.1523320E+02  0.0000000E+00  0.2001721E+00 -0.1502142E+01 -0.1373183E-01  0.1997005E+00
  0.1825330E-06 -0.1530690E+02  0.0000000E+00  0.8989192E-01 -0.1734962E+01  0.1469098E-01  0.8868332E-01
  0.1500340E+01 -0.1523320E+02  0.0000000E+00  0.5300317E-01  0.2623026E+01  0.4603487E-01 -0.2627025E-01
  0.2986230E+01 -0.1501280E+02  0.0000000E+00  0.2217833E+00  0.1996383E+01  0.9156431E-01 -0.2019996E+00
  0.4443360E+01 -0.1464780E+02  0.0000000E+00  0.2755486E+00  0.1993253E+01  0.1129755E+00 -0.2513237E+00
  0.5857700E+01 -0.1414170E+02  0.0000000E+00  0.3038997E+00  0.2009618E+01  0.1291189E+00 -0.2751060E+00
  0.7215620E+01 -0.1349950E+02  0.0000000E+00  0.3247921E+00  0.2027382E+01  0.1431962E+00 -0.2915214E+00
  0.8504060E+01 -0.1272720E+02  0.0000000E+00  0.3427027E+00  0.2043913E+01  0.1561570E+00 -0.3050577E+00
  0.9710600E+01 -0.1183240E+02  0.0000000E+00  0.3534884E+00  0.2063802E+01  0.1672975E+00 -0.3113930E+00
  0.1082360E+02 -0.1082360E+02  0.0000000E+00  0.3644893E+00  0.2080701E+01  0.1779051E+00 -0.3181230E+00
  0.1183240E+02 -0.9710590E+01  0.0000000E+00  0.3724761E+00  0.2097150E+01  0.1871261E+00 -0.3220594E+00
  0.1272720E+02 -0.8504060E+01  0.0000000E+00  0.3794658E+00  0.2111135E+01  0.1952072E+00 -0.3254051E+00
  0.1349950E+02 -0.7215620E+01  0.0000000E+00  0.3860133E+00  0.2122745E+01  0.2024050E+00 -0.3286921E+00
  0.1414170E+02 -0.5857700E+01  0.0000000E+00  0.3932934E+00  0.2130741E+01  0.2088934E+00 -0.3332314E+00
  0.1464780E+02 -0.4443350E+01  0.0000000E+00  0.3994893E+00  0.2137046E+01  0.2143143E+00 -0.3371366E+00
  0.1501280E+02 -0.2986230E+01  0.0000000E+00  0.4040399E+00  0.2142283E+01  0.2185383E+00 -0.3398371E+00
  0.1523320E+02 -0.1500330E+01  0.0000000E+00  0.4072222E+00  0.2146221E+01  0.2216069E+00 -0.3416436E+00
  0.1530690E+02  0.0000000E+00 -0.2568960E-01  0.4083945E+00  0.2148994E+01  0.2231939E+00 -0.3420097E+00
  0.1523320E+02  0.1500340E+01 -0.2568960E-01  0.4087552E+00  0.2150117E+01  0.2237753E+00 -0.3420605E+00
  0.1501280E+02  0.2986230E+01 -0.2568960E-01  0.4075971E+00  0.2149810E+01  0.2230367E+00 -0.3411598E+00
  0.1464780E+02  0.4443360E+01 -0.2568960E-01  0.4050911E+00  0.2147820E+01  0.2209900E+00 -0.3395030E+00
  0.1414170E+02  0.5857700E+01 -0.2568960E-01  0.4009430E+00  0.2144594E+01  0.2176421E+00 -0.3367301E+00
  0.1349950E+02  0.7215620E+01 -0.2568960E-01  0.3957597E+00  0.2139634E+01  0.2131771E+00 -0.3334386E+00
  0.1272720E+02  0.8504060E+01 -0.2568960E-01  0.3912603E+00  0.2131727E+01  0.2081406E+00 -0.3313037E+00
  0.1183240E+02  0.9710600E+01 -0.2568960E-01  0.3863178E+00  0.2121954E+01  0.2023046E+00 -0.3291113E+00
  0.1082360E+02  0.1082360E+02 -0.2568960E-01  0.3805525E+00  0.2109942E+01  0.1953769E+00 -0.3265702E+00
  0.9710590E+01  0.1183240E+02 -0.2568960E-01  0.3720428E+00  0.2097237E+01  0.1869363E+00 -0.3216686E+00
  0.8504060E+01  0.1272720E+02 -0.2568960E-01  0.3637852E+00  0.2082576E+01  0.1781565E+00 -0.3171750E+00
  0.7215620E+01  0.1349950E+02 -0.2568960E-01  0.3487248E+00  0.2070610E+01  0.1671305E+00 -0.3060660E+00
  0.5857700E+01  0.1414170E+02 -0.2568960E-01  0.3311054E+00  0.2058287E+01  0.1550933E+00 -0.2925352E+00
  0.4443360E+01  0.1464780E+02 -0.2568960E-01  0.3073039E+00  0.2046812E+01  0.1408192E+00 -0.2731403E+00
  0.2986230E+01  0.1501280E+02 -0.2568960E-01  0.2607528E+00  0.2047991E+01  0.1197609E+00 -0.2316233E+00
  0.1500340E+01  0.1523320E+02 -0.2568960E-01  0.9900074E-01  0.2251977E+01  0.6234181E-01 -0.7690673E-01
 -0.6690860E-06  0.1530690E+02 -0.2568960E-01  0.4003145E-01 -0.2147950E+01  0.2184281E-01  0.3354711E-01
 -0.1500340E+01  0.1523320E+02 -0.2568960E-01  0.1497620E+00 -0.1463846E+01 -0.1598664E-01  0.1489063E+00
 -0.2986230E+01  0.1501280E+02 -0.2568960E-01  0.3321104E+00 -0.1386122E+01 -0.6098429E-01  0.3264632E+00
 -0.4443360E+01  0.1464780E+02 -0.2568960E-01  0.3857008E+00 -0.1355480E+01 -0.8240728E-01  0.3767945E+00
 -0.5857700E+01  0.1414170E+02 -0.2568960E-01  0.4131681E+00 -0.1329207E+01 -0.9884904E-01  0.4011692E+00
 -0.7215620E+01  0.1349950E+02 -0.2568960E-01  0.4332283E+00 -0.1305232E+01 -0.1137024E+00  0.4180413E+00
 -0.8504060E+01  0.1272720E+02 -0.2568960E-01  0.4503022E+00 -0.1283805E+01 -0.1274661E+00  0.4318847E+00
 -0.9710590E+01  0.1183240E+02 -0.2568960E-01  0.4600385E+00 -0.1263866E+01 -0.1389933E+00  0.4385388E+00
 -0.1082360E+02  0.1082360E+02 -0.2568960E-01  0.4699823E+00 -0.1246664E+01 -0.1496832E+00  0.4455090E+00
 -0.1183240E+02  0.9710590E+01 -0.2568960E-01  0.4769355E+00 -0.1230962E+01 -0.1589772E+00  0.4496596E+00
 -0.1272720E+02  0.8504060E+01 -0.2568960E-01  0.4830732E+00 -0.1217310E+01 -0.1672256E+00  0.4532056E+00
 -0.1349950E+02  0.7215620E+01 -0.2568960E-01  0.4888130E+00 -0.1206112E+01 -0.1743372E+00  0.4566670E+00
 -0.1414170E+02  0.5857690E+01 -0.2568960E-01  0.4953925E+00 -0.1197934E+01 -0.1804629E+00  0.4613533E+00
 -0.1464780E+02  0.4443360E+01 -0.2568960E-01  0.5008939E+00 -0.1191942E+01 -0.1852586E+00  0.4653751E+00
 -0.1501280E+02  0.2986230E+01 -0.2568960E-01  0.5047172E+00 -0.1187915E+01 -0.1885595E+00  0.4681717E+00
 -0.1523320E+02  0.1500340E+01 -0.2568960E-01  0.5070999E+00 -0.1186146E+01 -0.1902814E+00  0.4700461E+00
 -0.1530690E+02 -0.1338170E-05 -0.2568960E-01  0.5079015E+00 -0.1186484E+01 -0.1904235E+00  0.4708533E+00
 -0.1523320E+02 -0.1500340E+01 -0.2568960E-01  0.5074658E+00 -0.1189034E+01 -0.1890596E+00  0.4709332E+00
 -0.1501280E+02 -0.2986230E+01 -0.2568960E-01  0.5055726E+00 -0.1193651E+01 -0.1861862E+00  0.4700407E+00
 -0.1464780E+02 -0.4443360E+01 -0.2568960E-01  0.5024388E+00 -0.1200433E+01 -0.1818599E+00  0.4683714E+00
 -0.1414170E+02 -0.5857700E+01 -0.2568960E-01  0.4977522E+00 -0.1209140E+01 -0.1761165E+00  0.4655537E+00
 -0.1349950E+02 -0.7215620E+01 -0.2568960E-01  0.4921290E+00 -0.1220129E+01 -0.1690582E+00  0.4621799E+00
 -0.1272720E+02 -0.8504060E+01 -0.2568960E-01  0.4872431E+00 -0.1234411E+01 -0.1608278E+00  0.4599350E+00
 -0.1183240E+02 -0.9710600E+01 -0.2568960E-01  0.4819652E+00 -0.1251432E+01 -0.1513194E+00  0.4575946E+00
 -0.1082360E+02 -0.1082360E+02 -0.2568960E-01  0.4761150E+00 -0.1270854E+01 -0.1406752E+00  0.4548582E+00
 -0.9710600E+01 -0.1183240E+02 -0.2568960E-01  0.4677446E+00 -0.1292062E+01 -0.1286947E+00  0.4496918E+00
 -0.8504050E+01 -0.1272720E+02 -0.2568960E-01  0.4596568E+00 -0.1316573E+01 -0.1156009E+00  0.4448829E+00
 -0.7215620E+01 -0.1349950E+02 -0.2568960E-01  0.4449028E+00 -0.1342606E+01 -0.1006436E+00  0.4333698E+00
 -0.5857690E+01 -0.1414170E+02 -0.2568960E-01  0.4277471E+00 -0.1372173E+01 -0.8440317E-01  0.4193372E+00
 -0.4443360E+01 -0.1464780E+02 -0.2568960E-01  0.4047884E+00 -0.1405208E+01 -0.6672231E-01  0.3992516E+00
 -0.2986230E+01 -0.1501280E+02 -0.2568960E-01  0.3595337E+00 -0.1443574E+01 -0.4561748E-01  0.3566280E+00
 -0.1500340E+01 -0.1523320E+02 -0.2568960E-01  0.2000653E+00 -0.1502130E+01 -0.1372700E-01  0.1995938E+00
  0.1825330E-06 -0.1530690E+02 -0.2568960E-01  0.8979439E-01 -0.1734955E+01  0.1467441E-01  0.8858721E-01
  0.1500340E+01 -0.1523320E+02 -0.2568960E-01  0.5303592E-01  0.2621148E+01  0.4601387E-01 -0.2637295E-01
  0.2986230E+01 -0.1501280E+02 -0.2568960E-01  0.2215464E+00  0.1996374E+01  0.9146481E-01 -0.2017846E+00
  0.4443360E+01 -0.1464780E+02 -0.2568960E-01  0.2752880E+00  0.1993219E+01  0.1128602E+00 -0.2510898E+00
  0.5857700E+01 -0.1414170E+02 -0.2568960E-01  0.3035959E+00  0.2009583E+01  0.1289802E+00 -0.2748356E+00
  0.7215620E+01 -0.1349950E+02 -0.2568960E-01  0.3244874E+00  0.2027333E+01  0.1430479E+00 -0.2912549E+00
  0.8504060E+01 -0.1272720E+02 -0.2568960E-01  0.3423312E+00  0.2043903E+01  0.1559846E+00 -0.3047285E+00
  0.9710600E+01 -0.1183240E+02 -0.2568960E-01  0.3531316E+00  0.2063770E+01  0.1671185E+00 -0.3110842E+00
  0.1082360E+02 -0.1082360E+02 -0.2568960E-01  0.3641052E+00  0.2080674E+01  0.1777092E+00 -0.3177925E+00
  0.1183240E+02 -0.9710590E+01 -0.2568960E-01  0.3720852E+00  0.2097121E+01  0.1869204E+00 -0.3217269E+00
  0.1272720E+02 -0.8504060E+01 -0.2568960E-01  0.3790767E+00  0.2111098E+01  0.1949951E+00 -0.3250785E+00
  0.1349950E+02 -0.7215620E+01 -0.2568960E-01  0.3856199E+00  0.2122710E+01  0.2021874E+00 -0.3283641E+00
  0.1414170E+02 -0.5857700E+01 -0.2568960E-01  0.3928784E+00  0.2130719E+01  0.2086658E+00 -0.3328843E+00
  0.1464780E+02 -0.4443350E+01 -0.2568960E-01  0.3990530E+00  0.2137035E+01  0.2140767E+00 -0.3367706E+00
  0.1501280E+02 -0.2986230E+01 -0.2568960E-01  0.4035878E+00  0.2142282E+01  0.2182934E+00 -0.3394570E+00
  0.1523320E+02 -0.1500330E+01 -0.2568960E-01  0.4067601E+00  0.2146230E+01  0.2213583E+00 -0.3412540E+00
  0.1530690E+02  0.0000000E+00 -0.1027320E+00  0.4069875E+00  0.2149042E+01  0.2224413E+00 -0.3408206E+00
  0.1523320E+02  0.1500340E+01 -0.1027320E+00  0.4073531E+00  0.2150164E+01  0.2230237E+00 -0.3408768E+00
  0.1501280E+02  0.2986230E+01 -0.1027320E+00  0.4062189E+00  0.2149832E+01  0.2222900E+00 -0.3400014E+00
  0.1464780E+02  0.4443360E+01 -0.1027320E+00  0.4037509E+00  0.2147811E+01  0.2202560E+00 -0.3383816E+00
  0.1414170E+02  0.5857700E+01 -0.1027320E+00  0.3996581E+00  0.2144550E+01  0.2169299E+00 -0.3356606E+00
  0.1349950E+02  0.7215620E+01 -0.1027320E+00  0.3945292E+00  0.2139560E+01  0.2124900E+00 -0.3324173E+00
  0.1272720E+02  0.8504060E+01 -0.1027320E+00  0.3900419E+00  0.2131657E+01  0.2074692E+00 -0.3302866E+00
  0.1183240E+02  0.9710600E+01 -0.1027320E+00  0.3850905E+00  0.2121906E+01  0.2016460E+00 -0.3280756E+00
  0.1082360E+02  0.1082360E+02 -0.1027320E+00  0.3793378E+00  0.2109900E+01  0.1947393E+00 -0.3255361E+00
  0.9710590E+01  0.1183240E+02 -0.1027320E+00  0.3708969E+00  0.2097181E+01  0.1863425E+00 -0.3206883E+00
  0.8504060E+01  0.1272720E+02 -0.1027320E+00  0.3625953E+00  0.2082578E+01  0.1775742E+00 -0.3161372E+00
  0.7215620E+01  0.1349950E+02 -0.1027320E+00  0.3476923E+00  0.2070536E+01  0.1666130E+00 -0.3051721E+00
  0.5857700E+01  0.1414170E+02 -0.1027320E+00  0.3301087E+00  0.2058218E+01  0.1546062E+00 -0.2916653E+00
  0.4443360E+01  0.1464780E+02 -0.1027320E+00  0.3063976E+00  0.2046756E+01  0.1403889E+00 -0.2723425E+00
  0.2986230E+01  0.1501280E+02 -0.1027320E+00  0.2600305E+00  0.2047868E+01  0.1194006E+00 -0.2309964E+00
  0.1500340E+01  0.1523320E+02 -0.1027320E+00  0.9883523E-01  0.2251341E+01  0.6218878E-01 -0.7681770E-01
 -0.6690860E-06  0.1530690E+02 -0.1027320E+00  0.3988801E-01 -0.2148264E+01  0.2177504E-01  0.3342007E-01
 -0.1500340E+01  0.1523320E+02 -0.1027320E+00  0.1494267E+00 -0.1463800E+01 -0.1595767E-01  0.1485722E+00
 -0.2986230E+01  0.1501280E+02 -0.1027320E+00  0.3311210E+00 -0.1386115E+01 -0.6080489E-01  0.3254902E+00
 -0.4443360E+01  0.1464780E+02 -0.1027320E+00  0.3845247E+00 -0.1355512E+01 -0.8214426E-01  0.3756482E+00
 -0.5857700E+01  0.1414170E+02 -0.1027320E+00  0.4118843E+00 -0.1329227E+01 -0.9853381E-01  0.3999247E+00
 -0.7215620E+01  0.1349950E+02 -0.1027320E+00  0.4319039E+00 -0.1305266E+01 -0.1133407E+00  0.4167672E+00
 -0.8504060E+01  0.1272720E+02 -0.1027320E+00  0.4488094E+00 -0.1283826E+01 -0.1270346E+00  0.4304557E+00
 -0.9710590E+01  0.1183240E+02 -0.1027320E+00  0.4585909E+00 -0.1263905E+01 -0.1385387E+00  0.4371643E+00
 -0.1082360E+02  0.1082360E+02 -0.1027320E+00  0.4684595E+00 -0.1246681E+01 -0.1491905E+00  0.4440682E+00
 -0.1183240E+02  0.9710590E+01 -0.1027320E+00  0.4753969E+00 -0.1230989E+01 -0.1584525E+00  0.4482132E+00
 -0.1272720E+02  0.8504060E+01 -0.1027320E+00  0.4815425E+00 -0.1217345E+01 -0.1666801E+00  0.4517753E+00
 -0.1349950E+02  0.7215620E+01 -0.1027320E+00  0.4872663E+00 -0.1206159E+01 -0.1737643E+00  0.4552301E+00
 -0.1414170E+02  0.5857690E+01 -0.1027320E+00  0.4937846E+00 -0.1197961E+01 -0.1798646E+00  0.4598608E+00
 -0.1464780E+02  0.4443360E+01 -0.1027320E+00  0.4992220E+00 -0.1191961E+01 -0.1846317E+00  0.4638251E+00
 -0.1501280E+02  0.2986230E+01 -0.1027320E+00  0.5029998E+00 -0.1187919E+01 -0.1879162E+00  0.4665794E+00
 -0.1523320E+02  0.1500340E+01 -0.1027320E+00  0.5053545E+00 -0.1186142E+01 -0.1896285E+00  0.4684274E+00
 -0.1530690E+02 -0.1338170E-05 -0.1027320E+00  0.5061477E+00 -0.1186481E+01 -0.1897670E+00  0.4692270E+00
 -0.1523320E+02 -0.1500340E+01 -0.1027320E+00  0.5057201E+00 -0.1189031E+01 -0.1884105E+00  0.4693126E+00
 -0.1501280E+02 -0.2986230E+01 -0.1027320E+00  0.5038550E+00 -0.1193655E+01 -0.1855519E+00  0.4684446E+00
 -0.1464780E+02 -0.4443360E+01 -0.1027320E+00  0.5007630E+00 -0.1200451E+01 -0.1812450E+00  0.4668125E+00
 -0.1414170E+02 -0.5857700E+01 -0.1027320E+00  0.4961350E+00 -0.1209175E+01 -0.1755280E+00  0.4640472E+00
 -0.1349950E+02 -0.7215620E+01 -0.1027320E+00  0.4905676E+00 -0.1220181E+01 -0.1684981E+00  0.4607222E+00
 -0.1272720E+02 -0.8504060E+01 -0.1027320E+00  0.4856949E+00 -0.1234458E+01 -0.1602954E+00  0.4584811E+00
 -0.1183240E+02 -0.9710600E+01 -0.1027320E+00  0.4804099E+00 -0.1251462E+01 -0.1508173E+00  0.4561225E+00
 -0.1082360E+02 -0.1082360E+02 -0.1027320E+00  0.4745722E+00 -0.1270884E+01 -0.1402060E+00  0.4533884E+00
 -0.9710600E+01 -0.1183240E+02 -0.1027320E+00  0.4662684E+00 -0.1292104E+01 -0.1282698E+00  0.4482779E+00
 -0.8504050E+01 -0.1272720E+02 -0.1027320E+00  0.4581344E+00 -0.1316595E+01 -0.1152082E+00  0.4434120E+00
 -0.7215620E+01 -0.1349950E+02 -0.1027320E+00  0.4435358E+00 -0.1342651E+01 -0.1003151E+00  0.4320427E+00
 -0.5857690E+01 -0.1414170E+02 -0.1027320E+00  0.4264191E+00 -0.1372199E+01 -0.8412992E-01  0.4180376E+00
 -0.4443360E+01 -0.1464780E+02 -0.1027320E+00  0.4035434E+00 -0.1405250E+01 -0.6650043E-01  0.3980263E+00
 -0.2986230E+01 -0.1501280E+02 -0.1027320E+00  0.3584716E+00 -0.1443585E+01 -0.4547863E-01  0.3555750E+00
 -0.1500340E+01 -0.1523320E+02 -0.1027320E+00  0.1995564E+00 -0.1502155E+01 -0.1368711E-01  0.1990865E+00
  0.1825330E-06 -0.1530690E+02 -0.1027320E+00  0.8950102E-01 -0.1735002E+01  0.1463063E-01  0.8829709E-01
  0.1500340E+01 -0.1523320E+02 -0.1027320E+00  0.5297863E-01  0.2618723E+01  0.4590014E-01 -0.2645585E-01
  0.2986230E+01 -0.1501280E+02 -0.1027320E+00  0.2209318E+00  0.1996231E+01  0.9118230E-01 -0.2012377E+00
  0.4443360E+01 -0.1464780E+02 -0.1027320E+00  0.2744909E+00  0.1993148E+01  0.1125155E+00 -0.2503707E+00
  0.5857700E+01 -0.1414170E+02 -0.1027320E+00  0.3026856E+00  0.2009516E+01  0.1285751E+00 -0.2740201E+00
  0.7215620E+01 -0.1349950E+02 -0.1027320E+00  0.3235314E+00  0.2027234E+01  0.1425974E+00 -0.2904110E+00
  0.8504060E+01 -0.1272720E+02 -0.1027320E+00  0.3412115E+00  0.2043908E+01  0.1554760E+00 -0.3037310E+00
  0.9710600E+01 -0.1183240E+02 -0.1027320E+00  0.3520484E+00  0.2063696E+01  0.1665832E+00 -0.3101421E+00
  0.1082360E+02 -0.1082360E+02 -0.1027320E+00  0.3629431E+00  0.2080633E+01  0.1771288E+00 -0.3167855E+00
  0.1183240E+02 -0.9710590E+01 -0.1027320E+00  0.3709034E+00  0.2097070E+01  0.1863101E+00 -0.3207146E+00
  0.1272720E+02 -0.8504060E+01 -0.1027320E+00  0.3778982E+00  0.2111019E+01  0.1943632E+00 -0.3240834E+00
