 VARIABLES="X" "Y" "Z" "abs(eta) (m)" "angle(phi) (rad)" "PRE1" "PRE2"
ZONE N=   3200 ,E =    3136 ,F=FEPOINT,ET=QUADRILATERAL
  0.1672760E+02  0.0000000E+00  0.0000000E+00  0.2040882E-01  0.3075245E+01  0.2036392E-01 -0.1353075E-02
  0.1664710E+02  0.1639590E+01  0.0000000E+00  0.1893578E-01 -0.3064840E+01  0.1888003E-01  0.1451947E-02
  0.1640620E+02  0.3263390E+01  0.0000000E+00  0.1812605E-01 -0.2890946E+01  0.1755965E-01  0.4495817E-02
  0.1600730E+02  0.4855770E+01  0.0000000E+00  0.1824137E-01 -0.2695663E+01  0.1645754E-01  0.7867447E-02
  0.1545430E+02  0.6401380E+01  0.0000000E+00  0.1905782E-01 -0.2512065E+01  0.1540454E-01  0.1122054E-01
  0.1475240E+02  0.7885340E+01  0.0000000E+00  0.2036446E-01 -0.2350074E+01  0.1431144E-01  0.1448771E-01
  0.1390850E+02  0.9293360E+01  0.0000000E+00  0.2218277E-01 -0.2212813E+01  0.1328331E-01  0.1776595E-01
  0.1293060E+02  0.1061190E+02  0.0000000E+00  0.2490779E-01 -0.2097542E+01  0.1252171E-01  0.2153148E-01
  0.1182820E+02  0.1182820E+02  0.0000000E+00  0.2947015E-01 -0.2002944E+01  0.1234276E-01  0.2676090E-01
  0.1061190E+02  0.1293060E+02  0.0000000E+00  0.3443934E-01 -0.1935589E+01  0.1228642E-01  0.3217315E-01
  0.9293360E+01  0.1390850E+02  0.0000000E+00  0.4036547E-01 -0.1888058E+01  0.1259264E-01  0.3835097E-01
  0.7885330E+01  0.1475240E+02  0.0000000E+00  0.4860741E-01 -0.1857476E+01  0.1374466E-01  0.4662365E-01
  0.6401380E+01  0.1545430E+02  0.0000000E+00  0.5917948E-01 -0.1843394E+01  0.1593312E-01  0.5699427E-01
  0.4855770E+01  0.1600730E+02  0.0000000E+00  0.7424712E-01 -0.1841514E+01  0.1985541E-01  0.7154298E-01
  0.3263390E+01  0.1640620E+02  0.0000000E+00  0.9832675E-01 -0.1851738E+01  0.2726217E-01  0.9447181E-01
  0.1639590E+01  0.1664710E+02  0.0000000E+00  0.1286846E+00 -0.1860466E+01  0.3675693E-01  0.1233234E+00
 -0.7311870E-06  0.1672760E+02  0.0000000E+00  0.1475993E+00 -0.1849931E+01  0.4066707E-01  0.1418863E+00
 -0.1639590E+01  0.1664710E+02  0.0000000E+00  0.1508450E+00 -0.1816988E+01  0.3676277E-01  0.1462966E+00
 -0.3263390E+01  0.1640620E+02  0.0000000E+00  0.1422518E+00 -0.1760101E+01  0.2676844E-01  0.1397105E+00
 -0.4855770E+01  0.1600730E+02  0.0000000E+00  0.1327271E+00 -0.1702769E+01  0.1746560E-01  0.1315729E+00
 -0.6401380E+01  0.1545430E+02  0.0000000E+00  0.1258874E+00 -0.1656978E+01  0.1083581E-01  0.1254202E+00
 -0.7885340E+01  0.1475240E+02  0.0000000E+00  0.1203574E+00 -0.1618051E+01  0.5685369E-02  0.1202231E+00
 -0.9293360E+01  0.1390850E+02  0.0000000E+00  0.1163812E+00 -0.1585945E+01  0.1762920E-02  0.1163678E+00
 -0.1061190E+02  0.1293060E+02  0.0000000E+00  0.1127972E+00 -0.1558974E+01 -0.1333493E-02  0.1127893E+00
 -0.1182820E+02  0.1182820E+02  0.0000000E+00  0.1094786E+00 -0.1535140E+01 -0.3902748E-02  0.1094090E+00
 -0.1293060E+02  0.1061190E+02  0.0000000E+00  0.1062199E+00 -0.1513237E+01 -0.6110533E-02  0.1060440E+00
 -0.1390850E+02  0.9293360E+01  0.0000000E+00  0.1028706E+00 -0.1495630E+01 -0.7725178E-02  0.1025802E+00
 -0.1475240E+02  0.7885330E+01  0.0000000E+00  0.1001073E+00 -0.1482381E+01 -0.8839468E-02  0.9971628E-01
 -0.1545430E+02  0.6401370E+01  0.0000000E+00  0.9775343E-01 -0.1471950E+01 -0.9646842E-02  0.9727626E-01
 -0.1600730E+02  0.4855770E+01  0.0000000E+00  0.9538236E-01 -0.1463005E+01 -0.1026146E-01  0.9482877E-01
 -0.1640620E+02  0.3263390E+01  0.0000000E+00  0.9297853E-01 -0.1456518E+01 -0.1060236E-01  0.9237206E-01
 -0.1664710E+02  0.1639590E+01  0.0000000E+00  0.9051178E-01 -0.1454155E+01 -0.1053345E-01  0.8989676E-01
 -0.1672760E+02 -0.1462370E-05  0.0000000E+00  0.8786824E-01 -0.1455653E+01 -0.1009508E-01  0.8728641E-01
 -0.1664710E+02 -0.1639590E+01  0.0000000E+00  0.8497031E-01 -0.1461270E+01 -0.9287898E-02  0.8446117E-01
 -0.1640620E+02 -0.3263400E+01  0.0000000E+00  0.8179067E-01 -0.1471521E+01 -0.8106495E-02  0.8138795E-01
 -0.1600730E+02 -0.4855770E+01  0.0000000E+00  0.7824729E-01 -0.1487408E+01 -0.6517327E-02  0.7797539E-01
 -0.1545430E+02 -0.6401380E+01  0.0000000E+00  0.7473677E-01 -0.1507179E+01 -0.4751313E-02  0.7458559E-01
 -0.1475240E+02 -0.7885340E+01  0.0000000E+00  0.7135717E-01 -0.1529715E+01 -0.2930654E-02  0.7129696E-01
 -0.1390850E+02 -0.9293360E+01  0.0000000E+00  0.6801643E-01 -0.1556032E+01 -0.1004182E-02  0.6800902E-01
 -0.1293060E+02 -0.1061190E+02  0.0000000E+00  0.6424362E-01 -0.1590184E+01  0.1245473E-02  0.6423154E-01
 -0.1182820E+02 -0.1182820E+02  0.0000000E+00  0.5912055E-01 -0.1643700E+01  0.4306294E-02  0.5896351E-01
 -0.1061190E+02 -0.1293060E+02  0.0000000E+00  0.5402398E-01 -0.1710231E+01  0.7508421E-02  0.5349967E-01
 -0.9293350E+01 -0.1390850E+02  0.0000000E+00  0.4854063E-01 -0.1802061E+01  0.1112594E-01  0.4724834E-01
 -0.7885340E+01 -0.1475240E+02  0.0000000E+00  0.4194999E-01 -0.1956549E+01  0.1578395E-01  0.3886732E-01
 -0.6401370E+01 -0.1545430E+02  0.0000000E+00  0.3559658E-01 -0.2220739E+01  0.2154094E-01  0.2833909E-01
 -0.4855760E+01 -0.1600730E+02  0.0000000E+00  0.3236775E-01 -0.2709122E+01  0.2938775E-01  0.1356582E-01
 -0.3263390E+01 -0.1640620E+02  0.0000000E+00  0.4264062E-01  0.2912077E+01  0.4152244E-01 -0.9701001E-02
 -0.1639590E+01 -0.1664710E+02  0.0000000E+00  0.6864721E-01  0.2538766E+01  0.5654719E-01 -0.3892114E-01
  0.1994750E-06 -0.1672760E+02  0.0000000E+00  0.8722898E-01  0.2420123E+01  0.6549462E-01 -0.5761379E-01
  0.1639600E+01 -0.1664710E+02  0.0000000E+00  0.9036396E-01  0.2387777E+01  0.6588282E-01 -0.6184739E-01
  0.3263390E+01 -0.1640620E+02  0.0000000E+00  0.8089066E-01  0.2396466E+01  0.5945483E-01 -0.5484908E-01
  0.4855770E+01 -0.1600730E+02  0.0000000E+00  0.7016708E-01  0.2420214E+01  0.5268817E-01 -0.4633979E-01
  0.6401380E+01 -0.1545430E+02  0.0000000E+00  0.6228899E-01  0.2445592E+01  0.4780135E-01 -0.3993682E-01
  0.7885340E+01 -0.1475240E+02  0.0000000E+00  0.5584101E-01  0.2474184E+01  0.4385909E-01 -0.3456296E-01
  0.9293360E+01 -0.1390850E+02  0.0000000E+00  0.5103698E-01  0.2498946E+01  0.4085575E-01 -0.3058727E-01
  0.1061190E+02 -0.1293060E+02  0.0000000E+00  0.4677223E-01  0.2528051E+01  0.3824164E-01 -0.2692988E-01
  0.1182820E+02 -0.1182820E+02  0.0000000E+00  0.4285155E-01  0.2561194E+01  0.3583436E-01 -0.2349795E-01
  0.1293060E+02 -0.1061190E+02  0.0000000E+00  0.3907103E-01  0.2601187E+01  0.3350340E-01 -0.2010143E-01
  0.1390850E+02 -0.9293360E+01  0.0000000E+00  0.3548301E-01  0.2653576E+01  0.3134088E-01 -0.1663711E-01
  0.1475240E+02 -0.7885330E+01  0.0000000E+00  0.3247841E-01  0.2703314E+01  0.2940866E-01 -0.1378324E-01
  0.1545430E+02 -0.6401380E+01  0.0000000E+00  0.2979174E-01  0.2750847E+01  0.2754620E-01 -0.1134701E-01
  0.1600730E+02 -0.4855760E+01  0.0000000E+00  0.2712006E-01  0.2807565E+01  0.2562112E-01 -0.8891328E-02
  0.1640620E+02 -0.3263390E+01  0.0000000E+00  0.2458072E-01  0.2877139E+01  0.2372619E-01 -0.6424951E-02
  0.1664710E+02 -0.1639590E+01  0.0000000E+00  0.2233541E-01  0.2963714E+01  0.2198298E-01 -0.3952066E-02
  0.1672760E+02  0.0000000E+00 -0.2568960E-01  0.2039258E-01  0.3075257E+01  0.2034773E-01 -0.1351771E-02
  0.1664710E+02  0.1639590E+01 -0.2568960E-01  0.1892084E-01 -0.3064872E+01  0.1886518E-01  0.1450189E-02
  0.1640620E+02  0.3263390E+01 -0.2568960E-01  0.1811078E-01 -0.2891054E+01  0.1754535E-01  0.4490129E-02
  0.1600730E+02  0.4855770E+01 -0.2568960E-01  0.1822379E-01 -0.2695872E+01  0.1644333E-01  0.7856434E-02
  0.1545430E+02  0.6401380E+01 -0.2568960E-01  0.1903820E-01 -0.2512268E+01  0.1539097E-01  0.1120586E-01
  0.1475240E+02  0.7885340E+01 -0.2568960E-01  0.2034438E-01 -0.2350217E+01  0.1429939E-01  0.1447138E-01
  0.1390850E+02  0.9293360E+01 -0.2568960E-01  0.2216398E-01 -0.2212886E+01  0.1327335E-01  0.1774993E-01
  0.1293060E+02  0.1061190E+02 -0.2568960E-01  0.2488850E-01 -0.2097580E+01  0.1251283E-01  0.2151434E-01
  0.1182820E+02  0.1182820E+02 -0.2568960E-01  0.2944116E-01 -0.2003017E+01  0.1233256E-01  0.2673368E-01
  0.1061190E+02  0.1293060E+02 -0.2568960E-01  0.3440657E-01 -0.1935663E+01  0.1227711E-01  0.3214164E-01
  0.9293360E+01  0.1390850E+02 -0.2568960E-01  0.4033132E-01 -0.1888137E+01  0.1258501E-01  0.3831753E-01
  0.7885330E+01  0.1475240E+02 -0.2568960E-01  0.4856116E-01 -0.1857549E+01  0.1373501E-01  0.4657828E-01
  0.6401380E+01  0.1545430E+02 -0.2568960E-01  0.5912416E-01 -0.1843451E+01  0.1592150E-01  0.5694007E-01
  0.4855770E+01  0.1600730E+02 -0.2568960E-01  0.7418251E-01 -0.1841576E+01  0.1984253E-01  0.7147950E-01
  0.3263390E+01  0.1640620E+02 -0.2568960E-01  0.9823784E-01 -0.1851787E+01  0.2724214E-01  0.9438506E-01
  0.1639590E+01  0.1664710E+02 -0.2568960E-01  0.1285689E+00 -0.1860509E+01  0.3672914E-01  0.1232109E+00
 -0.7311870E-06  0.1672760E+02 -0.2568960E-01  0.1474705E+00 -0.1849967E+01  0.4063669E-01  0.1417611E+00
 -0.1639590E+01  0.1664710E+02 -0.2568960E-01  0.1507160E+00 -0.1817022E+01  0.3673628E-01  0.1461703E+00
 -0.3263390E+01  0.1640620E+02 -0.2568960E-01  0.1421272E+00 -0.1760134E+01  0.2674959E-01  0.1395872E+00
 -0.4855770E+01  0.1600730E+02 -0.2568960E-01  0.1326095E+00 -0.1702804E+01  0.1745464E-01  0.1314558E+00
 -0.6401380E+01  0.1545430E+02 -0.2568960E-01  0.1257734E+00 -0.1657003E+01  0.1082908E-01  0.1253063E+00
 -0.7885340E+01  0.1475240E+02 -0.2568960E-01  0.1202519E+00 -0.1618083E+01  0.5684201E-02  0.1201174E+00
 -0.9293360E+01  0.1390850E+02 -0.2568960E-01  0.1162764E+00 -0.1585975E+01  0.1764860E-02  0.1162630E+00
 -0.1061190E+02  0.1293060E+02 -0.2568960E-01  0.1126945E+00 -0.1558995E+01 -0.1329941E-02  0.1126867E+00
 -0.1182820E+02  0.1182820E+02 -0.2568960E-01  0.1093783E+00 -0.1535154E+01 -0.3897641E-02  0.1093089E+00
 -0.1293060E+02  0.1061190E+02 -0.2568960E-01  0.1061228E+00 -0.1513260E+01 -0.6102530E-02  0.1059471E+00
 -0.1390850E+02  0.9293360E+01 -0.2568960E-01  0.1027796E+00 -0.1495654E+01 -0.7715831E-02  0.1024895E+00
 -0.1475240E+02  0.7885330E+01 -0.2568960E-01  0.1000193E+00 -0.1482398E+01 -0.8830016E-02  0.9962880E-01
 -0.1545430E+02  0.6401370E+01 -0.2568960E-01  0.9766659E-01 -0.1471964E+01 -0.9636885E-02  0.9718999E-01
 -0.1600730E+02  0.4855770E+01 -0.2568960E-01  0.9529682E-01 -0.1463021E+01 -0.1025077E-01  0.9474390E-01
 -0.1640620E+02  0.3263390E+01 -0.2568960E-01  0.9289459E-01 -0.1456541E+01 -0.1059067E-01  0.9228891E-01
 -0.1664710E+02  0.1639590E+01 -0.2568960E-01  0.9042937E-01 -0.1454183E+01 -0.1052144E-01  0.8981521E-01
 -0.1672760E+02 -0.1462370E-05 -0.2568960E-01  0.8778802E-01 -0.1455683E+01 -0.1008323E-01  0.8720703E-01
 -0.1664710E+02 -0.1639590E+01 -0.2568960E-01  0.8489333E-01 -0.1461300E+01 -0.9276986E-02  0.8438493E-01
 -0.1640620E+02 -0.3263400E+01 -0.2568960E-01  0.8171780E-01 -0.1471543E+01 -0.8097463E-02  0.8131561E-01
 -0.1600730E+02 -0.4855770E+01 -0.2568960E-01  0.7817999E-01 -0.1487418E+01 -0.6510995E-02  0.7790840E-01
 -0.1545430E+02 -0.6401380E+01 -0.2568960E-01  0.7467357E-01 -0.1507179E+01 -0.4747366E-02  0.7452251E-01
 -0.1475240E+02 -0.7885340E+01 -0.2568960E-01  0.7129566E-01 -0.1529721E+01 -0.2927685E-02  0.7123552E-01
 -0.1390850E+02 -0.9293360E+01 -0.2568960E-01  0.6795467E-01 -0.1556057E+01 -0.1001563E-02  0.6794728E-01
 -0.1293060E+02 -0.1061190E+02 -0.2568960E-01  0.6418285E-01 -0.1590237E+01  0.1247663E-02  0.6417072E-01
 -0.1182820E+02 -0.1182820E+02 -0.2568960E-01  0.5906972E-01 -0.1643710E+01  0.4303188E-02  0.5891277E-01
 -0.1061190E+02 -0.1293060E+02 -0.2568960E-01  0.5397722E-01 -0.1710250E+01  0.7502944E-02  0.5345322E-01
 -0.9293350E+01 -0.1390850E+02 -0.2568960E-01  0.4849590E-01 -0.1802139E+01  0.1111937E-01  0.4720394E-01
 -0.7885340E+01 -0.1475240E+02 -0.2568960E-01  0.4191532E-01 -0.1956570E+01  0.1577174E-01  0.3883486E-01
 -0.6401370E+01 -0.1545430E+02 -0.2568960E-01  0.3556745E-01 -0.2220747E+01  0.2152355E-01  0.2831573E-01
 -0.4855760E+01 -0.1600730E+02 -0.2568960E-01  0.3234219E-01 -0.2709237E+01  0.2936610E-01  0.1355172E-01
 -0.3263390E+01 -0.1640620E+02 -0.2568960E-01  0.4260544E-01  0.2912117E+01  0.4148857E-01 -0.9691348E-02
 -0.1639590E+01 -0.1664710E+02 -0.2568960E-01  0.6858847E-01  0.2538807E+01  0.5650042E-01 -0.3888548E-01
  0.1994750E-06 -0.1672760E+02 -0.2568960E-01  0.8715728E-01  0.2420138E+01  0.6544169E-01 -0.5756541E-01
  0.1639600E+01 -0.1664710E+02 -0.2568960E-01  0.9029204E-01  0.2387778E+01  0.6583042E-01 -0.6179813E-01
  0.3263390E+01 -0.1640620E+02 -0.2568960E-01  0.8082432E-01  0.2396481E+01  0.5940688E-01 -0.5480323E-01
  0.4855770E+01 -0.1600730E+02 -0.2568960E-01  0.7010874E-01  0.2420234E+01  0.5264531E-01 -0.4630018E-01
  0.6401380E+01 -0.1545430E+02 -0.2568960E-01  0.6223504E-01  0.2445619E+01  0.4776104E-01 -0.3990091E-01
  0.7885340E+01 -0.1475240E+02 -0.2568960E-01  0.5579618E-01  0.2474184E+01  0.4382390E-01 -0.3453519E-01
  0.9293360E+01 -0.1390850E+02 -0.2568960E-01  0.5099379E-01  0.2498971E+01  0.4082194E-01 -0.3056036E-01
  0.1061190E+02 -0.1293060E+02 -0.2568960E-01  0.4673140E-01  0.2528085E+01  0.3820915E-01 -0.2690510E-01
  0.1182820E+02 -0.1182820E+02 -0.2568960E-01  0.4281312E-01  0.2561227E+01  0.3580300E-01 -0.2347570E-01
  0.1293060E+02 -0.1061190E+02 -0.2568960E-01  0.3903705E-01  0.2601221E+01  0.3347496E-01 -0.2008279E-01
  0.1390850E+02 -0.9293360E+01 -0.2568960E-01  0.3545399E-01  0.2653547E+01  0.3131476E-01 -0.1662441E-01
  0.1475240E+02 -0.7885330E+01 -0.2568960E-01  0.3245189E-01  0.2703256E+01  0.2938386E-01 -0.1377368E-01
  0.1545430E+02 -0.6401380E+01 -0.2568960E-01  0.2976683E-01  0.2750810E+01  0.2752274E-01 -0.1133855E-01
  0.1600730E+02 -0.4855760E+01 -0.2568960E-01  0.2709750E-01  0.2807538E+01  0.2559957E-01 -0.8884629E-02
  0.1640620E+02 -0.3263390E+01 -0.2568960E-01  0.2456071E-01  0.2877132E+01  0.2370682E-01 -0.6419892E-02
  0.1664710E+02 -0.1639590E+01 -0.2568960E-01  0.2231730E-01  0.2963727E+01  0.2196521E-01 -0.3948585E-02
  0.1672760E+02  0.0000000E+00 -0.1027320E+00  0.2034316E-01  0.3075101E+01  0.2029821E-01 -0.1351651E-02
  0.1664710E+02  0.1639590E+01 -0.1027320E+00  0.1887432E-01 -0.3065142E+01  0.1881918E-01  0.1441545E-02
  0.1640620E+02  0.3263390E+01 -0.1027320E+00  0.1806331E-01 -0.2891531E+01  0.1750149E-01  0.4470010E-02
  0.1600730E+02  0.4855770E+01 -0.1027320E+00  0.1816912E-01 -0.2696583E+01  0.1639957E-01  0.7821198E-02
  0.1545430E+02  0.6401380E+01 -0.1027320E+00  0.1897658E-01 -0.2512936E+01  0.1534860E-01  0.1115935E-01
  0.1475240E+02  0.7885340E+01 -0.1027320E+00  0.2028184E-01 -0.2350667E+01  0.1426194E-01  0.1442047E-01
  0.1390850E+02  0.9293360E+01 -0.1027320E+00  0.2210575E-01 -0.2213106E+01  0.1324238E-01  0.1770039E-01
  0.1293060E+02  0.1061190E+02 -0.1027320E+00  0.2483014E-01 -0.2097702E+01  0.1248612E-01  0.2146236E-01
  0.1182820E+02  0.1182820E+02 -0.1027320E+00  0.2935371E-01 -0.2003217E+01  0.1230125E-01  0.2665183E-01
  0.1061190E+02  0.1293060E+02 -0.1027320E+00  0.3430866E-01 -0.1935862E+01  0.1224857E-01  0.3204773E-01
  0.9293360E+01  0.1390850E+02 -0.1027320E+00  0.4022926E-01 -0.1888346E+01  0.1256117E-01  0.3821793E-01
  0.7885330E+01  0.1475240E+02 -0.1027320E+00  0.4842361E-01 -0.1857765E+01  0.1370611E-01  0.4644339E-01
  0.6401380E+01  0.1545430E+02 -0.1027320E+00  0.5895915E-01 -0.1843611E+01  0.1588616E-01  0.5677862E-01
  0.4855770E+01  0.1600730E+02 -0.1027320E+00  0.7399091E-01 -0.1841736E+01  0.1980270E-01  0.7129171E-01
  0.3263390E+01  0.1640620E+02 -0.1027320E+00  0.9796679E-01 -0.1851915E+01  0.2717898E-01  0.9412117E-01
  0.1639590E+01  0.1664710E+02 -0.1027320E+00  0.1282281E+00 -0.1860636E+01  0.3664735E-01  0.1228797E+00
 -0.7311870E-06  0.1672760E+02 -0.1027320E+00  0.1470896E+00 -0.1850073E+01  0.4054672E-01  0.1413907E+00
 -0.1639590E+01  0.1664710E+02 -0.1027320E+00  0.1503339E+00 -0.1817119E+01  0.3665739E-01  0.1457962E+00
 -0.3263390E+01  0.1640620E+02 -0.1027320E+00  0.1417555E+00 -0.1760219E+01  0.2669139E-01  0.1392199E+00
 -0.4855770E+01  0.1600730E+02 -0.1027320E+00  0.1322588E+00 -0.1702906E+01  0.1742194E-01  0.1311063E+00
 -0.6401380E+01  0.1545430E+02 -0.1027320E+00  0.1254344E+00 -0.1657070E+01  0.1080825E-01  0.1249679E+00
 -0.7885340E+01  0.1475240E+02 -0.1027320E+00  0.1199388E+00 -0.1618175E+01  0.5680383E-02  0.1198042E+00
 -0.9293360E+01  0.1390850E+02 -0.1027320E+00  0.1159655E+00 -0.1586063E+01  0.1770327E-02  0.1159520E+00
 -0.1061190E+02  0.1293060E+02 -0.1027320E+00  0.1123911E+00 -0.1559046E+01 -0.1320571E-02  0.1123834E+00
 -0.1182820E+02  0.1182820E+02 -0.1027320E+00  0.1090821E+00 -0.1535186E+01 -0.3883594E-02  0.1090130E+00
 -0.1293060E+02  0.1061190E+02 -0.1027320E+00  0.1058372E+00 -0.1513318E+01 -0.6079963E-02  0.1056624E+00
 -0.1390850E+02  0.9293360E+01 -0.1027320E+00  0.1025117E+00 -0.1495715E+01 -0.7689491E-02  0.1022229E+00
 -0.1475240E+02  0.7885330E+01 -0.1027320E+00  0.9976082E-01 -0.1482442E+01 -0.8802843E-02  0.9937168E-01
 -0.1545430E+02  0.6401370E+01 -0.1027320E+00  0.9741110E-01 -0.1471991E+01 -0.9609088E-02  0.9693599E-01
 -0.1600730E+02  0.4855770E+01 -0.1027320E+00  0.9504556E-01 -0.1463059E+01 -0.1022019E-01  0.9449448E-01
 -0.1640620E+02  0.3263390E+01 -0.1027320E+00  0.9264783E-01 -0.1456604E+01 -0.1055666E-01  0.9204443E-01
 -0.1664710E+02  0.1639590E+01 -0.1027320E+00  0.9018723E-01 -0.1454254E+01 -0.1048689E-01  0.8957545E-01
 -0.1672760E+02 -0.1462370E-05 -0.1027320E+00  0.8755207E-01 -0.1455755E+01 -0.1004989E-01  0.8697335E-01
 -0.1664710E+02 -0.1639590E+01 -0.1027320E+00  0.8466661E-01 -0.1461362E+01 -0.9246975E-02  0.8416013E-01
 -0.1640620E+02 -0.3263400E+01 -0.1027320E+00  0.8150332E-01 -0.1471583E+01 -0.8072920E-02  0.8110252E-01
 -0.1600730E+02 -0.4855770E+01 -0.1027320E+00  0.7798166E-01 -0.1487416E+01 -0.6494597E-02  0.7771074E-01
 -0.1545430E+02 -0.6401380E+01 -0.1027320E+00  0.7448687E-01 -0.1507150E+01 -0.4737582E-02  0.7433606E-01
 -0.1475240E+02 -0.7885340E+01 -0.1027320E+00  0.7111359E-01 -0.1529711E+01 -0.2920865E-02  0.7105359E-01
 -0.1390850E+02 -0.9293360E+01 -0.1027320E+00  0.6777117E-01 -0.1556113E+01 -0.9950844E-03  0.6776386E-01
 -0.1293060E+02 -0.1061190E+02 -0.1027320E+00  0.6400196E-01 -0.1590358E+01  0.1251892E-02  0.6398972E-01
 -0.1182820E+02 -0.1182820E+02 -0.1027320E+00  0.5891855E-01 -0.1643712E+01  0.4292269E-02  0.5876199E-01
 -0.1061190E+02 -0.1293060E+02 -0.1027320E+00  0.5383737E-01 -0.1710296E+01  0.7485960E-02  0.5331438E-01
 -0.9293350E+01 -0.1390850E+02 -0.1027320E+00  0.4836173E-01 -0.1802369E+01  0.1109943E-01  0.4707079E-01
 -0.7885340E+01 -0.1475240E+02 -0.1027320E+00  0.4181061E-01 -0.1956617E+01  0.1573416E-01  0.3873710E-01
 -0.6401370E+01 -0.1545430E+02 -0.1027320E+00  0.3547955E-01 -0.2220789E+01  0.2147155E-01  0.2824485E-01
 -0.4855760E+01 -0.1600730E+02 -0.1027320E+00  0.3226405E-01 -0.2709615E+01  0.2930027E-01  0.1350790E-01
 -0.3263390E+01 -0.1640620E+02 -0.1027320E+00  0.4249596E-01  0.2912315E+01  0.4138388E-01 -0.9658220E-02
 -0.1639590E+01 -0.1664710E+02 -0.1027320E+00  0.6841726E-01  0.2538877E+01  0.5636210E-01 -0.3878447E-01
  0.1994750E-06 -0.1672760E+02 -0.1027320E+00  0.8694609E-01  0.2420155E+01  0.6528407E-01 -0.5742484E-01
  0.1639600E+01 -0.1664710E+02 -0.1027320E+00  0.9007999E-01  0.2387759E+01  0.6567466E-01 -0.6165422E-01
  0.3263390E+01 -0.1640620E+02 -0.1027320E+00  0.8062474E-01  0.2396501E+01  0.5926127E-01 -0.5466672E-01
  0.4855770E+01 -0.1600730E+02 -0.1027320E+00  0.6993439E-01  0.2420275E+01  0.5251626E-01 -0.4618290E-01
  0.6401380E+01 -0.1545430E+02 -0.1027320E+00  0.6207383E-01  0.2445673E+01  0.4763946E-01 -0.3979501E-01
  0.7885340E+01 -0.1475240E+02 -0.1027320E+00  0.5566325E-01  0.2474135E+01  0.4371780E-01 -0.3445506E-01
  0.9293360E+01 -0.1390850E+02 -0.1027320E+00  0.5086596E-01  0.2498991E+01  0.4072020E-01 -0.3048296E-01
  0.1061190E+02 -0.1293060E+02 -0.1027320E+00  0.4661079E-01  0.2528101E+01  0.3811096E-01 -0.2683505E-01
  0.1182820E+02 -0.1182820E+02 -0.1027320E+00  0.4270026E-01  0.2561246E+01  0.3570906E-01 -0.2341315E-01
  0.1293060E+02 -0.1061190E+02 -0.1027320E+00  0.3893621E-01  0.2601212E+01  0.3338830E-01 -0.2003123E-01
  0.1390850E+02 -0.9293360E+01 -0.1027320E+00  0.3536845E-01  0.2653326E+01  0.3123555E-01 -0.1659121E-01
