 VARIABLES="X" "Y" "Z" "abs(eta) (m)" "angle(phi) (rad)" "PRE1" "PRE2"
ZONE N=   3200 ,E =    3136 ,F=FEPOINT,ET=QUADRILATERAL
  0.1530690E+02  0.0000000E+00  0.0000000E+00  0.2656630E+00 -0.1471160E+01 -0.2642587E-01  0.2643454E+00
  0.1523320E+02  0.1500340E+01  0.0000000E+00  0.2657648E+00 -0.1470845E+01 -0.2651921E-01  0.2644384E+00
  0.1501280E+02  0.2986230E+01  0.0000000E+00  0.2659689E+00 -0.1471854E+01 -0.2627276E-01  0.2646681E+00
  0.1464780E+02  0.4443360E+01  0.0000000E+00  0.2655006E+00 -0.1473973E+01 -0.2566659E-01  0.2642571E+00
  0.1414170E+02  0.5857700E+01  0.0000000E+00  0.2640350E+00 -0.1477221E+01 -0.2467110E-01  0.2628798E+00
  0.1349950E+02  0.7215620E+01  0.0000000E+00  0.2615979E+00 -0.1481625E+01 -0.2329612E-01  0.2605585E+00
  0.1272720E+02  0.8504060E+01  0.0000000E+00  0.2588766E+00 -0.1487248E+01 -0.2160354E-01  0.2579736E+00
  0.1183240E+02  0.9710600E+01  0.0000000E+00  0.2568729E+00 -0.1494147E+01 -0.1966981E-01  0.2561187E+00
  0.1082360E+02  0.1082360E+02  0.0000000E+00  0.2546839E+00 -0.1502205E+01 -0.1745551E-01  0.2540850E+00
  0.9710590E+01  0.1183240E+02  0.0000000E+00  0.2504488E+00 -0.1511153E+01 -0.1492885E-01  0.2500035E+00
  0.8504060E+01  0.1272720E+02  0.0000000E+00  0.2472913E+00 -0.1520937E+01 -0.1232471E-01  0.2469840E+00
  0.7215620E+01  0.1349950E+02  0.0000000E+00  0.2419376E+00 -0.1532087E+01 -0.9362970E-02  0.2417564E+00
  0.5857700E+01  0.1414170E+02  0.0000000E+00  0.2327376E+00 -0.1545210E+01 -0.5954253E-02  0.2326615E+00
  0.4443360E+01  0.1464780E+02  0.0000000E+00  0.2195603E+00 -0.1560090E+01 -0.2350604E-02  0.2195477E+00
  0.2986230E+01  0.1501280E+02  0.0000000E+00  0.1914130E+00 -0.1581765E+01  0.2099545E-02  0.1914015E+00
  0.1500340E+01  0.1523320E+02  0.0000000E+00  0.8388658E-01 -0.1708012E+01  0.1147444E-01  0.8309811E-01
 -0.6690860E-06  0.1530690E+02  0.0000000E+00  0.2429919E-01 -0.2554805E+01  0.2023450E-01  0.1345420E-01
 -0.1500340E+01  0.1523320E+02  0.0000000E+00  0.6105492E-01  0.2090405E+01  0.3031625E-01 -0.5299650E-01
 -0.2986230E+01  0.1501280E+02  0.0000000E+00  0.1538279E+00  0.1871420E+01  0.4555089E-01 -0.1469290E+00
 -0.4443360E+01  0.1464780E+02  0.0000000E+00  0.1765242E+00  0.1857458E+01  0.4991254E-01 -0.1693208E+00
 -0.5857700E+01  0.1414170E+02  0.0000000E+00  0.1867888E+00  0.1855828E+01  0.5252270E-01 -0.1792524E+00
 -0.7215620E+01  0.1349950E+02  0.0000000E+00  0.1940754E+00  0.1856166E+01  0.5463463E-01 -0.1862265E+00
 -0.8504060E+01  0.1272720E+02  0.0000000E+00  0.1978873E+00  0.1859622E+01  0.5636362E-01 -0.1896906E+00
 -0.9710590E+01  0.1183240E+02  0.0000000E+00  0.1998156E+00  0.1864377E+01  0.5782297E-01 -0.1912662E+00
 -0.1082360E+02  0.1082360E+02  0.0000000E+00  0.2029276E+00  0.1867361E+01  0.5930285E-01 -0.1940690E+00
 -0.1183240E+02  0.9710590E+01  0.0000000E+00  0.2042322E+00  0.1870936E+01  0.6038199E-01 -0.1951021E+00
 -0.1272720E+02  0.8504060E+01  0.0000000E+00  0.2053740E+00  0.1874096E+01  0.6133927E-01 -0.1960000E+00
 -0.1349950E+02  0.7215620E+01  0.0000000E+00  0.2071791E+00  0.1876001E+01  0.6225489E-01 -0.1976044E+00
 -0.1414170E+02  0.5857690E+01  0.0000000E+00  0.2087654E+00  0.1877194E+01  0.6296908E-01 -0.1990425E+00
 -0.1464780E+02  0.4443360E+01  0.0000000E+00  0.2094493E+00  0.1878282E+01  0.6339268E-01 -0.1996256E+00
 -0.1501280E+02  0.2986230E+01  0.0000000E+00  0.2091840E+00  0.1879314E+01  0.6351800E-01 -0.1993074E+00
 -0.1523320E+02  0.1500340E+01  0.0000000E+00  0.2082364E+00  0.1880015E+01  0.6336943E-01 -0.1983601E+00
 -0.1530690E+02 -0.1338170E-05  0.0000000E+00  0.2073345E+00  0.1879563E+01  0.6300563E-01 -0.1975294E+00
 -0.1523320E+02 -0.1500340E+01  0.0000000E+00  0.2072733E+00  0.1877039E+01  0.6248843E-01 -0.1976295E+00
 -0.1501280E+02 -0.2986230E+01  0.0000000E+00  0.2072775E+00  0.1873270E+01  0.6174437E-01 -0.1978676E+00
 -0.1464780E+02 -0.4443360E+01  0.0000000E+00  0.2065962E+00  0.1869122E+01  0.6072279E-01 -0.1974708E+00
 -0.1414170E+02 -0.5857700E+01  0.0000000E+00  0.2049265E+00  0.1865072E+01  0.5943829E-01 -0.1961172E+00
 -0.1349950E+02 -0.7215620E+01  0.0000000E+00  0.2022909E+00  0.1861139E+01  0.5791199E-01 -0.1938241E+00
 -0.1272720E+02 -0.8504060E+01  0.0000000E+00  0.1993581E+00  0.1856502E+01  0.5618592E-01 -0.1912767E+00
 -0.1183240E+02 -0.9710600E+01  0.0000000E+00  0.1971011E+00  0.1850068E+01  0.5433208E-01 -0.1894647E+00
 -0.1082360E+02 -0.1082360E+02  0.0000000E+00  0.1946413E+00  0.1842899E+01  0.5231122E-01 -0.1874801E+00
 -0.9710600E+01 -0.1183240E+02  0.0000000E+00  0.1901375E+00  0.1836625E+01  0.4995087E-01 -0.1834589E+00
 -0.8504050E+01 -0.1272720E+02  0.0000000E+00  0.1866458E+00  0.1827904E+01  0.4746116E-01 -0.1805106E+00
 -0.7215620E+01 -0.1349950E+02  0.0000000E+00  0.1809936E+00  0.1820648E+01  0.4475259E-01 -0.1753736E+00
 -0.5857690E+01 -0.1414170E+02  0.0000000E+00  0.1715448E+00  0.1816656E+01  0.4175231E-01 -0.1663862E+00
 -0.4443360E+01 -0.1464780E+02  0.0000000E+00  0.1581247E+00  0.1815253E+01  0.3827079E-01 -0.1534235E+00
 -0.2986230E+01 -0.1501280E+02  0.0000000E+00  0.1299632E+00  0.1832752E+01  0.3365664E-01 -0.1255296E+00
 -0.1500340E+01 -0.1523320E+02  0.0000000E+00  0.2979176E-01  0.2503552E+01  0.2393066E-01 -0.1774465E-01
  0.1825330E-06 -0.1530690E+02  0.0000000E+00  0.5482892E-01 -0.1905363E+01  0.1800361E-01  0.5178881E-01
  0.1500340E+01 -0.1523320E+02  0.0000000E+00  0.1191278E+00 -0.1684232E+01  0.1348436E-01  0.1183622E+00
  0.2986230E+01 -0.1501280E+02  0.0000000E+00  0.2130640E+00 -0.1617673E+01  0.9984067E-02  0.2128299E+00
  0.4443360E+01 -0.1464780E+02  0.0000000E+00  0.2355449E+00 -0.1594144E+01  0.5498854E-02  0.2354808E+00
  0.5857700E+01 -0.1414170E+02  0.0000000E+00  0.2455723E+00 -0.1575737E+01  0.1213303E-02  0.2455693E+00
  0.7215620E+01 -0.1349950E+02  0.0000000E+00  0.2526738E+00 -0.1559379E+01 -0.2884696E-02  0.2526574E+00
  0.8504060E+01 -0.1272720E+02  0.0000000E+00  0.2562988E+00 -0.1545027E+01 -0.6604013E-02  0.2562138E+00
  0.9710600E+01 -0.1183240E+02  0.0000000E+00  0.2580550E+00 -0.1532048E+01 -0.9996573E-02  0.2578613E+00
  0.1082360E+02 -0.1082360E+02  0.0000000E+00  0.2610570E+00 -0.1520449E+01 -0.1313788E-01  0.2607262E+00
  0.1183240E+02 -0.9710590E+01  0.0000000E+00  0.2622952E+00 -0.1509717E+01 -0.1601081E-01  0.2618061E+00
  0.1272720E+02 -0.8504060E+01  0.0000000E+00  0.2633958E+00 -0.1500359E+01 -0.1853747E-01  0.2627427E+00
  0.1349950E+02 -0.7215620E+01  0.0000000E+00  0.2651898E+00 -0.1492594E+01 -0.2071741E-01  0.2643793E+00
  0.1414170E+02 -0.5857700E+01  0.0000000E+00  0.2667975E+00 -0.1486104E+01 -0.2256869E-01  0.2658412E+00
  0.1464780E+02 -0.4443350E+01  0.0000000E+00  0.2675233E+00 -0.1480674E+01 -0.2407728E-01  0.2664376E+00
  0.1501280E+02 -0.2986230E+01  0.0000000E+00  0.2673205E+00 -0.1476298E+01 -0.2522377E-01  0.2661278E+00
  0.1523320E+02 -0.1500330E+01  0.0000000E+00  0.2664512E+00 -0.1473055E+01 -0.2600182E-01  0.2651795E+00
  0.1530690E+02  0.0000000E+00 -0.2568960E-01  0.2654594E+00 -0.1471156E+01 -0.2640678E-01  0.2641428E+00
  0.1523320E+02  0.1500340E+01 -0.2568960E-01  0.2655600E+00 -0.1470853E+01 -0.2649683E-01  0.2642348E+00
  0.1501280E+02  0.2986230E+01 -0.2568960E-01  0.2657610E+00 -0.1471854E+01 -0.2625202E-01  0.2644613E+00
  0.1464780E+02  0.4443360E+01 -0.2568960E-01  0.2652948E+00 -0.1473975E+01 -0.2564611E-01  0.2640522E+00
  0.1414170E+02  0.5857700E+01 -0.2568960E-01  0.2638384E+00 -0.1477221E+01 -0.2465263E-01  0.2626841E+00
  0.1349950E+02  0.7215620E+01 -0.2568960E-01  0.2614129E+00 -0.1481629E+01 -0.2327872E-01  0.2603743E+00
  0.1272720E+02  0.8504060E+01 -0.2568960E-01  0.2587015E+00 -0.1487248E+01 -0.2158904E-01  0.2577991E+00
  0.1183240E+02  0.9710600E+01 -0.2568960E-01  0.2566986E+00 -0.1494148E+01 -0.1965632E-01  0.2559450E+00
  0.1082360E+02  0.1082360E+02 -0.2568960E-01  0.2545053E+00 -0.1502205E+01 -0.1744308E-01  0.2539068E+00
  0.9710590E+01  0.1183240E+02 -0.2568960E-01  0.2502888E+00 -0.1511154E+01 -0.1491896E-01  0.2498438E+00
  0.8504060E+01  0.1272720E+02 -0.2568960E-01  0.2471244E+00 -0.1520940E+01 -0.1231553E-01  0.2468173E+00
  0.7215620E+01  0.1349950E+02 -0.2568960E-01  0.2417839E+00 -0.1532088E+01 -0.9356715E-02  0.2416027E+00
  0.5857700E+01  0.1414170E+02 -0.2568960E-01  0.2325857E+00 -0.1545206E+01 -0.5951245E-02  0.2325096E+00
  0.4443360E+01  0.1464780E+02 -0.2568960E-01  0.2194289E+00 -0.1560091E+01 -0.2349064E-02  0.2194163E+00
  0.2986230E+01  0.1501280E+02 -0.2568960E-01  0.1912958E+00 -0.1581750E+01  0.2095385E-02  0.1912843E+00
  0.1500340E+01  0.1523320E+02 -0.2568960E-01  0.8386374E-01 -0.1707925E+01  0.1146408E-01  0.8307648E-01
 -0.6690860E-06  0.1530690E+02 -0.2568960E-01  0.2428290E-01 -0.2554824E+01  0.2022120E-01  0.1344479E-01
 -0.1500340E+01  0.1523320E+02 -0.2568960E-01  0.6104578E-01  0.2090170E+01  0.3029926E-01 -0.5299569E-01
 -0.2986230E+01  0.1501280E+02 -0.2568960E-01  0.1537430E+00  0.1871386E+01  0.4552071E-01 -0.1468495E+00
 -0.4443360E+01  0.1464780E+02 -0.2568960E-01  0.1764259E+00  0.1857436E+01  0.4988102E-01 -0.1692276E+00
 -0.5857700E+01  0.1414170E+02 -0.2568960E-01  0.1866718E+00  0.1855809E+01  0.5248637E-01 -0.1791411E+00
 -0.7215620E+01  0.1349950E+02 -0.2568960E-01  0.1939564E+00  0.1856154E+01  0.5459887E-01 -0.1861130E+00
 -0.8504060E+01  0.1272720E+02 -0.2568960E-01  0.1977575E+00  0.1859617E+01  0.5632560E-01 -0.1895665E+00
 -0.9710590E+01  0.1183240E+02 -0.2568960E-01  0.1996920E+00  0.1864362E+01  0.5778426E-01 -0.1911488E+00
 -0.1082360E+02  0.1082360E+02 -0.2568960E-01  0.2027869E+00  0.1867356E+01  0.5926075E-01 -0.1939348E+00
 -0.1183240E+02  0.9710590E+01 -0.2568960E-01  0.2040951E+00  0.1870926E+01  0.6033948E-01 -0.1949716E+00
 -0.1272720E+02  0.8504060E+01 -0.2568960E-01  0.2052378E+00  0.1874090E+01  0.6129733E-01 -0.1958703E+00
 -0.1349950E+02  0.7215620E+01 -0.2568960E-01  0.2070335E+00  0.1876003E+01  0.6221151E-01 -0.1974654E+00
 -0.1414170E+02  0.5857690E+01 -0.2568960E-01  0.2086090E+00  0.1877211E+01  0.6292523E-01 -0.1988922E+00
 -0.1464780E+02  0.4443360E+01 -0.2568960E-01  0.2092854E+00  0.1878302E+01  0.6334701E-01 -0.1994681E+00
 -0.1501280E+02  0.2986230E+01 -0.2568960E-01  0.2090189E+00  0.1879338E+01  0.6347260E-01 -0.1991486E+00
 -0.1523320E+02  0.1500340E+01 -0.2568960E-01  0.2080735E+00  0.1880033E+01  0.6332334E-01 -0.1982038E+00
 -0.1530690E+02 -0.1338170E-05 -0.2568960E-01  0.2071744E+00  0.1879581E+01  0.6296044E-01 -0.1973759E+00
 -0.1523320E+02 -0.1500340E+01 -0.2568960E-01  0.2071107E+00  0.1877058E+01  0.6244311E-01 -0.1974733E+00
 -0.1501280E+02 -0.2986230E+01 -0.2568960E-01  0.2071137E+00  0.1873294E+01  0.6170030E-01 -0.1977097E+00
 -0.1464780E+02 -0.4443360E+01 -0.2568960E-01  0.2064337E+00  0.1869141E+01  0.6067879E-01 -0.1973144E+00
 -0.1414170E+02 -0.5857700E+01 -0.2568960E-01  0.2047731E+00  0.1865091E+01  0.5939754E-01 -0.1959693E+00
 -0.1349950E+02 -0.7215620E+01 -0.2568960E-01  0.2021489E+00  0.1861135E+01  0.5787057E-01 -0.1936883E+00
 -0.1272720E+02 -0.8504060E+01 -0.2568960E-01  0.1992268E+00  0.1856485E+01  0.5614585E-01 -0.1911517E+00
 -0.1183240E+02 -0.9710600E+01 -0.2568960E-01  0.1969699E+00  0.1850064E+01  0.5429518E-01 -0.1893388E+00
 -0.1082360E+02 -0.1082360E+02 -0.2568960E-01  0.1945060E+00  0.1842893E+01  0.5227377E-01 -0.1873500E+00
 -0.9710600E+01 -0.1183240E+02 -0.2568960E-01  0.1900215E+00  0.1836609E+01  0.4991745E-01 -0.1833478E+00
 -0.8504050E+01 -0.1272720E+02 -0.2568960E-01  0.1865242E+00  0.1827893E+01  0.4742816E-01 -0.1803936E+00
 -0.7215620E+01 -0.1349950E+02 -0.2568960E-01  0.1808833E+00  0.1820632E+01  0.4472249E-01 -0.1752675E+00
 -0.5857690E+01 -0.1414170E+02 -0.2568960E-01  0.1714373E+00  0.1816647E+01  0.4172467E-01 -0.1662823E+00
 -0.4443360E+01 -0.1464780E+02 -0.2568960E-01  0.1580381E+00  0.1815225E+01  0.3824545E-01 -0.1533405E+00
 -0.2986230E+01 -0.1501280E+02 -0.2568960E-01  0.1298909E+00  0.1832714E+01  0.3363310E-01 -0.1254610E+00
 -0.1500340E+01 -0.1523320E+02 -0.2568960E-01  0.2979497E-01  0.2502559E+01  0.2391559E-01 -0.1777032E-01
  0.1825330E-06 -0.1530690E+02 -0.2568960E-01  0.5478908E-01 -0.1905385E+01  0.1799168E-01  0.5175078E-01
  0.1500340E+01 -0.1523320E+02 -0.2568960E-01  0.1190806E+00 -0.1684204E+01  0.1347570E-01  0.1183157E+00
  0.2986230E+01 -0.1501280E+02 -0.2568960E-01  0.2129354E+00 -0.1617664E+01  0.9976115E-02  0.2127016E+00
  0.4443360E+01 -0.1464780E+02 -0.2568960E-01  0.2354027E+00 -0.1594142E+01  0.5495155E-02  0.2353385E+00
  0.5857700E+01 -0.1414170E+02 -0.2568960E-01  0.2454129E+00 -0.1575736E+01  0.1212207E-02  0.2454099E+00
  0.7215620E+01 -0.1349950E+02 -0.2568960E-01  0.2525099E+00 -0.1559382E+01 -0.2882229E-02  0.2524935E+00
  0.8504060E+01 -0.1272720E+02 -0.2568960E-01  0.2561262E+00 -0.1545030E+01 -0.6598644E-02  0.2560412E+00
  0.9710600E+01 -0.1183240E+02 -0.2568960E-01  0.2578893E+00 -0.1532049E+01 -0.9990018E-02  0.2576957E+00
  0.1082360E+02 -0.1082360E+02 -0.2568960E-01  0.2608730E+00 -0.1520454E+01 -0.1312750E-01  0.2605425E+00
  0.1183240E+02 -0.9710590E+01 -0.2568960E-01  0.2621147E+00 -0.1509723E+01 -0.1599827E-01  0.2616260E+00
  0.1272720E+02 -0.8504060E+01 -0.2568960E-01  0.2632174E+00 -0.1500367E+01 -0.1852281E-01  0.2625648E+00
  0.1349950E+02 -0.7215620E+01 -0.2568960E-01  0.2650009E+00 -0.1492598E+01 -0.2070161E-01  0.2641911E+00
  0.1414170E+02 -0.5857700E+01 -0.2568960E-01  0.2665974E+00 -0.1486101E+01 -0.2255270E-01  0.2656418E+00
  0.1464780E+02 -0.4443350E+01 -0.2568960E-01  0.2673171E+00 -0.1480675E+01 -0.2405845E-01  0.2662323E+00
  0.1501280E+02 -0.2986230E+01 -0.2568960E-01  0.2671115E+00 -0.1476298E+01 -0.2520414E-01  0.2659197E+00
  0.1523320E+02 -0.1500330E+01 -0.2568960E-01  0.2662457E+00 -0.1473058E+01 -0.2598108E-01  0.2649750E+00
  0.1530690E+02  0.0000000E+00 -0.1027320E+00  0.2648668E+00 -0.1471161E+01 -0.2634655E-01  0.2635531E+00
  0.1523320E+02  0.1500340E+01 -0.1027320E+00  0.2649605E+00 -0.1470855E+01 -0.2643642E-01  0.2636383E+00
  0.1501280E+02  0.2986230E+01 -0.1027320E+00  0.2651541E+00 -0.1471855E+01 -0.2619193E-01  0.2638573E+00
  0.1464780E+02  0.4443360E+01 -0.1027320E+00  0.2646931E+00 -0.1473976E+01 -0.2558760E-01  0.2634534E+00
  0.1414170E+02  0.5857700E+01 -0.1027320E+00  0.2632605E+00 -0.1477226E+01 -0.2459735E-01  0.2621089E+00
  0.1349950E+02  0.7215620E+01 -0.1027320E+00  0.2608689E+00 -0.1481638E+01 -0.2322782E-01  0.2598327E+00
  0.1272720E+02  0.8504060E+01 -0.1027320E+00  0.2581891E+00 -0.1487258E+01 -0.2154372E-01  0.2572888E+00
  0.1183240E+02  0.9710600E+01 -0.1027320E+00  0.2561852E+00 -0.1494152E+01 -0.1961597E-01  0.2554331E+00
  0.1082360E+02  0.1082360E+02 -0.1027320E+00  0.2539764E+00 -0.1502206E+01 -0.1740655E-01  0.2533792E+00
  0.9710590E+01  0.1183240E+02 -0.1027320E+00  0.2498168E+00 -0.1511155E+01 -0.1489058E-01  0.2493727E+00
  0.8504060E+01  0.1272720E+02 -0.1027320E+00  0.2466328E+00 -0.1520939E+01 -0.1229123E-01  0.2463264E+00
  0.7215620E+01  0.1349950E+02 -0.1027320E+00  0.2413038E+00 -0.1532089E+01 -0.9337831E-02  0.2411231E+00
  0.5857700E+01  0.1414170E+02 -0.1027320E+00  0.2321383E+00 -0.1545192E+01 -0.5943150E-02  0.2320622E+00
  0.4443360E+01  0.1464780E+02 -0.1027320E+00  0.2190381E+00 -0.1560065E+01 -0.2350551E-02  0.2190255E+00
  0.2986230E+01  0.1501280E+02 -0.1027320E+00  0.1909236E+00 -0.1581720E+01  0.2085495E-02  0.1909123E+00
  0.1500340E+01  0.1523320E+02 -0.1027320E+00  0.8379489E-01 -0.1707697E+01  0.1143578E-01  0.8301088E-01
 -0.6690860E-06  0.1530690E+02 -0.1027320E+00  0.2423233E-01 -0.2555014E+01  0.2018164E-01  0.1341295E-01
 -0.1500340E+01  0.1523320E+02 -0.1027320E+00  0.6101322E-01  0.2089559E+01  0.3025073E-01 -0.5298591E-01
 -0.2986230E+01  0.1501280E+02 -0.1027320E+00  0.1534680E+00  0.1871298E+01  0.4542650E-01 -0.1465908E+00
 -0.4443360E+01  0.1464780E+02 -0.1027320E+00  0.1761315E+00  0.1857361E+01  0.4978515E-01 -0.1689489E+00
 -0.5857700E+01  0.1414170E+02 -0.1027320E+00  0.1863301E+00  0.1855752E+01  0.5238013E-01 -0.1788162E+00
 -0.7215620E+01  0.1349950E+02 -0.1027320E+00  0.1935809E+00  0.1856123E+01  0.5448747E-01 -0.1857543E+00
 -0.8504060E+01  0.1272720E+02 -0.1027320E+00  0.1973731E+00  0.1859582E+01  0.5620963E-01 -0.1891999E+00
 -0.9710590E+01  0.1183240E+02 -0.1027320E+00  0.1993293E+00  0.1864304E+01  0.5766828E-01 -0.1908050E+00
 -0.1082360E+02  0.1082360E+02 -0.1027320E+00  0.2023719E+00  0.1867335E+01  0.5913544E-01 -0.1935391E+00
 -0.1183240E+02  0.9710590E+01 -0.1027320E+00  0.2036949E+00  0.1870894E+01  0.6021499E-01 -0.1945913E+00
 -0.1272720E+02  0.8504060E+01 -0.1027320E+00  0.2048409E+00  0.1874055E+01  0.6117202E-01 -0.1954937E+00
 -0.1349950E+02  0.7215620E+01 -0.1027320E+00  0.2066096E+00  0.1875988E+01  0.6208114E-01 -0.1970620E+00
 -0.1414170E+02  0.5857690E+01 -0.1027320E+00  0.2081529E+00  0.1877220E+01  0.6278942E-01 -0.1984568E+00
 -0.1464780E+02  0.4443360E+01 -0.1027320E+00  0.2088085E+00  0.1878338E+01  0.6320975E-01 -0.1990114E+00
 -0.1501280E+02  0.2986230E+01 -0.1027320E+00  0.2085376E+00  0.1879374E+01  0.6333375E-01 -0.1986877E+00
 -0.1523320E+02  0.1500340E+01 -0.1027320E+00  0.2076008E+00  0.1880071E+01  0.6318697E-01 -0.1977511E+00
 -0.1530690E+02 -0.1338170E-05 -0.1027320E+00  0.2067104E+00  0.1879612E+01  0.6282554E-01 -0.1969318E+00
 -0.1523320E+02 -0.1500340E+01 -0.1027320E+00  0.2066414E+00  0.1877100E+01  0.6230983E-01 -0.1970232E+00
 -0.1501280E+02 -0.2986230E+01 -0.1027320E+00  0.2066369E+00  0.1873336E+01  0.6156652E-01 -0.1972521E+00
 -0.1464780E+02 -0.4443360E+01 -0.1027320E+00  0.2059637E+00  0.1869181E+01  0.6054844E-01 -0.1968627E+00
 -0.1414170E+02 -0.5857700E+01 -0.1027320E+00  0.2043242E+00  0.1865106E+01  0.5927027E-01 -0.1955388E+00
 -0.1349950E+02 -0.7215620E+01 -0.1027320E+00  0.2017356E+00  0.1861119E+01  0.5774908E-01 -0.1932933E+00
 -0.1272720E+02 -0.8504060E+01 -0.1027320E+00  0.1988439E+00  0.1856445E+01  0.5603022E-01 -0.1907866E+00
 -0.1183240E+02 -0.9710600E+01 -0.1027320E+00  0.1965858E+00  0.1850021E+01  0.5418112E-01 -0.1889719E+00
 -0.1082360E+02 -0.1082360E+02 -0.1027320E+00  0.1941077E+00  0.1842866E+01  0.5216163E-01 -0.1869678E+00
 -0.9710600E+01 -0.1183240E+02 -0.1027320E+00  0.1896800E+00  0.1836533E+01  0.4981387E-01 -0.1830221E+00
 -0.8504050E+01 -0.1272720E+02 -0.1027320E+00  0.1861636E+00  0.1827855E+01  0.4732969E-01 -0.1800466E+00
 -0.7215620E+01 -0.1349950E+02 -0.1027320E+00  0.1805365E+00  0.1820593E+01  0.4462980E-01 -0.1749332E+00
 -0.5857690E+01 -0.1414170E+02 -0.1027320E+00  0.1711221E+00  0.1816571E+01  0.4163536E-01 -0.1659797E+00
 -0.4443360E+01 -0.1464780E+02 -0.1027320E+00  0.1577805E+00  0.1815133E+01  0.3816905E-01 -0.1530941E+00
 -0.2986230E+01 -0.1501280E+02 -0.1027320E+00  0.1296513E+00  0.1832635E+01  0.3356117E-01 -0.1252322E+00
 -0.1500340E+01 -0.1523320E+02 -0.1027320E+00  0.2980867E-01  0.2499641E+01  0.2387462E-01 -0.1784823E-01
  0.1825330E-06 -0.1530690E+02 -0.1027320E+00  0.5467341E-01 -0.1905444E+01  0.1795674E-01  0.5164046E-01
  0.1500340E+01 -0.1523320E+02 -0.1027320E+00  0.1189259E+00 -0.1684132E+01  0.1344972E-01  0.1181629E+00
  0.2986230E+01 -0.1501280E+02 -0.1027320E+00  0.2125321E+00 -0.1617646E+01  0.9953308E-02  0.2122990E+00
  0.4443360E+01 -0.1464780E+02 -0.1027320E+00  0.2349796E+00 -0.1594137E+01  0.5484200E-02  0.2349156E+00
  0.5857700E+01 -0.1414170E+02 -0.1027320E+00  0.2449426E+00 -0.1575727E+01  0.1207770E-02  0.2449396E+00
  0.7215620E+01 -0.1349950E+02 -0.1027320E+00  0.2520073E+00 -0.1559392E+01 -0.2873972E-02  0.2519909E+00
  0.8504060E+01 -0.1272720E+02 -0.1027320E+00  0.2556132E+00 -0.1545030E+01 -0.6585417E-02  0.2555284E+00
  0.9710600E+01 -0.1183240E+02 -0.1027320E+00  0.2573999E+00 -0.1532056E+01 -0.9969139E-02  0.2572068E+00
  0.1082360E+02 -0.1082360E+02 -0.1027320E+00  0.2603317E+00 -0.1520459E+01 -0.1309888E-01  0.2600020E+00
  0.1183240E+02 -0.9710590E+01 -0.1027320E+00  0.2615885E+00 -0.1509728E+01 -0.1596475E-01  0.2611008E+00
  0.1272720E+02 -0.8504060E+01 -0.1027320E+00  0.2626919E+00 -0.1500378E+01 -0.1848313E-01  0.2620409E+00
