 VARIABLES="X" "Y" "Z" "abs(eta) (m)" "angle(phi) (rad)" "PRE1" "PRE2"
ZONE N=   3200 ,E =    3136 ,F=FEPOINT,ET=QUADRILATERAL
  0.1672760E+02  0.0000000E+00  0.0000000E+00  0.1174559E+00 -0.1267760E+01 -0.3505113E-01  0.1121040E+00
  0.1664710E+02  0.1639590E+01  0.0000000E+00  0.1144257E+00 -0.1269872E+01 -0.3391609E-01  0.1092838E+00
  0.1640620E+02  0.3263390E+01  0.0000000E+00  0.1111404E+00 -0.1274668E+01 -0.3243294E-01  0.1063029E+00
  0.1600730E+02  0.4855770E+01  0.0000000E+00  0.1072542E+00 -0.1284519E+01 -0.3028680E-01  0.1028891E+00
  0.1545430E+02  0.6401380E+01  0.0000000E+00  0.1026230E+00 -0.1300269E+01 -0.2742498E-01  0.9889063E-01
  0.1475240E+02  0.7885340E+01  0.0000000E+00  0.9715892E-01 -0.1323336E+01 -0.2379838E-01  0.9419922E-01
  0.1390850E+02  0.9293360E+01  0.0000000E+00  0.9145483E-01 -0.1353339E+01 -0.1973118E-01  0.8930098E-01
  0.1293060E+02  0.1061190E+02  0.0000000E+00  0.8600961E-01 -0.1388800E+01 -0.1556720E-01  0.8458910E-01
  0.1182820E+02  0.1182820E+02  0.0000000E+00  0.8012778E-01 -0.1433807E+01 -0.1094234E-01  0.7937711E-01
  0.1061190E+02  0.1293060E+02  0.0000000E+00  0.7286533E-01 -0.1498793E+01 -0.5242041E-02  0.7267652E-01
  0.9293360E+01  0.1390850E+02  0.0000000E+00  0.6512453E-01 -0.1586462E+01  0.1020188E-02  0.6511654E-01
  0.7885330E+01  0.1475240E+02  0.0000000E+00  0.5633276E-01 -0.1720715E+01  0.8413736E-02  0.5570088E-01
  0.6401380E+01  0.1545430E+02  0.0000000E+00  0.4671109E-01 -0.1957952E+01  0.1763606E-01  0.4325384E-01
  0.4855770E+01  0.1600730E+02  0.0000000E+00  0.3962931E-01 -0.2437488E+01  0.3020512E-01  0.2565410E-01
  0.3263390E+01  0.1640620E+02  0.0000000E+00  0.4896383E-01  0.3111390E+01  0.4894149E-01 -0.1478631E-02
  0.1639590E+01  0.1664710E+02  0.0000000E+00  0.8034240E-01  0.2683114E+01  0.7204517E-01 -0.3555832E-01
 -0.7311870E-06  0.1672760E+02  0.0000000E+00  0.1039827E+00  0.2551828E+01  0.8641705E-01 -0.5783161E-01
 -0.1639590E+01  0.1664710E+02  0.0000000E+00  0.1097050E+00  0.2514795E+01  0.8885121E-01 -0.6434796E-01
 -0.3263390E+01  0.1640620E+02  0.0000000E+00  0.9976678E-01  0.2522206E+01  0.8123357E-01 -0.5791821E-01
 -0.4855770E+01  0.1600730E+02  0.0000000E+00  0.8777259E-01  0.2545610E+01  0.7264037E-01 -0.4926868E-01
 -0.6401380E+01  0.1545430E+02  0.0000000E+00  0.7858488E-01  0.2572032E+01  0.6617931E-01 -0.4237786E-01
 -0.7885340E+01  0.1475240E+02  0.0000000E+00  0.7228835E-01  0.2593609E+01  0.6170363E-01 -0.3765989E-01
 -0.9293360E+01  0.1390850E+02  0.0000000E+00  0.6632053E-01  0.2621825E+01  0.5756190E-01 -0.3293996E-01
 -0.1061190E+02  0.1293060E+02  0.0000000E+00  0.6102141E-01  0.2651815E+01  0.5384758E-01 -0.2870627E-01
 -0.1182820E+02  0.1182820E+02  0.0000000E+00  0.5610675E-01  0.2683194E+01  0.5031443E-01 -0.2482793E-01
 -0.1293060E+02  0.1061190E+02  0.0000000E+00  0.5207096E-01  0.2711720E+01  0.4733350E-01 -0.2170081E-01
 -0.1390850E+02  0.9293360E+01  0.0000000E+00  0.4824943E-01  0.2742681E+01  0.4446108E-01 -0.1874085E-01
 -0.1475240E+02  0.7885330E+01  0.0000000E+00  0.4439946E-01  0.2779408E+01  0.4151905E-01 -0.1573152E-01
 -0.1545430E+02  0.6401370E+01  0.0000000E+00  0.4078234E-01  0.2819926E+01  0.3869061E-01 -0.1289327E-01
 -0.1600730E+02  0.4855770E+01  0.0000000E+00  0.3739659E-01  0.2867630E+01  0.3600194E-01 -0.1011759E-01
 -0.1640620E+02  0.3263390E+01  0.0000000E+00  0.3415369E-01  0.2929171E+01  0.3338603E-01 -0.7200545E-02
 -0.1664710E+02  0.1639590E+01  0.0000000E+00  0.3114255E-01  0.3009205E+01  0.3087004E-01 -0.4110856E-02
 -0.1672760E+02 -0.1462370E-05  0.0000000E+00  0.2827882E-01  0.3099015E+01  0.2825319E-01 -0.1203686E-02
 -0.1664710E+02 -0.1639590E+01  0.0000000E+00  0.2559671E-01 -0.3079219E+01  0.2554694E-01  0.1595526E-02
 -0.1640620E+02 -0.3263400E+01  0.0000000E+00  0.2328910E-01 -0.2942585E+01  0.2282945E-01  0.4604188E-02
 -0.1600730E+02 -0.4855770E+01  0.0000000E+00  0.2186935E-01 -0.2765402E+01  0.2034004E-01  0.8034377E-02
 -0.1545430E+02 -0.6401380E+01  0.0000000E+00  0.2177917E-01 -0.2556271E+01  0.1815370E-01  0.1203228E-01
 -0.1475240E+02 -0.7885340E+01  0.0000000E+00  0.2338937E-01 -0.2346323E+01  0.1637472E-01  0.1670123E-01
 -0.1390850E+02 -0.9293360E+01  0.0000000E+00  0.2617558E-01 -0.2173109E+01  0.1482977E-01  0.2156940E-01
 -0.1293060E+02 -0.1061190E+02  0.0000000E+00  0.2942075E-01 -0.2038138E+01  0.1325447E-01  0.2626593E-01
 -0.1182820E+02 -0.1182820E+02  0.0000000E+00  0.3365715E-01 -0.1934343E+01  0.1196818E-01  0.3145738E-01
 -0.1061190E+02 -0.1293060E+02  0.0000000E+00  0.3980860E-01 -0.1864215E+01  0.1151369E-01  0.3810721E-01
 -0.9293350E+01 -0.1390850E+02  0.0000000E+00  0.4702921E-01 -0.1818274E+01  0.1152023E-01  0.4559639E-01
 -0.7885340E+01 -0.1475240E+02  0.0000000E+00  0.5627483E-01 -0.1793090E+01  0.1240677E-01  0.5489015E-01
 -0.6401370E+01 -0.1545430E+02  0.0000000E+00  0.6869177E-01 -0.1784136E+01  0.1454377E-01  0.6713448E-01
 -0.4855760E+01 -0.1600730E+02  0.0000000E+00  0.8657752E-01 -0.1796812E+01  0.1940170E-01  0.8437560E-01
 -0.3263390E+01 -0.1640620E+02  0.0000000E+00  0.1146047E+00 -0.1824399E+01  0.2875347E-01  0.1109391E+00
 -0.1639590E+01 -0.1664710E+02  0.0000000E+00  0.1500157E+00 -0.1845532E+01  0.4069819E-01  0.1443896E+00
  0.1994750E-06 -0.1672760E+02  0.0000000E+00  0.1723448E+00 -0.1832621E+01  0.4461026E-01  0.1664712E+00
  0.1639600E+01 -0.1664710E+02  0.0000000E+00  0.1774037E+00 -0.1785453E+01  0.3778909E-01  0.1733322E+00
  0.3263390E+01 -0.1640620E+02  0.0000000E+00  0.1691440E+00 -0.1702720E+01  0.2224935E-01  0.1676742E+00
  0.4855770E+01 -0.1600730E+02  0.0000000E+00  0.1598989E+00 -0.1620247E+01  0.7903850E-02  0.1597035E+00
  0.6401380E+01 -0.1545430E+02  0.0000000E+00  0.1532757E+00 -0.1553794E+01 -0.2605964E-02  0.1532535E+00
  0.7885340E+01 -0.1475240E+02  0.0000000E+00  0.1491528E+00 -0.1501873E+01 -0.1027191E-01  0.1487987E+00
  0.9293360E+01 -0.1390850E+02  0.0000000E+00  0.1451916E+00 -0.1456153E+01 -0.1660882E-01  0.1442385E+00
  0.1061190E+02 -0.1293060E+02  0.0000000E+00  0.1417837E+00 -0.1416565E+01 -0.2178089E-01  0.1401007E+00
  0.1182820E+02 -0.1182820E+02  0.0000000E+00  0.1387636E+00 -0.1381191E+01 -0.2615290E-01  0.1362768E+00
  0.1293060E+02 -0.1061190E+02  0.0000000E+00  0.1363393E+00 -0.1353896E+01 -0.2934069E-01  0.1331447E+00
  0.1390850E+02 -0.9293360E+01  0.0000000E+00  0.1339968E+00 -0.1330741E+01 -0.3185856E-01  0.1301544E+00
  0.1475240E+02 -0.7885330E+01  0.0000000E+00  0.1315705E+00 -0.1309600E+01 -0.3397624E-01  0.1271079E+00
  0.1545430E+02 -0.6401380E+01  0.0000000E+00  0.1291799E+00 -0.1292488E+01 -0.3548955E-01  0.1242092E+00
  0.1600730E+02 -0.4855760E+01  0.0000000E+00  0.1266512E+00 -0.1280260E+01 -0.3628132E-01  0.1213433E+00
  0.1640620E+02 -0.3263390E+01  0.0000000E+00  0.1237917E+00 -0.1272194E+01 -0.3641761E-01  0.1183138E+00
  0.1664710E+02 -0.1639590E+01  0.0000000E+00  0.1205650E+00 -0.1268360E+01 -0.3590988E-01  0.1150930E+00
  0.1672760E+02  0.0000000E+00 -0.2568960E-01  0.1173200E+00 -0.1267753E+01 -0.3501134E-01  0.1119740E+00
  0.1664710E+02  0.1639590E+01 -0.2568960E-01  0.1142918E+00 -0.1269868E+01 -0.3387685E-01  0.1091557E+00
  0.1640620E+02  0.3263390E+01 -0.2568960E-01  0.1110090E+00 -0.1274676E+01 -0.3239368E-01  0.1061774E+00
  0.1600730E+02  0.4855770E+01 -0.2568960E-01  0.1071275E+00 -0.1284536E+01 -0.3024921E-01  0.1027681E+00
  0.1545430E+02  0.6401380E+01 -0.2568960E-01  0.1025046E+00 -0.1300286E+01 -0.2739162E-01  0.9877703E-01
  0.1475240E+02  0.7885340E+01 -0.2568960E-01  0.9705210E-01 -0.1323346E+01 -0.2377120E-01  0.9409592E-01
  0.1390850E+02  0.9293360E+01 -0.2568960E-01  0.9135827E-01 -0.1353336E+01 -0.1971055E-01  0.8920667E-01
  0.1293060E+02  0.1061190E+02 -0.2568960E-01  0.8591706E-01 -0.1388811E+01 -0.1554946E-01  0.8449826E-01
  0.1182820E+02  0.1182820E+02 -0.2568960E-01  0.8003832E-01 -0.1433836E+01 -0.1092781E-01  0.7928882E-01
  0.1061190E+02  0.1293060E+02 -0.2568960E-01  0.7278825E-01 -0.1498788E+01 -0.5236814E-02  0.7259963E-01
  0.9293360E+01  0.1390850E+02 -0.2568960E-01  0.6505416E-01 -0.1586480E+01  0.1020281E-02  0.6504615E-01
  0.7885330E+01  0.1475240E+02 -0.2568960E-01  0.5627101E-01 -0.1720754E+01  0.8406692E-02  0.5563951E-01
  0.6401380E+01  0.1545430E+02 -0.2568960E-01  0.4665950E-01 -0.1958038E+01  0.1762028E-01  0.4320456E-01
  0.4855770E+01  0.1600730E+02 -0.2568960E-01  0.3958705E-01 -0.2437628E+01  0.3017650E-01  0.2562253E-01
  0.3263390E+01  0.1640620E+02 -0.2568960E-01  0.4891938E-01  0.3111208E+01  0.4889680E-01 -0.1486181E-02
  0.1639590E+01  0.1664710E+02 -0.2568960E-01  0.8027993E-01  0.2682962E+01  0.7198378E-01 -0.3554156E-01
 -0.7311870E-06  0.1672760E+02 -0.2568960E-01  0.1039053E+00  0.2551720E+01  0.8634656E-01 -0.5779786E-01
 -0.1639590E+01  0.1664710E+02 -0.2568960E-01  0.1096081E+00  0.2514744E+01  0.8876940E-01 -0.6429565E-01
 -0.3263390E+01  0.1640620E+02 -0.2568960E-01  0.9967507E-01  0.2522158E+01  0.8115613E-01 -0.5786883E-01
 -0.4855770E+01  0.1600730E+02 -0.2568960E-01  0.8768704E-01  0.2545578E+01  0.7256800E-01 -0.4922298E-01
 -0.6401380E+01  0.1545430E+02 -0.2568960E-01  0.7851034E-01  0.2571978E+01  0.6611425E-01 -0.4234124E-01
 -0.7885340E+01  0.1475240E+02 -0.2568960E-01  0.7221167E-01  0.2593600E+01  0.6163787E-01 -0.3762045E-01
 -0.9293360E+01  0.1390850E+02 -0.2568960E-01  0.6625210E-01  0.2621801E+01  0.5750171E-01 -0.3290737E-01
 -0.1061190E+02  0.1293060E+02 -0.2568960E-01  0.6095830E-01  0.2651778E+01  0.5379084E-01 -0.2867857E-01
 -0.1182820E+02  0.1182820E+02 -0.2568960E-01  0.5605124E-01  0.2683141E+01  0.5026332E-01 -0.2480606E-01
 -0.1293060E+02  0.1061190E+02 -0.2568960E-01  0.5201764E-01  0.2711674E+01  0.4728401E-01 -0.2168080E-01
 -0.1390850E+02  0.9293360E+01 -0.2568960E-01  0.4819825E-01  0.2742650E+01  0.4441335E-01 -0.1872232E-01
 -0.1475240E+02  0.7885330E+01 -0.2568960E-01  0.4435211E-01  0.2779396E+01  0.4147459E-01 -0.1571524E-01
 -0.1545430E+02  0.6401370E+01 -0.2568960E-01  0.4073789E-01  0.2819947E+01  0.3864870E-01 -0.1287841E-01
 -0.1600730E+02  0.4855770E+01 -0.2568960E-01  0.3735450E-01  0.2867692E+01  0.3596203E-01 -0.1010399E-01
 -0.1640620E+02  0.3263390E+01 -0.2568960E-01  0.3411464E-01  0.2929259E+01  0.3334849E-01 -0.7189363E-02
 -0.1664710E+02  0.1639590E+01 -0.2568960E-01  0.3110629E-01  0.3009285E+01  0.3083443E-01 -0.4103594E-02
 -0.1672760E+02 -0.1462370E-05 -0.2568960E-01  0.2824616E-01  0.3099116E+01  0.2822068E-01 -0.1199449E-02
 -0.1664710E+02 -0.1639590E+01 -0.2568960E-01  0.2556826E-01 -0.3079054E+01  0.2551828E-01  0.1597951E-02
 -0.1640620E+02 -0.3263400E+01 -0.2568960E-01  0.2326471E-01 -0.2942381E+01  0.2280460E-01  0.4604018E-02
 -0.1600730E+02 -0.4855770E+01 -0.2568960E-01  0.2184813E-01 -0.2765258E+01  0.2031915E-01  0.8029489E-02
 -0.1545430E+02 -0.6401380E+01 -0.2568960E-01  0.2175717E-01 -0.2556270E+01  0.1813534E-01  0.1202015E-01
 -0.1475240E+02 -0.7885340E+01 -0.2568960E-01  0.2336130E-01 -0.2346468E+01  0.1635749E-01  0.1667881E-01
 -0.1390850E+02 -0.9293360E+01 -0.2568960E-01  0.2614054E-01 -0.2173272E+01  0.1481342E-01  0.2153812E-01
 -0.1293060E+02 -0.1061190E+02 -0.2568960E-01  0.2938366E-01 -0.2038268E+01  0.1324118E-01  0.2623110E-01
 -0.1182820E+02 -0.1182820E+02 -0.2568960E-01  0.3361863E-01 -0.1934464E+01  0.1195828E-01  0.3141993E-01
 -0.1061190E+02 -0.1293060E+02 -0.2568960E-01  0.3975867E-01 -0.1864299E+01  0.1150246E-01  0.3805844E-01
 -0.9293350E+01 -0.1390850E+02 -0.2568960E-01  0.4697319E-01 -0.1818350E+01  0.1150996E-01  0.4554121E-01
 -0.7885340E+01 -0.1475240E+02 -0.2568960E-01  0.5620981E-01 -0.1793145E+01  0.1239547E-01  0.5482605E-01
 -0.6401370E+01 -0.1545430E+02 -0.2568960E-01  0.6861515E-01 -0.1784226E+01  0.1453360E-01  0.6705828E-01
 -0.4855760E+01 -0.1600730E+02 -0.2568960E-01  0.8648288E-01 -0.1796881E+01  0.1938629E-01  0.8428203E-01
 -0.3263390E+01 -0.1640620E+02 -0.2568960E-01  0.1144858E+00 -0.1824471E+01  0.2873170E-01  0.1108219E+00
 -0.1639590E+01 -0.1664710E+02 -0.2568960E-01  0.1498722E+00 -0.1845608E+01  0.4067023E-01  0.1442484E+00
  0.1994750E-06 -0.1672760E+02 -0.2568960E-01  0.1721853E+00 -0.1832714E+01  0.4458447E-01  0.1663130E+00
  0.1639600E+01 -0.1664710E+02 -0.2568960E-01  0.1772257E+00 -0.1785527E+01  0.3776407E-01  0.1731555E+00
  0.3263390E+01 -0.1640620E+02 -0.2568960E-01  0.1689693E+00 -0.1702778E+01  0.2223613E-01  0.1674998E+00
  0.4855770E+01 -0.1600730E+02 -0.2568960E-01  0.1597280E+00 -0.1620288E+01  0.7901942E-02  0.1595324E+00
  0.6401380E+01 -0.1545430E+02 -0.2568960E-01  0.1531127E+00 -0.1553841E+01 -0.2595943E-02  0.1530907E+00
  0.7885340E+01 -0.1475240E+02 -0.2568960E-01  0.1489868E+00 -0.1501895E+01 -0.1025731E-01  0.1486333E+00
  0.9293360E+01 -0.1390850E+02 -0.2568960E-01  0.1450313E+00 -0.1456176E+01 -0.1658719E-01  0.1440796E+00
  0.1061190E+02 -0.1293060E+02 -0.2568960E-01  0.1416274E+00 -0.1416583E+01 -0.2175437E-01  0.1399467E+00
  0.1182820E+02 -0.1182820E+02 -0.2568960E-01  0.1386117E+00 -0.1381223E+01 -0.2611998E-01  0.1361284E+00
  0.1293060E+02 -0.1061190E+02 -0.2568960E-01  0.1361888E+00 -0.1353914E+01 -0.2930593E-01  0.1329984E+00
  0.1390850E+02 -0.9293360E+01 -0.2568960E-01  0.1338475E+00 -0.1330748E+01 -0.3182222E-01  0.1300096E+00
  0.1475240E+02 -0.7885330E+01 -0.2568960E-01  0.1314227E+00 -0.1309609E+01 -0.3393700E-01  0.1269654E+00
  0.1545430E+02 -0.6401380E+01 -0.2568960E-01  0.1290327E+00 -0.1292499E+01 -0.3544770E-01  0.1240681E+00
  0.1600730E+02 -0.4855760E+01 -0.2568960E-01  0.1265052E+00 -0.1280266E+01 -0.3623867E-01  0.1212036E+00
  0.1640620E+02 -0.3263390E+01 -0.2568960E-01  0.1236482E+00 -0.1272196E+01 -0.3637523E-01  0.1181767E+00
  0.1664710E+02 -0.1639590E+01 -0.2568960E-01  0.1204259E+00 -0.1268358E+01 -0.3586875E-01  0.1149602E+00
  0.1672760E+02  0.0000000E+00 -0.1027320E+00  0.1169113E+00 -0.1267750E+01 -0.3488974E-01  0.1115838E+00
  0.1664710E+02  0.1639590E+01 -0.1027320E+00  0.1138883E+00 -0.1269879E+01 -0.3375610E-01  0.1087707E+00
  0.1640620E+02  0.3263390E+01 -0.1027320E+00  0.1106125E+00 -0.1274720E+01 -0.3227337E-01  0.1057995E+00
  0.1600730E+02  0.4855770E+01 -0.1027320E+00  0.1067457E+00 -0.1284602E+01 -0.3013469E-01  0.1024038E+00
  0.1545430E+02  0.6401380E+01 -0.1027320E+00  0.1021469E+00 -0.1300360E+01 -0.2728877E-01  0.9843434E-01
  0.1475240E+02  0.7885340E+01 -0.1027320E+00  0.9672938E-01 -0.1323387E+01 -0.2368838E-01  0.9378397E-01
  0.1390850E+02  0.9293360E+01 -0.1027320E+00  0.9106546E-01 -0.1353341E+01 -0.1964693E-01  0.8892084E-01
  0.1293060E+02  0.1061190E+02 -0.1027320E+00  0.8563648E-01 -0.1388842E+01 -0.1549607E-01  0.8422279E-01
  0.1182820E+02  0.1182820E+02 -0.1027320E+00  0.7976730E-01 -0.1433934E+01 -0.1088306E-01  0.7902140E-01
  0.1061190E+02  0.1293060E+02 -0.1027320E+00  0.7255449E-01 -0.1498799E+01 -0.5219187E-02  0.7236653E-01
  0.9293360E+01  0.1390850E+02 -0.1027320E+00  0.6484098E-01 -0.1586531E+01  0.1020204E-02  0.6483296E-01
  0.7885330E+01  0.1475240E+02 -0.1027320E+00  0.5608372E-01 -0.1720865E+01  0.8384869E-02  0.5545338E-01
  0.6401380E+01  0.1545430E+02 -0.1027320E+00  0.4650353E-01 -0.1958315E+01  0.1757331E-01  0.4305527E-01
  0.4855770E+01  0.1600730E+02 -0.1027320E+00  0.3945955E-01 -0.2438079E+01  0.3009082E-01  0.2552642E-01
  0.3263390E+01  0.1640620E+02 -0.1027320E+00  0.4877770E-01  0.3110821E+01  0.4875461E-01 -0.1500746E-02
  0.1639590E+01  0.1664710E+02 -0.1027320E+00  0.8008572E-01  0.2682539E+01  0.7179461E-01 -0.3548601E-01
 -0.7311870E-06  0.1672760E+02 -0.1027320E+00  0.1036573E+00  0.2551428E+01  0.8612355E-01 -0.5768507E-01
 -0.1639590E+01  0.1664710E+02 -0.1027320E+00  0.1093101E+00  0.2514600E+01  0.8851884E-01 -0.6413359E-01
 -0.3263390E+01  0.1640620E+02 -0.1027320E+00  0.9939387E-01  0.2522021E+01  0.8091928E-01 -0.5771665E-01
 -0.4855770E+01  0.1600730E+02 -0.1027320E+00  0.8742759E-01  0.2545474E+01  0.7234818E-01 -0.4908487E-01
 -0.6401380E+01  0.1545430E+02 -0.1027320E+00  0.7828566E-01  0.2571816E+01  0.6591821E-01 -0.4223074E-01
 -0.7885340E+01  0.1475240E+02 -0.1027320E+00  0.7198109E-01  0.2593576E+01  0.6144015E-01 -0.3750180E-01
 -0.9293360E+01  0.1390850E+02 -0.1027320E+00  0.6604512E-01  0.2621717E+01  0.5731931E-01 -0.3280937E-01
 -0.1061190E+02  0.1293060E+02 -0.1027320E+00  0.6076791E-01  0.2651674E+01  0.5361986E-01 -0.2859457E-01
 -0.1182820E+02  0.1182820E+02 -0.1027320E+00  0.5588292E-01  0.2682984E+01  0.5010850E-01 -0.2473942E-01
 -0.1293060E+02  0.1061190E+02 -0.1027320E+00  0.5185715E-01  0.2711546E+01  0.4713537E-01 -0.2161993E-01
 -0.1390850E+02  0.9293360E+01 -0.1027320E+00  0.4804459E-01  0.2742579E+01  0.4427042E-01 -0.1866581E-01
 -0.1475240E+02  0.7885330E+01 -0.1027320E+00  0.4420984E-01  0.2779370E+01  0.4134113E-01 -0.1566593E-01
 -0.1545430E+02  0.6401370E+01 -0.1027320E+00  0.4060451E-01  0.2820022E+01  0.3852313E-01 -0.1283336E-01
 -0.1600730E+02  0.4855770E+01 -0.1027320E+00  0.3722944E-01  0.2867907E+01  0.3584381E-01 -0.1006243E-01
 -0.1640620E+02  0.3263390E+01 -0.1027320E+00  0.3399830E-01  0.2929557E+01  0.3323689E-01 -0.7154969E-02
 -0.1664710E+02  0.1639590E+01 -0.1027320E+00  0.3099950E-01  0.3009566E+01  0.3072972E-01 -0.4080895E-02
 -0.1672760E+02 -0.1462370E-05 -0.1027320E+00  0.2814987E-01  0.3099482E+01  0.2812491E-01 -0.1185053E-02
 -0.1664710E+02 -0.1639590E+01 -0.1027320E+00  0.2548452E-01 -0.3078487E+01  0.2543380E-01  0.1607144E-02
 -0.1640620E+02 -0.3263400E+01 -0.1027320E+00  0.2319525E-01 -0.2941697E+01  0.2273337E-01  0.4605802E-02
 -0.1600730E+02 -0.4855770E+01 -0.1027320E+00  0.2178712E-01 -0.2764742E+01  0.2025828E-01  0.8017528E-02
 -0.1545430E+02 -0.6401380E+01 -0.1027320E+00  0.2169438E-01 -0.2556213E+01  0.1808232E-01  0.1198648E-01
 -0.1475240E+02 -0.7885340E+01 -0.1027320E+00  0.2328017E-01 -0.2346848E+01  0.1630699E-01  0.1661471E-01
 -0.1390850E+02 -0.9293360E+01 -0.1027320E+00  0.2603891E-01 -0.2173713E+01  0.1476530E-01  0.2144786E-01
 -0.1293060E+02 -0.1061190E+02 -0.1027320E+00  0.2927617E-01 -0.2038631E+01  0.1320224E-01  0.2613035E-01
 -0.1182820E+02 -0.1182820E+02 -0.1027320E+00  0.3350668E-01 -0.1934799E+01  0.1192897E-01  0.3131130E-01
 -0.1061190E+02 -0.1293060E+02 -0.1027320E+00  0.3961215E-01 -0.1864512E+01  0.1146814E-01  0.3791575E-01
 -0.9293350E+01 -0.1390850E+02 -0.1027320E+00  0.4680765E-01 -0.1818542E+01  0.1147811E-01  0.4537851E-01
 -0.7885340E+01 -0.1475240E+02 -0.1027320E+00  0.5601786E-01 -0.1793304E+01  0.1236179E-01  0.5463687E-01
 -0.6401370E+01 -0.1545430E+02 -0.1027320E+00  0.6838743E-01 -0.1784465E+01  0.1450133E-01  0.6683227E-01
 -0.4855760E+01 -0.1600730E+02 -0.1027320E+00  0.8620130E-01 -0.1797070E+01  0.1933908E-01  0.8400396E-01
 -0.3263390E+01 -0.1640620E+02 -0.1027320E+00  0.1141214E+00 -0.1824659E+01  0.2866102E-01  0.1104637E+00
 -0.1639590E+01 -0.1664710E+02 -0.1027320E+00  0.1494368E+00 -0.1845811E+01  0.4058114E-01  0.1438211E+00
  0.1994750E-06 -0.1672760E+02 -0.1027320E+00  0.1716944E+00 -0.1832955E+01  0.4449736E-01  0.1658281E+00
  0.1639600E+01 -0.1664710E+02 -0.1027320E+00  0.1766864E+00 -0.1785728E+01  0.3768377E-01  0.1726210E+00
  0.3263390E+01 -0.1640620E+02 -0.1027320E+00  0.1684419E+00 -0.1702922E+01  0.2219076E-01  0.1669738E+00
  0.4855770E+01 -0.1600730E+02 -0.1027320E+00  0.1592145E+00 -0.1620405E+01  0.7895249E-02  0.1590187E+00
  0.6401380E+01 -0.1545430E+02 -0.1027320E+00  0.1526251E+00 -0.1553970E+01 -0.2568011E-02  0.1526035E+00
  0.7885340E+01 -0.1475240E+02 -0.1027320E+00  0.1484892E+00 -0.1501947E+01 -0.1021538E-01  0.1481374E+00
  0.9293360E+01 -0.1390850E+02 -0.1027320E+00  0.1445515E+00 -0.1456233E+01 -0.1652412E-01  0.1436039E+00
  0.1061190E+02 -0.1293060E+02 -0.1027320E+00  0.1411591E+00 -0.1416629E+01 -0.2167597E-01  0.1394849E+00
  0.1182820E+02 -0.1182820E+02 -0.1027320E+00  0.1381562E+00 -0.1381316E+01 -0.2602150E-01  0.1356835E+00
  0.1293060E+02 -0.1061190E+02 -0.1027320E+00  0.1357377E+00 -0.1353972E+01 -0.2920115E-01  0.1325595E+00
  0.1390850E+02 -0.9293360E+01 -0.1027320E+00  0.1333996E+00 -0.1330772E+01 -0.3171259E-01  0.1295754E+00
