 VARIABLES="X" "Y" "Z" "abs(eta) (m)" "angle(phi) (rad)" "PRE1" "PRE2"
ZONE N=   3200 ,E =    3136 ,F=FEPOINT,ET=QUADRILATERAL
  0.1530690E+02  0.0000000E+00  0.0000000E+00  0.1365480E+00 -0.1513819E+01 -0.7775877E-02  0.1363264E+00
  0.1523320E+02  0.1500340E+01  0.0000000E+00  0.1346825E+00 -0.1510358E+01 -0.8135009E-02  0.1344366E+00
  0.1501280E+02  0.2986230E+01  0.0000000E+00  0.1329090E+00 -0.1508212E+01 -0.8312566E-02  0.1326488E+00
  0.1464780E+02  0.4443360E+01  0.0000000E+00  0.1308063E+00 -0.1507828E+01 -0.8231230E-02  0.1305471E+00
  0.1414170E+02  0.5857700E+01  0.0000000E+00  0.1281082E+00 -0.1509781E+01 -0.7811681E-02  0.1278698E+00
  0.1349950E+02  0.7215620E+01  0.0000000E+00  0.1247579E+00 -0.1514408E+01 -0.7031152E-02  0.1245596E+00
  0.1272720E+02  0.8504060E+01  0.0000000E+00  0.1210601E+00 -0.1521403E+01 -0.5977180E-02  0.1209125E+00
  0.1183240E+02  0.9710600E+01  0.0000000E+00  0.1177343E+00 -0.1528954E+01 -0.4924789E-02  0.1176312E+00
  0.1082360E+02  0.1082360E+02  0.0000000E+00  0.1142106E+00 -0.1537967E+01 -0.3748755E-02  0.1141491E+00
  0.9710590E+01  0.1183240E+02  0.0000000E+00  0.1091240E+00 -0.1551911E+01 -0.2060669E-02  0.1091045E+00
  0.8504060E+01  0.1272720E+02  0.0000000E+00  0.1041217E+00 -0.1567515E+01 -0.3417027E-03  0.1041211E+00
  0.7215620E+01  0.1349950E+02  0.0000000E+00  0.9740146E-01 -0.1590405E+01  0.1909841E-02  0.9738273E-01
  0.5857700E+01  0.1414170E+02  0.0000000E+00  0.8817393E-01 -0.1625441E+01  0.4815803E-02  0.8804231E-01
  0.4443360E+01  0.1464780E+02  0.0000000E+00  0.7493538E-01 -0.1690716E+01  0.8964700E-02  0.7439721E-01
  0.2986230E+01  0.1501280E+02  0.0000000E+00  0.5096365E-01 -0.1910081E+01  0.1696136E-01  0.4805836E-01
  0.1500340E+01  0.1523320E+02  0.0000000E+00  0.5423195E-01  0.2484980E+01  0.4295521E-01 -0.3310519E-01
 -0.6690860E-06  0.1530690E+02  0.0000000E+00  0.8982493E-01  0.2227106E+01  0.5481096E-01 -0.7116373E-01
 -0.1500340E+01  0.1523320E+02  0.0000000E+00  0.1109958E+00  0.2144905E+01  0.6028032E-01 -0.9320064E-01
 -0.2986230E+01  0.1501280E+02  0.0000000E+00  0.1172007E+00  0.2083463E+01  0.5748734E-01 -0.1021333E+00
 -0.4443360E+01  0.1464780E+02  0.0000000E+00  0.1123748E+00  0.2063951E+01  0.5319905E-01 -0.9898458E-01
 -0.5857700E+01  0.1414170E+02  0.0000000E+00  0.1084434E+00  0.2052276E+01  0.5021916E-01 -0.9611459E-01
 -0.7215620E+01  0.1349950E+02  0.0000000E+00  0.1058842E+00  0.2042697E+01  0.4813284E-01 -0.9431170E-01
 -0.8504060E+01  0.1272720E+02  0.0000000E+00  0.1026933E+00  0.2036874E+01  0.4614889E-01 -0.9173977E-01
 -0.9710590E+01  0.1183240E+02  0.0000000E+00  0.9946667E-01  0.2032650E+01  0.4432320E-01 -0.8904534E-01
 -0.1082360E+02  0.1082360E+02  0.0000000E+00  0.9721842E-01  0.2027236E+01  0.4284950E-01 -0.8726592E-01
 -0.1183240E+02  0.9710590E+01  0.0000000E+00  0.9484611E-01  0.2023061E+01  0.4144812E-01 -0.8531024E-01
 -0.1272720E+02  0.8504060E+01  0.0000000E+00  0.9252810E-01  0.2019144E+01  0.4010879E-01 -0.8338306E-01
 -0.1349950E+02  0.7215620E+01  0.0000000E+00  0.9046782E-01  0.2014573E+01  0.3884264E-01 -0.8170481E-01
 -0.1414170E+02  0.5857690E+01  0.0000000E+00  0.8855721E-01  0.2009632E+01  0.3762671E-01 -0.8016615E-01
 -0.1464780E+02  0.4443360E+01  0.0000000E+00  0.8647284E-01  0.2005011E+01  0.3637897E-01 -0.7844821E-01
 -0.1501280E+02  0.2986230E+01  0.0000000E+00  0.8412749E-01  0.2001080E+01  0.3509200E-01 -0.7645905E-01
 -0.1523320E+02  0.1500340E+01  0.0000000E+00  0.8152318E-01  0.1998149E+01  0.3378837E-01 -0.7419147E-01
 -0.1530690E+02 -0.1338170E-05  0.0000000E+00  0.7889441E-01  0.1994653E+01  0.3244759E-01 -0.7191301E-01
 -0.1523320E+02 -0.1500340E+01  0.0000000E+00  0.7657907E-01  0.1987258E+01  0.3097834E-01 -0.7003354E-01
 -0.1501280E+02 -0.2986230E+01  0.0000000E+00  0.7433524E-01  0.1978046E+01  0.2944308E-01 -0.6825564E-01
 -0.1464780E+02 -0.4443360E+01  0.0000000E+00  0.7180563E-01  0.1969754E+01  0.2789346E-01 -0.6616649E-01
 -0.1414170E+02 -0.5857700E+01  0.0000000E+00  0.6877952E-01  0.1964915E+01  0.2641095E-01 -0.6350657E-01
 -0.1349950E+02 -0.7215620E+01  0.0000000E+00  0.6521876E-01  0.1964801E+01  0.2503679E-01 -0.6022164E-01
 -0.1272720E+02 -0.8504060E+01  0.0000000E+00  0.6138214E-01  0.1967912E+01  0.2374017E-01 -0.5660540E-01
 -0.1183240E+02 -0.9710600E+01  0.0000000E+00  0.5783961E-01  0.1967032E+01  0.2232312E-01 -0.5335821E-01
 -0.1082360E+02 -0.1082360E+02  0.0000000E+00  0.5410411E-01  0.1966959E+01  0.2087776E-01 -0.4991367E-01
 -0.9710600E+01 -0.1183240E+02  0.0000000E+00  0.4904670E-01  0.1984074E+01  0.1969779E-01 -0.4491743E-01
 -0.8504050E+01 -0.1272720E+02  0.0000000E+00  0.4406839E-01  0.2004348E+01  0.1851297E-01 -0.3999116E-01
 -0.7215620E+01 -0.1349950E+02  0.0000000E+00  0.3771471E-01  0.2057966E+01  0.1765524E-01 -0.3332704E-01
 -0.5857690E+01 -0.1414170E+02  0.0000000E+00  0.2957705E-01  0.2190430E+01  0.1717649E-01 -0.2407841E-01
 -0.4443360E+01 -0.1464780E+02  0.0000000E+00  0.2057795E-01  0.2602274E+01  0.1765710E-01 -0.1056784E-01
 -0.2986230E+01 -0.1501280E+02  0.0000000E+00  0.2615527E-01 -0.2505259E+01  0.2103616E-01  0.1554279E-01
 -0.1500340E+01 -0.1523320E+02  0.0000000E+00  0.1032838E+00 -0.1942467E+01  0.3750985E-01  0.9623180E-01
  0.1825330E-06 -0.1530690E+02  0.0000000E+00  0.1407787E+00 -0.1877762E+01  0.4253882E-01  0.1341980E+00
  0.1500340E+01 -0.1523320E+02  0.0000000E+00  0.1618165E+00 -0.1831199E+01  0.4166276E-01  0.1563611E+00
  0.2986230E+01 -0.1501280E+02  0.0000000E+00  0.1687496E+00 -0.1757792E+01  0.3137188E-01  0.1658078E+00
  0.4443360E+01 -0.1464780E+02  0.0000000E+00  0.1646127E+00 -0.1714936E+01  0.2364511E-01  0.1629057E+00
  0.5857700E+01 -0.1414170E+02  0.0000000E+00  0.1611976E+00 -0.1682979E+01  0.1804562E-01  0.1601843E+00
  0.7215620E+01 -0.1349950E+02  0.0000000E+00  0.1590736E+00 -0.1656831E+01  0.1366895E-01  0.1584853E+00
  0.8504060E+01 -0.1272720E+02  0.0000000E+00  0.1563030E+00 -0.1633489E+01  0.9792680E-02  0.1559959E+00
  0.9710600E+01 -0.1183240E+02  0.0000000E+00  0.1534979E+00 -0.1612491E+01  0.6398152E-02  0.1533645E+00
  0.1082360E+02 -0.1082360E+02  0.0000000E+00  0.1516742E+00 -0.1593981E+01  0.3516233E-02  0.1516334E+00
  0.1183240E+02 -0.9710590E+01  0.0000000E+00  0.1497150E+00 -0.1577832E+01  0.1053409E-02  0.1497113E+00
  0.1272720E+02 -0.8504060E+01  0.0000000E+00  0.1478123E+00 -0.1563439E+01 -0.1087528E-02  0.1478083E+00
  0.1349950E+02 -0.7215620E+01  0.0000000E+00  0.1461781E+00 -0.1550734E+01 -0.2932495E-02  0.1461487E+00
  0.1414170E+02 -0.5857700E+01  0.0000000E+00  0.1446874E+00 -0.1540005E+01 -0.4454358E-02  0.1446188E+00
  0.1464780E+02 -0.4443350E+01  0.0000000E+00  0.1430141E+00 -0.1530978E+01 -0.5693052E-02  0.1429008E+00
  0.1501280E+02 -0.2986230E+01  0.0000000E+00  0.1410605E+00 -0.1523612E+01 -0.6653322E-02  0.1409035E+00
  0.1523320E+02 -0.1500330E+01  0.0000000E+00  0.1388149E+00 -0.1517993E+01 -0.7326492E-02  0.1386214E+00
  0.1530690E+02  0.0000000E+00 -0.2568960E-01  0.1364439E+00 -0.1513819E+01 -0.7769984E-02  0.1362225E+00
  0.1523320E+02  0.1500340E+01 -0.2568960E-01  0.1345793E+00 -0.1510361E+01 -0.8128365E-02  0.1343336E+00
  0.1501280E+02  0.2986230E+01 -0.2568960E-01  0.1328058E+00 -0.1508219E+01 -0.8305177E-02  0.1325459E+00
  0.1464780E+02  0.4443360E+01 -0.2568960E-01  0.1307053E+00 -0.1507842E+01 -0.8223012E-02  0.1304463E+00
  0.1414170E+02  0.5857700E+01 -0.2568960E-01  0.1280120E+00 -0.1509790E+01 -0.7804649E-02  0.1277739E+00
  0.1349950E+02  0.7215620E+01 -0.2568960E-01  0.1246701E+00 -0.1514410E+01 -0.7026023E-02  0.1244720E+00
  0.1272720E+02  0.8504060E+01 -0.2568960E-01  0.1209796E+00 -0.1521396E+01 -0.5974032E-02  0.1208320E+00
  0.1183240E+02  0.9710600E+01 -0.2568960E-01  0.1176554E+00 -0.1528956E+01 -0.4921357E-02  0.1175525E+00
  0.1082360E+02  0.1082360E+02 -0.2568960E-01  0.1141294E+00 -0.1537973E+01 -0.3745463E-02  0.1140679E+00
  0.9710590E+01  0.1183240E+02 -0.2568960E-01  0.1090554E+00 -0.1551900E+01 -0.2060667E-02  0.1090359E+00
  0.8504060E+01  0.1272720E+02 -0.2568960E-01  0.1040518E+00 -0.1567513E+01 -0.3415957E-03  0.1040512E+00
  0.7215620E+01  0.1349950E+02 -0.2568960E-01  0.9734152E-01 -0.1590376E+01  0.1905752E-02  0.9732287E-01
  0.5857700E+01  0.1414170E+02 -0.2568960E-01  0.8811262E-01 -0.1625450E+01  0.4813317E-02  0.8798105E-01
  0.4443360E+01  0.1464780E+02 -0.2568960E-01  0.7489147E-01 -0.1690681E+01  0.8956873E-02  0.7435393E-01
  0.2986230E+01  0.1501280E+02 -0.2568960E-01  0.5092472E-01 -0.1910158E+01  0.1695209E-01  0.4802035E-01
  0.1500340E+01  0.1523320E+02 -0.2568960E-01  0.5417767E-01  0.2485207E+01  0.4291970E-01 -0.3306235E-01
 -0.6690860E-06  0.1530690E+02 -0.2568960E-01  0.8975970E-01  0.2227115E+01  0.5477177E-01 -0.7111158E-01
 -0.1500340E+01  0.1523320E+02 -0.2568960E-01  0.1109304E+00  0.2144866E+01  0.6024119E-01 -0.9314800E-01
 -0.2986230E+01  0.1501280E+02 -0.2568960E-01  0.1171414E+00  0.2083431E+01  0.5745492E-01 -0.1020835E+00
 -0.4443360E+01  0.1464780E+02 -0.2568960E-01  0.1123091E+00  0.2063931E+01  0.5316596E-01 -0.9892781E-01
 -0.5857700E+01  0.1414170E+02 -0.2568960E-01  0.1083779E+00  0.2052265E+01  0.5018783E-01 -0.9605701E-01
 -0.7215620E+01  0.1349950E+02 -0.2568960E-01  0.1058156E+00  0.2042691E+01  0.4810103E-01 -0.9425084E-01
 -0.8504060E+01  0.1272720E+02 -0.2568960E-01  0.1026253E+00  0.2036867E+01  0.4611765E-01 -0.9167936E-01
 -0.9710590E+01  0.1183240E+02 -0.2568960E-01  0.9940434E-01  0.2032640E+01  0.4429453E-01 -0.8898998E-01
 -0.1082360E+02  0.1082360E+02 -0.2568960E-01  0.9715215E-01  0.2027236E+01  0.4282026E-01 -0.8720645E-01
 -0.1183240E+02  0.9710590E+01 -0.2568960E-01  0.9478229E-01  0.2023070E+01  0.4142097E-01 -0.8525247E-01
 -0.1272720E+02  0.8504060E+01 -0.2568960E-01  0.9246534E-01  0.2019143E+01  0.4008149E-01 -0.8332655E-01
 -0.1349950E+02  0.7215620E+01 -0.2568960E-01  0.9040432E-01  0.2014581E+01  0.3881609E-01 -0.8164712E-01
 -0.1414170E+02  0.5857690E+01 -0.2568960E-01  0.8849119E-01  0.2009648E+01  0.3759994E-01 -0.8010577E-01
 -0.1464780E+02  0.4443360E+01 -0.2568960E-01  0.8640554E-01  0.2005044E+01  0.3635321E-01 -0.7838597E-01
 -0.1501280E+02  0.2986230E+01 -0.2568960E-01  0.8406071E-01  0.2001109E+01  0.3506633E-01 -0.7639735E-01
 -0.1523320E+02  0.1500340E+01 -0.2568960E-01  0.8145878E-01  0.1998182E+01  0.3376412E-01 -0.7413176E-01
 -0.1530690E+02 -0.1338170E-05 -0.2568960E-01  0.7883278E-01  0.1994676E+01  0.3242391E-01 -0.7185609E-01
 -0.1523320E+02 -0.1500340E+01 -0.2568960E-01  0.7651886E-01  0.1987294E+01  0.3095647E-01 -0.6997737E-01
 -0.1501280E+02 -0.2986230E+01 -0.2568960E-01  0.7427578E-01  0.1978091E+01  0.2942263E-01 -0.6819971E-01
 -0.1464780E+02 -0.4443360E+01 -0.2568960E-01  0.7174858E-01  0.1969808E+01  0.2787487E-01 -0.6611241E-01
 -0.1414170E+02 -0.5857700E+01 -0.2568960E-01  0.6872782E-01  0.1964948E+01  0.2639323E-01 -0.6345795E-01
 -0.1349950E+02 -0.7215620E+01 -0.2568960E-01  0.6517430E-01  0.1964797E+01  0.2501951E-01 -0.6018068E-01
 -0.1272720E+02 -0.8504060E+01 -0.2568960E-01  0.6134509E-01  0.1967867E+01  0.2372328E-01 -0.5657231E-01
 -0.1183240E+02 -0.9710600E+01 -0.2568960E-01  0.5780362E-01  0.1966995E+01  0.2230726E-01 -0.5332584E-01
 -0.1082360E+02 -0.1082360E+02 -0.2568960E-01  0.5406738E-01  0.1966965E+01  0.2086386E-01 -0.4987967E-01
 -0.9710600E+01 -0.1183240E+02 -0.2568960E-01  0.4902053E-01  0.1983983E+01  0.1968320E-01 -0.4489525E-01
 -0.8504050E+01 -0.1272720E+02 -0.2568960E-01  0.4404233E-01  0.2004297E+01  0.1850001E-01 -0.3996844E-01
 -0.7215620E+01 -0.1349950E+02 -0.2568960E-01  0.3769704E-01  0.2057786E+01  0.1764100E-01 -0.3331459E-01
 -0.5857690E+01 -0.1414170E+02 -0.2568960E-01  0.2955902E-01  0.2190404E+01  0.1716539E-01 -0.2406419E-01
 -0.4443360E+01 -0.1464780E+02 -0.2568960E-01  0.2056855E-01  0.2601807E+01  0.1764409E-01 -0.1057126E-01
 -0.2986230E+01 -0.1501280E+02 -0.2568960E-01  0.2614081E-01 -0.2505270E+01  0.2102470E-01  0.1553397E-01
 -0.1500340E+01 -0.1523320E+02 -0.2568960E-01  0.1031897E+00 -0.1942517E+01  0.3748048E-01  0.9614223E-01
  0.1825330E-06 -0.1530690E+02 -0.2568960E-01  0.1406763E+00 -0.1877771E+01  0.4250902E-01  0.1341000E+00
  0.1500340E+01 -0.1523320E+02 -0.2568960E-01  0.1617135E+00 -0.1831189E+01  0.4163482E-01  0.1562619E+00
  0.2986230E+01 -0.1501280E+02 -0.2568960E-01  0.1686513E+00 -0.1757811E+01  0.3135676E-01  0.1657106E+00
  0.4443360E+01 -0.1464780E+02 -0.2568960E-01  0.1645079E+00 -0.1714942E+01  0.2363114E-01  0.1628018E+00
  0.5857700E+01 -0.1414170E+02 -0.2568960E-01  0.1610931E+00 -0.1682993E+01  0.1803621E-01  0.1600802E+00
  0.7215620E+01 -0.1349950E+02 -0.2568960E-01  0.1589656E+00 -0.1656837E+01  0.1366068E-01  0.1583776E+00
  0.8504060E+01 -0.1272720E+02 -0.2568960E-01  0.1561959E+00 -0.1633496E+01  0.9787021E-02  0.1558890E+00
  0.9710600E+01 -0.1183240E+02 -0.2568960E-01  0.1533955E+00 -0.1612500E+01  0.6395269E-02  0.1532622E+00
  0.1082360E+02 -0.1082360E+02 -0.2568960E-01  0.1515681E+00 -0.1593993E+01  0.3515544E-02  0.1515273E+00
  0.1183240E+02 -0.9710590E+01 -0.2568960E-01  0.1496101E+00 -0.1577842E+01  0.1054153E-02  0.1496064E+00
  0.1272720E+02 -0.8504060E+01 -0.2568960E-01  0.1477091E+00 -0.1563448E+01 -0.1085419E-02  0.1477052E+00
  0.1349950E+02 -0.7215620E+01 -0.2568960E-01  0.1460737E+00 -0.1550742E+01 -0.2929221E-02  0.1460444E+00
  0.1414170E+02 -0.5857700E+01 -0.2568960E-01  0.1445799E+00 -0.1540015E+01 -0.4449708E-02  0.1445115E+00
  0.1464780E+02 -0.4443350E+01 -0.2568960E-01  0.1429051E+00 -0.1530983E+01 -0.5687983E-02  0.1427918E+00
  0.1501280E+02 -0.2986230E+01 -0.2568960E-01  0.1409514E+00 -0.1523617E+01 -0.6647587E-02  0.1407946E+00
  0.1523320E+02 -0.1500330E+01 -0.2568960E-01  0.1387083E+00 -0.1517995E+01 -0.7320628E-02  0.1385150E+00
  0.1530690E+02  0.0000000E+00 -0.1027320E+00  0.1361394E+00 -0.1513813E+01 -0.7753510E-02  0.1359185E+00
  0.1523320E+02  0.1500340E+01 -0.1027320E+00  0.1342763E+00 -0.1510365E+01 -0.8109490E-02  0.1340312E+00
  0.1501280E+02  0.2986230E+01 -0.1027320E+00  0.1325030E+00 -0.1508242E+01 -0.8283208E-02  0.1322438E+00
  0.1464780E+02  0.4443360E+01 -0.1027320E+00  0.1304086E+00 -0.1507872E+01 -0.8200449E-02  0.1301506E+00
  0.1414170E+02  0.5857700E+01 -0.1027320E+00  0.1277296E+00 -0.1509824E+01 -0.7783197E-02  0.1274923E+00
  0.1349950E+02  0.7215620E+01 -0.1027320E+00  0.1244114E+00 -0.1514422E+01 -0.7009921E-02  0.1242138E+00
  0.1272720E+02  0.8504060E+01 -0.1027320E+00  0.1207429E+00 -0.1521376E+01 -0.5964773E-02  0.1205954E+00
  0.1183240E+02  0.9710600E+01 -0.1027320E+00  0.1174207E+00 -0.1528941E+01 -0.4913300E-02  0.1173178E+00
  0.1082360E+02  0.1082360E+02 -0.1027320E+00  0.1138890E+00 -0.1537993E+01 -0.3735273E-02  0.1138277E+00
  0.9710590E+01  0.1183240E+02 -0.1027320E+00  0.1088514E+00 -0.1551854E+01 -0.2061756E-02  0.1088319E+00
  0.8504060E+01  0.1272720E+02 -0.1027320E+00  0.1038446E+00 -0.1567498E+01 -0.3425377E-03  0.1038441E+00
  0.7215620E+01  0.1349950E+02 -0.1027320E+00  0.9715255E-01 -0.1590331E+01  0.1897736E-02  0.9713401E-01
  0.5857700E+01  0.1414170E+02 -0.1027320E+00  0.8793230E-01 -0.1625457E+01  0.4804057E-02  0.8780096E-01
  0.4443360E+01  0.1464780E+02 -0.1027320E+00  0.7475937E-01 -0.1690554E+01  0.8931664E-02  0.7422391E-01
  0.2986230E+01  0.1501280E+02 -0.1027320E+00  0.5080109E-01 -0.1910487E+01  0.1692668E-01  0.4789821E-01
  0.1500340E+01  0.1523320E+02 -0.1027320E+00  0.5400032E-01  0.2486053E+01  0.4280708E-01 -0.3291791E-01
 -0.6690860E-06  0.1530690E+02 -0.1027320E+00  0.8957867E-01  0.2227097E+01  0.5466000E-01 -0.7096916E-01
 -0.1500340E+01  0.1523320E+02 -0.1027320E+00  0.1107142E+00  0.2144775E+01  0.6011528E-01 -0.9297198E-01
 -0.2986230E+01  0.1501280E+02 -0.1027320E+00  0.1169545E+00  0.2083345E+01  0.5735449E-01 -0.1019256E+00
 -0.4443360E+01  0.1464780E+02 -0.1027320E+00  0.1121124E+00  0.2063855E+01  0.5306527E-01 -0.9875861E-01
 -0.5857700E+01  0.1414170E+02 -0.1027320E+00  0.1081880E+00  0.2052203E+01  0.5009393E-01 -0.9589180E-01
 -0.7215620E+01  0.1349950E+02 -0.1027320E+00  0.1056051E+00  0.2042669E+01  0.4800331E-01 -0.9406450E-01
 -0.8504060E+01  0.1272720E+02 -0.1027320E+00  0.1024244E+00  0.2036839E+01  0.4602487E-01 -0.9150124E-01
 -0.9710590E+01  0.1183240E+02 -0.1027320E+00  0.9922031E-01  0.2032589E+01  0.4420801E-01 -0.8882748E-01
 -0.1082360E+02  0.1082360E+02 -0.1027320E+00  0.9695768E-01  0.2027232E+01  0.4273426E-01 -0.8703203E-01
 -0.1183240E+02  0.9710590E+01 -0.1027320E+00  0.9459485E-01  0.2023050E+01  0.4133735E-01 -0.8508472E-01
 -0.1272720E+02  0.8504060E+01 -0.1027320E+00  0.9228314E-01  0.2019125E+01  0.4000102E-01 -0.8316307E-01
 -0.1349950E+02  0.7215620E+01 -0.1027320E+00  0.9021983E-01  0.2014577E+01  0.3873650E-01 -0.8148067E-01
 -0.1414170E+02  0.5857690E+01 -0.1027320E+00  0.8829968E-01  0.2009672E+01  0.3752048E-01 -0.7993152E-01
 -0.1464780E+02  0.4443360E+01 -0.1027320E+00  0.8620989E-01  0.2005094E+01  0.3627478E-01 -0.7820668E-01
 -0.1501280E+02  0.2986230E+01 -0.1027320E+00  0.8386644E-01  0.2001172E+01  0.3499012E-01 -0.7621858E-01
 -0.1523320E+02  0.1500340E+01 -0.1027320E+00  0.8127220E-01  0.1998224E+01  0.3368989E-01 -0.7396054E-01
 -0.1530690E+02 -0.1338170E-05 -0.1027320E+00  0.7865474E-01  0.1994709E+01  0.3235305E-01 -0.7169273E-01
 -0.1523320E+02 -0.1500340E+01 -0.1027320E+00  0.7634431E-01  0.1987347E+01  0.3088956E-01 -0.6981611E-01
 -0.1501280E+02 -0.2986230E+01 -0.1027320E+00  0.7410347E-01  0.1978187E+01  0.2936090E-01 -0.6803867E-01
 -0.1464780E+02 -0.4443360E+01 -0.1027320E+00  0.7158349E-01  0.1969918E+01  0.2781801E-01 -0.6595722E-01
 -0.1414170E+02 -0.5857700E+01 -0.1027320E+00  0.6857741E-01  0.1965022E+01  0.2634012E-01 -0.6331713E-01
 -0.1349950E+02 -0.7215620E+01 -0.1027320E+00  0.6504550E-01  0.1964758E+01  0.2496769E-01 -0.6006273E-01
 -0.1272720E+02 -0.8504060E+01 -0.1027320E+00  0.6123633E-01  0.1967684E+01  0.2367090E-01 -0.5647634E-01
 -0.1183240E+02 -0.9710600E+01 -0.1027320E+00  0.5769873E-01  0.1966859E+01  0.2225951E-01 -0.5323211E-01
 -0.1082360E+02 -0.1082360E+02 -0.1027320E+00  0.5395902E-01  0.1966965E+01  0.2082208E-01 -0.4977968E-01
 -0.9710600E+01 -0.1183240E+02 -0.1027320E+00  0.4894474E-01  0.1983685E+01  0.1963941E-01 -0.4483170E-01
 -0.8504050E+01 -0.1272720E+02 -0.1027320E+00  0.4396505E-01  0.2004137E+01  0.1846113E-01 -0.3990128E-01
 -0.7215620E+01 -0.1349950E+02 -0.1027320E+00  0.3763506E-01  0.2057487E+01  0.1760206E-01 -0.3326508E-01
 -0.5857690E+01 -0.1414170E+02 -0.1027320E+00  0.2950773E-01  0.2190291E+01  0.1713288E-01 -0.2402437E-01
 -0.4443360E+01 -0.1464780E+02 -0.1027320E+00  0.2054017E-01  0.2600437E+01  0.1760527E-01 -0.1058080E-01
 -0.2986230E+01 -0.1501280E+02 -0.1027320E+00  0.2610511E-01 -0.2505085E+01  0.2099311E-01  0.1551663E-01
 -0.1500340E+01 -0.1523320E+02 -0.1027320E+00  0.1028933E+00 -0.1942663E+01  0.3738676E-01  0.9586060E-01
  0.1825330E-06 -0.1530690E+02 -0.1027320E+00  0.1403833E+00 -0.1877789E+01  0.4242285E-01  0.1338199E+00
  0.1500340E+01 -0.1523320E+02 -0.1027320E+00  0.1613871E+00 -0.1831139E+01  0.4154292E-01  0.1559487E+00
  0.2986230E+01 -0.1501280E+02 -0.1027320E+00  0.1683507E+00 -0.1757858E+01  0.3130865E-01  0.1654138E+00
  0.4443360E+01 -0.1464780E+02 -0.1027320E+00  0.1641964E+00 -0.1714960E+01  0.2358924E-01  0.1624931E+00
  0.5857700E+01 -0.1414170E+02 -0.1027320E+00  0.1607863E+00 -0.1683030E+01  0.1800771E-01  0.1597748E+00
  0.7215620E+01 -0.1349950E+02 -0.1027320E+00  0.1586383E+00 -0.1656851E+01  0.1363478E-01  0.1580512E+00
  0.8504060E+01 -0.1272720E+02 -0.1027320E+00  0.1558769E+00 -0.1633515E+01  0.9770048E-02  0.1555704E+00
  0.9710600E+01 -0.1183240E+02 -0.1027320E+00  0.1530926E+00 -0.1612522E+01  0.6385967E-02  0.1529594E+00
  0.1082360E+02 -0.1082360E+02 -0.1027320E+00  0.1512531E+00 -0.1594021E+01  0.3512485E-02  0.1512123E+00
  0.1183240E+02 -0.9710590E+01 -0.1027320E+00  0.1493019E+00 -0.1577864E+01  0.1055161E-02  0.1492982E+00
  0.1272720E+02 -0.8504060E+01 -0.1027320E+00  0.1474050E+00 -0.1563470E+01 -0.1079998E-02  0.1474011E+00
