 VARIABLES="X" "Y" "Z" "abs(eta) (m)" "angle(phi) (rad)" "PRE1" "PRE2"
ZONE N=   3200 ,E =    3136 ,F=FEPOINT,ET=QUADRILATERAL
  0.1530690E+02  0.0000000E+00  0.0000000E+00  0.4791878E+00  0.2736665E+01  0.4404364E+00 -0.1887770E+00
  0.1523320E+02  0.1500340E+01  0.0000000E+00  0.4868889E+00  0.2740319E+01  0.4482127E+00 -0.1901743E+00
  0.1501280E+02  0.2986230E+01  0.0000000E+00  0.4928155E+00  0.2740480E+01  0.4536993E+00 -0.1924163E+00
  0.1464780E+02  0.4443360E+01  0.0000000E+00  0.4969953E+00  0.2737869E+01  0.4570392E+00 -0.1952421E+00
  0.1414170E+02  0.5857700E+01  0.0000000E+00  0.4999253E+00  0.2732051E+01  0.4585832E+00 -0.1990646E+00
  0.1349950E+02  0.7215620E+01  0.0000000E+00  0.5021304E+00  0.2722772E+01  0.4587308E+00 -0.2042081E+00
  0.1272720E+02  0.8504060E+01  0.0000000E+00  0.5048930E+00  0.2707985E+01  0.4581681E+00 -0.2121296E+00
  0.1183240E+02  0.9710600E+01  0.0000000E+00  0.5043689E+00  0.2691863E+01  0.4542168E+00 -0.2192602E+00
  0.1082360E+02  0.1082360E+02  0.0000000E+00  0.4986543E+00  0.2676152E+01  0.4456093E+00 -0.2238044E+00
  0.9710590E+01  0.1183240E+02  0.0000000E+00  0.4930575E+00  0.2657510E+01  0.4364063E+00 -0.2294673E+00
  0.8504060E+01  0.1272720E+02  0.0000000E+00  0.4841794E+00  0.2638546E+01  0.4241982E+00 -0.2334215E+00
  0.7215620E+01  0.1349950E+02  0.0000000E+00  0.4686136E+00  0.2621578E+01  0.4066685E+00 -0.2328508E+00
  0.5857700E+01  0.1414170E+02  0.0000000E+00  0.4544149E+00  0.2600786E+01  0.3895670E+00 -0.2339454E+00
  0.4443360E+01  0.1464780E+02  0.0000000E+00  0.4317924E+00  0.2583692E+01  0.3663191E+00 -0.2285936E+00
  0.2986230E+01  0.1501280E+02  0.0000000E+00  0.3946963E+00  0.2572906E+01  0.3325747E+00 -0.2125540E+00
  0.1500340E+01  0.1523320E+02  0.0000000E+00  0.2500739E+00  0.2617079E+01  0.2164558E+00 -0.1252351E+00
 -0.6690860E-06  0.1530690E+02  0.0000000E+00  0.1221019E+00  0.2747326E+01  0.1127341E+00 -0.4690313E-01
 -0.1500340E+01  0.1523320E+02  0.0000000E+00  0.5538887E-01 -0.1463636E+01 -0.5924138E-02  0.5507115E-01
 -0.2986230E+01  0.1501280E+02  0.0000000E+00  0.3159881E+00 -0.9228147E+00 -0.1907236E+00  0.2519385E+00
 -0.4443360E+01  0.1464780E+02  0.0000000E+00  0.4034710E+00 -0.8767422E+00 -0.2580837E+00  0.3101316E+00
 -0.5857700E+01  0.1414170E+02  0.0000000E+00  0.4536791E+00 -0.8394604E+00 -0.3029962E+00  0.3376656E+00
 -0.7215620E+01  0.1349950E+02  0.0000000E+00  0.4887293E+00 -0.8067708E+00 -0.3381194E+00  0.3528903E+00
 -0.8504060E+01  0.1272720E+02  0.0000000E+00  0.5206674E+00 -0.7775818E+00 -0.3710339E+00  0.3652785E+00
 -0.9710590E+01  0.1183240E+02  0.0000000E+00  0.5430601E+00 -0.7507476E+00 -0.3970742E+00  0.3704678E+00
 -0.1082360E+02  0.1082360E+02  0.0000000E+00  0.5606519E+00 -0.7267723E+00 -0.4189880E+00  0.3725313E+00
 -0.1183240E+02  0.9710590E+01  0.0000000E+00  0.5784001E+00 -0.7069234E+00 -0.4397945E+00  0.3756694E+00
 -0.1272720E+02  0.8504060E+01  0.0000000E+00  0.5888111E+00 -0.6886928E+00 -0.4546078E+00  0.3742062E+00
 -0.1349950E+02  0.7215620E+01  0.0000000E+00  0.5948126E+00 -0.6727857E+00 -0.4651963E+00  0.3706676E+00
 -0.1414170E+02  0.5857690E+01  0.0000000E+00  0.6013998E+00 -0.6618268E+00 -0.4744268E+00  0.3695956E+00
 -0.1464780E+02  0.4443360E+01  0.0000000E+00  0.6075095E+00 -0.6552415E+00 -0.4816948E+00  0.3701864E+00
 -0.1501280E+02  0.2986230E+01  0.0000000E+00  0.6118607E+00 -0.6524038E+00 -0.4862009E+00  0.3714596E+00
 -0.1523320E+02  0.1500340E+01  0.0000000E+00  0.6137692E+00 -0.6530395E+00 -0.4874805E+00  0.3729282E+00
 -0.1530690E+02 -0.1338170E-05  0.0000000E+00  0.6136297E+00 -0.6576532E+00 -0.4856443E+00  0.3750880E+00
 -0.1523320E+02 -0.1500340E+01  0.0000000E+00  0.6115057E+00 -0.6663620E+00 -0.4806897E+00  0.3779902E+00
 -0.1501280E+02 -0.2986230E+01  0.0000000E+00  0.6076921E+00 -0.6794186E+00 -0.4727469E+00  0.3818377E+00
 -0.1464780E+02 -0.4443360E+01  0.0000000E+00  0.6018786E+00 -0.6965436E+00 -0.4616796E+00  0.3861474E+00
 -0.1414170E+02 -0.5857700E+01  0.0000000E+00  0.5945501E+00 -0.7183480E+00 -0.4476332E+00  0.3912983E+00
 -0.1349950E+02 -0.7215620E+01  0.0000000E+00  0.5862787E+00 -0.7453210E+00 -0.4308388E+00  0.3976188E+00
 -0.1272720E+02 -0.8504060E+01  0.0000000E+00  0.5783423E+00 -0.7793371E+00 -0.4114209E+00  0.4064636E+00
 -0.1183240E+02 -0.9710600E+01  0.0000000E+00  0.5676237E+00 -0.8178549E+00 -0.3881343E+00  0.4141841E+00
 -0.1082360E+02 -0.1082360E+02  0.0000000E+00  0.5529337E+00 -0.8598984E+00 -0.3607972E+00  0.4190000E+00
 -0.9710600E+01 -0.1183240E+02  0.0000000E+00  0.5382356E+00 -0.9089553E+00 -0.3307836E+00  0.4245937E+00
 -0.8504050E+01 -0.1272720E+02  0.0000000E+00  0.5210455E+00 -0.9640695E+00 -0.2970905E+00  0.4280486E+00
 -0.7215620E+01 -0.1349950E+02  0.0000000E+00  0.4988223E+00 -0.1025429E+01 -0.2587550E+00  0.4264617E+00
 -0.5857690E+01 -0.1414170E+02  0.0000000E+00  0.4775791E+00 -0.1101173E+01 -0.2161285E+00  0.4258759E+00
 -0.4443360E+01 -0.1464780E+02  0.0000000E+00  0.4502208E+00 -0.1190742E+01 -0.1670187E+00  0.4180951E+00
 -0.2986230E+01 -0.1501280E+02  0.0000000E+00  0.4115996E+00 -0.1313327E+01 -0.1048072E+00  0.3980322E+00
 -0.1500340E+01 -0.1523320E+02  0.0000000E+00  0.3022415E+00 -0.1538897E+01 -0.9639677E-02  0.3020877E+00
  0.1825330E-06 -0.1530690E+02  0.0000000E+00  0.2252336E+00 -0.1781867E+01  0.4718808E-01  0.2202350E+00
  0.1500340E+01 -0.1523320E+02  0.0000000E+00  0.1486712E+00 -0.2232569E+01  0.9136086E-01  0.1172873E+00
  0.2986230E+01 -0.1501280E+02  0.0000000E+00  0.1485192E+00  0.2603545E+01  0.1275350E+00 -0.7611016E-01
  0.4443360E+01 -0.1464780E+02  0.0000000E+00  0.2093708E+00  0.2455393E+01  0.1619817E+00 -0.1326576E+00
  0.5857700E+01 -0.1414170E+02  0.0000000E+00  0.2518254E+00  0.2455374E+01  0.1948241E+00 -0.1595606E+00
  0.7215620E+01 -0.1349950E+02  0.0000000E+00  0.2850077E+00  0.2482858E+01  0.2253747E+00 -0.1744581E+00
  0.8504060E+01 -0.1272720E+02  0.0000000E+00  0.3159271E+00  0.2509459E+01  0.2548801E+00 -0.1866711E+00
  0.9710600E+01 -0.1183240E+02  0.0000000E+00  0.3409311E+00  0.2544514E+01  0.2819438E+00 -0.1916812E+00
  0.1082360E+02 -0.1082360E+02  0.0000000E+00  0.3629650E+00  0.2579236E+01  0.3070687E+00 -0.1935262E+00
  0.1183240E+02 -0.9710590E+01  0.0000000E+00  0.3845587E+00  0.2605808E+01  0.3306698E+00 -0.1963235E+00
  0.1272720E+02 -0.8504060E+01  0.0000000E+00  0.4023438E+00  0.2636985E+01  0.3521973E+00 -0.1945187E+00
  0.1349950E+02 -0.7215620E+01  0.0000000E+00  0.4172708E+00  0.2667811E+01  0.3713081E+00 -0.1903818E+00
  0.1414170E+02 -0.5857700E+01  0.0000000E+00  0.4321173E+00  0.2690423E+01  0.3888787E+00 -0.1884110E+00
  0.1464780E+02 -0.4443350E+01  0.0000000E+00  0.4460117E+00  0.2706886E+01  0.4045297E+00 -0.1878355E+00
  0.1501280E+02 -0.2986230E+01  0.0000000E+00  0.4586525E+00  0.2719605E+01  0.4184180E+00 -0.1878525E+00
  0.1523320E+02 -0.1500330E+01  0.0000000E+00  0.4696993E+00  0.2729759E+01  0.4304270E+00 -0.1880160E+00
  0.1530690E+02  0.0000000E+00 -0.2568960E-01  0.4784522E+00  0.2736608E+01  0.4397494E+00 -0.1885126E+00
  0.1523320E+02  0.1500340E+01 -0.2568960E-01  0.4861445E+00  0.2740266E+01  0.4475171E+00 -0.1899076E+00
  0.1501280E+02  0.2986230E+01 -0.2568960E-01  0.4920612E+00  0.2740424E+01  0.4529942E+00 -0.1921471E+00
  0.1464780E+02  0.4443360E+01 -0.2568960E-01  0.4962380E+00  0.2737814E+01  0.4563319E+00 -0.1949700E+00
  0.1414170E+02  0.5857700E+01 -0.2568960E-01  0.4991647E+00  0.2732005E+01  0.4578763E+00 -0.1987829E+00
  0.1349950E+02  0.7215620E+01 -0.2568960E-01  0.5013567E+00  0.2722733E+01  0.4580161E+00 -0.2039112E+00
  0.1272720E+02  0.8504060E+01 -0.2568960E-01  0.5040932E+00  0.2707972E+01  0.4574395E+00 -0.2117994E+00
  0.1183240E+02  0.9710600E+01 -0.2568960E-01  0.5035619E+00  0.2691853E+01  0.4534879E+00 -0.2189139E+00
  0.1082360E+02  0.1082360E+02 -0.2568960E-01  0.4978785E+00  0.2676135E+01  0.4449124E+00 -0.2234637E+00
  0.9710590E+01  0.1183240E+02 -0.2568960E-01  0.4922814E+00  0.2657500E+01  0.4357170E+00 -0.2291106E+00
  0.8504060E+01  0.1272720E+02 -0.2568960E-01  0.4834124E+00  0.2638535E+01  0.4235237E+00 -0.2330564E+00
  0.7215620E+01  0.1349950E+02 -0.2568960E-01  0.4679295E+00  0.2621539E+01  0.4060656E+00 -0.2325268E+00
  0.5857700E+01  0.1414170E+02 -0.2568960E-01  0.4537314E+00  0.2600758E+01  0.3889746E+00 -0.2336043E+00
  0.4443360E+01  0.1464780E+02 -0.2568960E-01  0.4311831E+00  0.2583655E+01  0.3657938E+00 -0.2282845E+00
  0.2986230E+01  0.1501280E+02 -0.2568960E-01  0.3941283E+00  0.2572881E+01  0.3320906E+00 -0.2122568E+00
  0.1500340E+01  0.1523320E+02 -0.2568960E-01  0.2497801E+00  0.2616959E+01  0.2161866E+00 -0.1251139E+00
 -0.6690860E-06  0.1530690E+02 -0.2568960E-01  0.1219343E+00  0.2747232E+01  0.1125749E+00 -0.4684937E-01
 -0.1500340E+01  0.1523320E+02 -0.2568960E-01  0.5531432E-01 -0.1463323E+01 -0.5933389E-02  0.5499517E-01
 -0.2986230E+01  0.1501280E+02 -0.2568960E-01  0.3155187E+00 -0.9228168E+00 -0.1904398E+00  0.2515647E+00
 -0.4443360E+01  0.1464780E+02 -0.2568960E-01  0.4029038E+00 -0.8767565E+00 -0.2577164E+00  0.3096994E+00
 -0.5857700E+01  0.1414170E+02 -0.2568960E-01  0.4530009E+00 -0.8394788E+00 -0.3025371E+00  0.3371664E+00
 -0.7215620E+01  0.1349950E+02 -0.2568960E-01  0.4880047E+00 -0.8067863E+00 -0.3376126E+00  0.3523723E+00
 -0.8504060E+01  0.1272720E+02 -0.2568960E-01  0.5198337E+00 -0.7775971E+00 -0.3704342E+00  0.3646993E+00
 -0.9710590E+01  0.1183240E+02 -0.2568960E-01  0.5421964E+00 -0.7507637E+00 -0.3964367E+00  0.3698850E+00
 -0.1082360E+02  0.1082360E+02 -0.2568960E-01  0.5597761E+00 -0.7267929E+00 -0.4183259E+00  0.3719580E+00
 -0.1183240E+02  0.9710590E+01 -0.2568960E-01  0.5774663E+00 -0.7069316E+00 -0.4390813E+00  0.3750665E+00
 -0.1272720E+02  0.8504060E+01 -0.2568960E-01  0.5878675E+00 -0.6887049E+00 -0.4538747E+00  0.3736120E+00
 -0.1349950E+02  0.7215620E+01 -0.2568960E-01  0.5938892E+00 -0.6728127E+00 -0.4644640E+00  0.3701047E+00
 -0.1414170E+02  0.5857690E+01 -0.2568960E-01  0.6004772E+00 -0.6618615E+00 -0.4736862E+00  0.3690451E+00
 -0.1464780E+02  0.4443360E+01 -0.2568960E-01  0.6065755E+00 -0.6552762E+00 -0.4809414E+00  0.3696339E+00
 -0.1501280E+02  0.2986230E+01 -0.2568960E-01  0.6109152E+00 -0.6524419E+00 -0.4854355E+00  0.3709041E+00
 -0.1523320E+02  0.1500340E+01 -0.2568960E-01  0.6128183E+00 -0.6530754E+00 -0.4867119E+00  0.3723679E+00
 -0.1530690E+02 -0.1338170E-05 -0.2568960E-01  0.6126775E+00 -0.6576911E+00 -0.4848765E+00  0.3745244E+00
 -0.1523320E+02 -0.1500340E+01 -0.2568960E-01  0.6105554E+00 -0.6664007E+00 -0.4799281E+00  0.3774214E+00
 -0.1501280E+02 -0.2986230E+01 -0.2568960E-01  0.6067471E+00 -0.6794596E+00 -0.4719961E+00  0.3812633E+00
 -0.1464780E+02 -0.4443360E+01 -0.2568960E-01  0.6009433E+00 -0.6965893E+00 -0.4609445E+00  0.3855684E+00
 -0.1414170E+02 -0.5857700E+01 -0.2568960E-01  0.5936261E+00 -0.7183866E+00 -0.4469224E+00  0.3907074E+00
 -0.1349950E+02 -0.7215620E+01 -0.2568960E-01  0.5853603E+00 -0.7453579E+00 -0.4301493E+00  0.3970118E+00
 -0.1272720E+02 -0.8504060E+01 -0.2568960E-01  0.5774166E+00 -0.7793522E+00 -0.4107563E+00  0.4058192E+00
 -0.1183240E+02 -0.9710600E+01 -0.2568960E-01  0.5667102E+00 -0.8178666E+00 -0.3875048E+00  0.4135220E+00
 -0.1082360E+02 -0.1082360E+02 -0.2568960E-01  0.5520564E+00 -0.8599201E+00 -0.3602157E+00  0.4183430E+00
 -0.9710600E+01 -0.1183240E+02 -0.2568960E-01  0.5373744E+00 -0.9089714E+00 -0.3302474E+00  0.4239196E+00
 -0.8504050E+01 -0.1272720E+02 -0.2568960E-01  0.5202088E+00 -0.9640912E+00 -0.2966042E+00  0.4273677E+00
 -0.7215620E+01 -0.1349950E+02 -0.2568960E-01  0.4980618E+00 -0.1025479E+01 -0.2583392E+00  0.4258243E+00
 -0.5857690E+01 -0.1414170E+02 -0.2568960E-01  0.4768404E+00 -0.1101205E+01 -0.2157806E+00  0.4252241E+00
 -0.4443360E+01 -0.1464780E+02 -0.2568960E-01  0.4495505E+00 -0.1190785E+01 -0.1667521E+00  0.4174798E+00
 -0.2986230E+01 -0.1501280E+02 -0.2568960E-01  0.4109757E+00 -0.1313375E+01 -0.1046295E+00  0.3974338E+00
 -0.1500340E+01 -0.1523320E+02 -0.2568960E-01  0.3018290E+00 -0.1538985E+01 -0.9599874E-02  0.3016763E+00
  0.1825330E-06 -0.1530690E+02 -0.2568960E-01  0.2248927E+00 -0.1781947E+01  0.4713426E-01  0.2198979E+00
  0.1500340E+01 -0.1523320E+02 -0.2568960E-01  0.1484359E+00 -0.2232828E+01  0.9124660E-01  0.1170781E+00
  0.2986230E+01 -0.1501280E+02 -0.2568960E-01  0.1483178E+00  0.2603409E+01  0.1273517E+00 -0.7602434E-01
  0.4443360E+01 -0.1464780E+02 -0.2568960E-01  0.2090911E+00  0.2455195E+01  0.1617390E+00 -0.1325125E+00
  0.5857700E+01 -0.1414170E+02 -0.2568960E-01  0.2514612E+00  0.2455268E+01  0.1945254E+00 -0.1593506E+00
  0.7215620E+01 -0.1349950E+02 -0.2568960E-01  0.2845941E+00  0.2482738E+01  0.2250269E+00 -0.1742317E+00
  0.8504060E+01 -0.1272720E+02 -0.2568960E-01  0.3154312E+00  0.2509450E+01  0.2544782E+00 -0.1863804E+00
  0.9710600E+01 -0.1183240E+02 -0.2568960E-01  0.3403967E+00  0.2544488E+01  0.2814968E+00 -0.1913883E+00
  0.1082360E+02 -0.1082360E+02 -0.2568960E-01  0.3624035E+00  0.2579187E+01  0.3065843E+00 -0.1932417E+00
  0.1183240E+02 -0.9710590E+01 -0.2568960E-01  0.3839446E+00  0.2605803E+01  0.3301407E+00 -0.1960116E+00
  0.1272720E+02 -0.8504060E+01 -0.2568960E-01  0.4017065E+00  0.2636970E+01  0.3516365E+00 -0.1942161E+00
  0.1349950E+02 -0.7215620E+01 -0.2568960E-01  0.4166266E+00  0.2667746E+01  0.3707225E+00 -0.1901120E+00
  0.1414170E+02 -0.5857700E+01 -0.2568960E-01  0.4314557E+00  0.2690341E+01  0.3882679E+00 -0.1881543E+00
  0.1464780E+02 -0.4443350E+01 -0.2568960E-01  0.4453307E+00  0.2706812E+01  0.4038982E+00 -0.1875786E+00
  0.1501280E+02 -0.2986230E+01 -0.2568960E-01  0.4579473E+00  0.2719536E+01  0.4177617E+00 -0.1875923E+00
  0.1523320E+02 -0.1500330E+01 -0.2568960E-01  0.4689788E+00  0.2729696E+01  0.4297549E+00 -0.1877547E+00
  0.1530690E+02  0.0000000E+00 -0.1027320E+00  0.4762723E+00  0.2736392E+01  0.4377054E+00 -0.1877479E+00
  0.1523320E+02  0.1500340E+01 -0.1027320E+00  0.4839328E+00  0.2740053E+01  0.4454409E+00 -0.1891384E+00
  0.1501280E+02  0.2986230E+01 -0.1027320E+00  0.4898281E+00  0.2740218E+01  0.4508989E+00 -0.1913681E+00
  0.1464780E+02  0.4443360E+01 -0.1027320E+00  0.4939957E+00  0.2737615E+01  0.4542314E+00 -0.1941792E+00
  0.1414170E+02  0.5857700E+01 -0.1027320E+00  0.4969070E+00  0.2731823E+01  0.4557693E+00 -0.1979669E+00
  0.1349950E+02  0.7215620E+01 -0.1027320E+00  0.4990681E+00  0.2722581E+01  0.4558944E+00 -0.2030499E+00
  0.1272720E+02  0.8504060E+01 -0.1027320E+00  0.5017145E+00  0.2707904E+01  0.4552667E+00 -0.2108309E+00
  0.1183240E+02  0.9710600E+01 -0.1027320E+00  0.5011673E+00  0.2691811E+01  0.4513221E+00 -0.2178921E+00
  0.1082360E+02  0.1082360E+02 -0.1027320E+00  0.4955699E+00  0.2676058E+01  0.4428322E+00 -0.2224615E+00
  0.9710590E+01  0.1183240E+02 -0.1027320E+00  0.4899690E+00  0.2657454E+01  0.4336598E+00 -0.2280543E+00
  0.8504060E+01  0.1272720E+02 -0.1027320E+00  0.4811348E+00  0.2638499E+01  0.4215199E+00 -0.2319733E+00
  0.7215620E+01  0.1349950E+02 -0.1027320E+00  0.4658522E+00  0.2621418E+01  0.4042351E+00 -0.2315431E+00
  0.5857700E+01  0.1414170E+02 -0.1027320E+00  0.4517097E+00  0.2600679E+01  0.3872231E+00 -0.2325940E+00
  0.4443360E+01  0.1464780E+02 -0.1027320E+00  0.4293584E+00  0.2583534E+01  0.3642182E+00 -0.2273626E+00
  0.2986230E+01  0.1501280E+02 -0.1027320E+00  0.3924151E+00  0.2572792E+01  0.3306283E+00 -0.2113634E+00
  0.1500340E+01  0.1523320E+02 -0.1027320E+00  0.2488681E+00  0.2616640E+01  0.2153575E+00 -0.1247256E+00
 -0.6690860E-06  0.1530690E+02 -0.1027320E+00  0.1214757E+00  0.2746663E+01  0.1121250E+00 -0.4673693E-01
 -0.1500340E+01  0.1523320E+02 -0.1027320E+00  0.5510504E-01 -0.1462417E+01 -0.5960535E-02  0.5478172E-01
 -0.2986230E+01  0.1501280E+02 -0.1027320E+00  0.3141048E+00 -0.9228378E+00 -0.1895811E+00  0.2504413E+00
 -0.4443360E+01  0.1464780E+02 -0.1027320E+00  0.4012132E+00 -0.8767865E+00 -0.2566259E+00  0.3084075E+00
 -0.5857700E+01  0.1414170E+02 -0.1027320E+00  0.4509845E+00 -0.8395361E+00 -0.3011712E+00  0.3356828E+00
 -0.7215620E+01  0.1349950E+02 -0.1027320E+00  0.4858038E+00 -0.8068351E+00 -0.3360729E+00  0.3507996E+00
 -0.8504060E+01  0.1272720E+02 -0.1027320E+00  0.5173492E+00 -0.7776358E+00 -0.3686497E+00  0.3629705E+00
 -0.9710590E+01  0.1183240E+02 -0.1027320E+00  0.5396270E+00 -0.7508155E+00 -0.3945390E+00  0.3681525E+00
 -0.1082360E+02  0.1082360E+02 -0.1027320E+00  0.5571669E+00 -0.7268634E+00 -0.4163499E+00  0.3702536E+00
 -0.1183240E+02  0.9710590E+01 -0.1027320E+00  0.5746869E+00 -0.7069753E+00 -0.4369517E+00  0.3732805E+00
 -0.1272720E+02  0.8504060E+01 -0.1027320E+00  0.5850639E+00 -0.6887528E+00 -0.4516923E+00  0.3718519E+00
 -0.1349950E+02  0.7215620E+01 -0.1027320E+00  0.5911543E+00 -0.6729032E+00 -0.4622918E+00  0.3684422E+00
 -0.1414170E+02  0.5857690E+01 -0.1027320E+00  0.5977452E+00 -0.6619730E+00 -0.4714901E+00  0.3674186E+00
 -0.1464780E+02  0.4443360E+01 -0.1027320E+00  0.6038099E+00 -0.6553951E+00 -0.4787048E+00  0.3680055E+00
 -0.1501280E+02  0.2986230E+01 -0.1027320E+00  0.6081163E+00 -0.6525633E+00 -0.4831666E+00  0.3692634E+00
 -0.1523320E+02  0.1500340E+01 -0.1027320E+00  0.6100023E+00 -0.6531992E+00 -0.4844294E+00  0.3707168E+00
 -0.1530690E+02 -0.1338170E-05 -0.1027320E+00  0.6098554E+00 -0.6578168E+00 -0.4825962E+00  0.3728599E+00
 -0.1523320E+02 -0.1500340E+01 -0.1027320E+00  0.6077425E+00 -0.6665307E+00 -0.4776682E+00  0.3757447E+00
 -0.1501280E+02 -0.2986230E+01 -0.1027320E+00  0.6039507E+00 -0.6795959E+00 -0.4697690E+00  0.3795702E+00
 -0.1464780E+02 -0.4443360E+01 -0.1027320E+00  0.5981745E+00 -0.6967291E+00 -0.4587671E+00  0.3838561E+00
 -0.1414170E+02 -0.5857700E+01 -0.1027320E+00  0.5908858E+00 -0.7185234E+00 -0.4448061E+00  0.3889647E+00
 -0.1349950E+02 -0.7215620E+01 -0.1027320E+00  0.5826395E+00 -0.7454750E+00 -0.4281036E+00  0.3952166E+00
 -0.1272720E+02 -0.8504060E+01 -0.1027320E+00  0.5746688E+00 -0.7794141E+00 -0.4087766E+00  0.4039133E+00
 -0.1183240E+02 -0.9710600E+01 -0.1027320E+00  0.5639944E+00 -0.8179110E+00 -0.3856295E+00  0.4115575E+00
 -0.1082360E+02 -0.1082360E+02 -0.1027320E+00  0.5494556E+00 -0.8600002E+00 -0.3584854E+00  0.4164010E+00
 -0.9710600E+01 -0.1183240E+02 -0.1027320E+00  0.5348166E+00 -0.9090286E+00 -0.3286514E+00  0.4219207E+00
 -0.8504050E+01 -0.1272720E+02 -0.1027320E+00  0.5177272E+00 -0.9641467E+00 -0.2951656E+00  0.4253454E+00
 -0.7215620E+01 -0.1349950E+02 -0.1027320E+00  0.4957775E+00 -0.1025611E+01 -0.2570984E+00  0.4239053E+00
 -0.5857690E+01 -0.1414170E+02 -0.1027320E+00  0.4746477E+00 -0.1101297E+01 -0.2147496E+00  0.4232884E+00
 -0.4443360E+01 -0.1464780E+02 -0.1027320E+00  0.4475512E+00 -0.1190904E+01 -0.1659613E+00  0.4156428E+00
 -0.2986230E+01 -0.1501280E+02 -0.1027320E+00  0.4091074E+00 -0.1313506E+01 -0.1041019E+00  0.3956408E+00
 -0.1500340E+01 -0.1523320E+02 -0.1027320E+00  0.3005723E+00 -0.1539216E+01 -0.9490466E-02  0.3004224E+00
  0.1825330E-06 -0.1530690E+02 -0.1027320E+00  0.2239192E+00 -0.1782234E+01  0.4699292E-01  0.2189326E+00
  0.1500340E+01 -0.1523320E+02 -0.1027320E+00  0.1477197E+00 -0.2233575E+01  0.9089328E-01  0.1164453E+00
  0.2986230E+01 -0.1501280E+02 -0.1027320E+00  0.1476967E+00  0.2603030E+01  0.1267898E+00 -0.7575399E-01
  0.4443360E+01 -0.1464780E+02 -0.1027320E+00  0.2082588E+00  0.2454588E+01  0.1610151E+00 -0.1320828E+00
  0.5857700E+01 -0.1414170E+02 -0.1027320E+00  0.2503759E+00  0.2454928E+01  0.1936319E+00 -0.1587287E+00
  0.7215620E+01 -0.1349950E+02 -0.1027320E+00  0.2833453E+00  0.2482482E+01  0.2239949E+00 -0.1735247E+00
  0.8504060E+01 -0.1272720E+02 -0.1027320E+00  0.3139537E+00  0.2509409E+01  0.2532787E+00 -0.1855176E+00
  0.9710600E+01 -0.1183240E+02 -0.1027320E+00  0.3388122E+00  0.2544406E+01  0.2801708E+00 -0.1905204E+00
  0.1082360E+02 -0.1082360E+02 -0.1027320E+00  0.3607351E+00  0.2579023E+01  0.3051412E+00 -0.1924023E+00
  0.1183240E+02 -0.9710590E+01 -0.1027320E+00  0.3821291E+00  0.2605783E+01  0.3285758E+00 -0.1950913E+00
  0.1272720E+02 -0.8504060E+01 -0.1027320E+00  0.3998182E+00  0.2636911E+01  0.3499723E+00 -0.1933235E+00
