 VARIABLES="X" "Y" "Z" "abs(eta) (m)" "angle(phi) (rad)" "PRE1" "PRE2"
ZONE N=   3200 ,E =    3136 ,F=FEPOINT,ET=QUADRILATERAL
  0.1530690E+02  0.0000000E+00  0.0000000E+00  0.1210450E+00  0.2582429E+01  0.1026097E+00 -0.6421158E-01
  0.1523320E+02  0.1500340E+01  0.0000000E+00  0.1267576E+00  0.2580805E+01  0.1073429E+00 -0.6741646E-01
  0.1501280E+02  0.2986230E+01  0.0000000E+00  0.1325970E+00  0.2576925E+01  0.1120135E+00 -0.7095725E-01
  0.1464780E+02  0.4443360E+01  0.0000000E+00  0.1384913E+00  0.2571046E+01  0.1165551E+00 -0.7479808E-01
  0.1414170E+02  0.5857700E+01  0.0000000E+00  0.1441233E+00  0.2564518E+01  0.1207843E+00 -0.7863001E-01
  0.1349950E+02  0.7215620E+01  0.0000000E+00  0.1485713E+00  0.2560767E+01  0.1242071E+00 -0.8152317E-01
  0.1272720E+02  0.8504060E+01  0.0000000E+00  0.1523678E+00  0.2556453E+01  0.1270191E+00 -0.8415512E-01
  0.1183240E+02  0.9710600E+01  0.0000000E+00  0.1562899E+00  0.2550358E+01  0.1297602E+00 -0.8711381E-01
  0.1082360E+02  0.1082360E+02  0.0000000E+00  0.1602567E+00  0.2542961E+01  0.1323892E+00 -0.9030668E-01
  0.9710590E+01  0.1183240E+02  0.0000000E+00  0.1638387E+00  0.2535939E+01  0.1346967E+00 -0.9327340E-01
  0.8504060E+01  0.1272720E+02  0.0000000E+00  0.1672840E+00  0.2529944E+01  0.1369558E+00 -0.9605745E-01
  0.7215620E+01  0.1349950E+02  0.0000000E+00  0.1726967E+00  0.2520332E+01  0.1404275E+00 -0.1005200E+00
  0.5857700E+01  0.1414170E+02  0.0000000E+00  0.1768329E+00  0.2515611E+01  0.1433033E+00 -0.1036052E+00
  0.4443360E+01  0.1464780E+02  0.0000000E+00  0.1821957E+00  0.2513744E+01  0.1474497E+00 -0.1070227E+00
  0.2986230E+01  0.1501280E+02  0.0000000E+00  0.1933082E+00  0.2514757E+01  0.1565579E+00 -0.1133917E+00
  0.1500340E+01  0.1523320E+02  0.0000000E+00  0.1971512E+00  0.2542990E+01  0.1628714E+00 -0.1110924E+00
 -0.6690860E-06  0.1530690E+02  0.0000000E+00  0.1660779E+00  0.2595673E+01  0.1419385E+00 -0.8622835E-01
 -0.1500340E+01  0.1523320E+02  0.0000000E+00  0.1052593E+00  0.2783893E+01  0.9859691E-01 -0.3685343E-01
 -0.2986230E+01  0.1501280E+02  0.0000000E+00  0.7387205E-01 -0.1656273E+01  0.6306678E-02  0.7360235E-01
 -0.4443360E+01  0.1464780E+02  0.0000000E+00  0.1164640E+00 -0.1330474E+01 -0.2772025E-01  0.1131169E+00
 -0.5857700E+01  0.1414170E+02  0.0000000E+00  0.1421737E+00 -0.1229762E+01 -0.4755168E-01  0.1339858E+00
 -0.7215620E+01  0.1349950E+02  0.0000000E+00  0.1619173E+00 -0.1168808E+01 -0.6334995E-01  0.1490101E+00
 -0.8504060E+01  0.1272720E+02  0.0000000E+00  0.1755301E+00 -0.1128352E+01 -0.7515310E-01  0.1586279E+00
 -0.9710590E+01  0.1183240E+02  0.0000000E+00  0.1892502E+00 -0.1094511E+01 -0.8676770E-01  0.1681874E+00
 -0.1082360E+02  0.1082360E+02  0.0000000E+00  0.1995048E+00 -0.1068642E+01 -0.9602468E-01  0.1748755E+00
 -0.1183240E+02  0.9710590E+01  0.0000000E+00  0.2081920E+00 -0.1047652E+01 -0.1040140E+00  0.1803468E+00
 -0.1272720E+02  0.8504060E+01  0.0000000E+00  0.2172168E+00 -0.1029954E+01 -0.1118358E+00  0.1862146E+00
 -0.1349950E+02  0.7215620E+01  0.0000000E+00  0.2251855E+00 -0.1016705E+01 -0.1184861E+00  0.1914930E+00
 -0.1414170E+02  0.5857690E+01  0.0000000E+00  0.2310579E+00 -0.1007361E+01 -0.1234066E+00  0.1953422E+00
 -0.1464780E+02  0.4443360E+01  0.0000000E+00  0.2345591E+00 -0.1000695E+01 -0.1265957E+00  0.1974627E+00
 -0.1501280E+02  0.2986230E+01  0.0000000E+00  0.2374753E+00 -0.9971098E+00 -0.1288854E+00  0.1994569E+00
 -0.1523320E+02  0.1500340E+01  0.0000000E+00  0.2405470E+00 -0.9972534E+00 -0.1305235E+00  0.2020556E+00
 -0.1530690E+02 -0.1338170E-05  0.0000000E+00  0.2438543E+00 -0.1001550E+01 -0.1314369E+00  0.2054002E+00
 -0.1523320E+02 -0.1500340E+01  0.0000000E+00  0.2466389E+00 -0.1010385E+01 -0.1310971E+00  0.2089122E+00
 -0.1501280E+02 -0.2986230E+01  0.0000000E+00  0.2491978E+00 -0.1023254E+01 -0.1297300E+00  0.2127667E+00
 -0.1464780E+02 -0.4443360E+01  0.0000000E+00  0.2515438E+00 -0.1040057E+01 -0.1273242E+00  0.2169397E+00
 -0.1414170E+02 -0.5857700E+01  0.0000000E+00  0.2533890E+00 -0.1060662E+01 -0.1237285E+00  0.2211272E+00
 -0.1349950E+02 -0.7215620E+01  0.0000000E+00  0.2538038E+00 -0.1084402E+01 -0.1186384E+00  0.2243687E+00
 -0.1272720E+02 -0.8504060E+01  0.0000000E+00  0.2535024E+00 -0.1112485E+01 -0.1121581E+00  0.2273412E+00
 -0.1183240E+02 -0.9710600E+01  0.0000000E+00  0.2530440E+00 -0.1145841E+01 -0.1043251E+00  0.2305375E+00
 -0.1082360E+02 -0.1082360E+02  0.0000000E+00  0.2526422E+00 -0.1183120E+01 -0.9550838E-01  0.2338936E+00
 -0.9710600E+01 -0.1183240E+02  0.0000000E+00  0.2517959E+00 -0.1225232E+01 -0.8529028E-01  0.2369108E+00
 -0.8504050E+01 -0.1272720E+02  0.0000000E+00  0.2504188E+00 -0.1275210E+01 -0.7294726E-01  0.2395585E+00
 -0.7215620E+01 -0.1349950E+02  0.0000000E+00  0.2506949E+00 -0.1333860E+01 -0.5884446E-01  0.2436909E+00
 -0.5857690E+01 -0.1414170E+02  0.0000000E+00  0.2497791E+00 -0.1401270E+01 -0.4214155E-01  0.2461984E+00
 -0.4443360E+01 -0.1464780E+02  0.0000000E+00  0.2496558E+00 -0.1483870E+01 -0.2167432E-01  0.2487131E+00
 -0.2986230E+01 -0.1501280E+02  0.0000000E+00  0.2535566E+00 -0.1606382E+01  0.9021082E-02  0.2533961E+00
 -0.1500340E+01 -0.1523320E+02  0.0000000E+00  0.2554811E+00 -0.1820679E+01  0.6317796E-01  0.2475462E+00
  0.1825330E-06 -0.1530690E+02  0.0000000E+00  0.2359712E+00 -0.1922020E+01  0.8118513E-01  0.2215658E+00
  0.1500340E+01 -0.1523320E+02  0.0000000E+00  0.1896744E+00 -0.2000704E+01  0.7905386E-01  0.1724148E+00
  0.2986230E+01 -0.1501280E+02  0.0000000E+00  0.7803315E-01 -0.2168554E+01  0.4391632E-01  0.6450216E-01
  0.4443360E+01 -0.1464780E+02  0.0000000E+00  0.4544834E-01 -0.2527174E+01  0.3713622E-01  0.2620024E-01
  0.5857700E+01 -0.1414170E+02  0.0000000E+00  0.3910421E-01 -0.2990727E+01  0.3866003E-01  0.5877139E-02
  0.7215620E+01 -0.1349950E+02  0.0000000E+00  0.4308341E-01  0.2934815E+01  0.4216563E-01 -0.8845327E-02
  0.8504060E+01 -0.1272720E+02  0.0000000E+00  0.5046192E-01  0.2770190E+01  0.4702138E-01 -0.1831378E-01
  0.9710600E+01 -0.1183240E+02  0.0000000E+00  0.5914210E-01  0.2652012E+01  0.5219468E-01 -0.2781192E-01
  0.1082360E+02 -0.1082360E+02  0.0000000E+00  0.6755453E-01  0.2605703E+01  0.5808437E-01 -0.3449378E-01
  0.1183240E+02 -0.9710590E+01  0.0000000E+00  0.7552258E-01  0.2583785E+01  0.6407468E-01 -0.3997619E-01
  0.1272720E+02 -0.8504060E+01  0.0000000E+00  0.8339451E-01  0.2559893E+01  0.6967861E-01 -0.4582067E-01
  0.1349950E+02 -0.7215620E+01  0.0000000E+00  0.9114054E-01  0.2546331E+01  0.7546453E-01 -0.5110481E-01
  0.1414170E+02 -0.5857700E+01  0.0000000E+00  0.9827267E-01  0.2548185E+01  0.8147196E-01 -0.5495306E-01
  0.1464780E+02 -0.4443350E+01  0.0000000E+00  0.1042860E+00  0.2563000E+01  0.8731168E-01 -0.5702839E-01
  0.1501280E+02 -0.2986230E+01  0.0000000E+00  0.1099040E+00  0.2576292E+01  0.9280596E-01 -0.5887229E-01
  0.1523320E+02 -0.1500330E+01  0.0000000E+00  0.1154472E+00  0.2582760E+01  0.9788477E-01 -0.6120976E-01
  0.1530690E+02  0.0000000E+00 -0.2568960E-01  0.1208909E+00  0.2582370E+01  0.1024753E+00 -0.6413594E-01
  0.1523320E+02  0.1500340E+01 -0.2568960E-01  0.1265943E+00  0.2580759E+01  0.1072016E+00 -0.6733459E-01
  0.1501280E+02  0.2986230E+01 -0.2568960E-01  0.1324230E+00  0.2576903E+01  0.1118649E+00 -0.7086661E-01
  0.1464780E+02  0.4443360E+01 -0.2568960E-01  0.1383047E+00  0.2571050E+01  0.1163984E+00 -0.7469684E-01
  0.1414170E+02  0.5857700E+01 -0.2568960E-01  0.1439254E+00  0.2564541E+01  0.1206202E+00 -0.7851923E-01
  0.1349950E+02  0.7215620E+01 -0.2568960E-01  0.1483710E+00  0.2560776E+01  0.1240403E+00 -0.8141215E-01
  0.1272720E+02  0.8504060E+01 -0.2568960E-01  0.1521669E+00  0.2556437E+01  0.1268503E+00 -0.8404624E-01
  0.1183240E+02  0.9710600E+01 -0.2568960E-01  0.1560870E+00  0.2550336E+01  0.1295897E+00 -0.8700366E-01
  0.1082360E+02  0.1082360E+02 -0.2568960E-01  0.1600488E+00  0.2542943E+01  0.1322159E+00 -0.9019186E-01
  0.9710590E+01  0.1183240E+02 -0.2568960E-01  0.1636281E+00  0.2535914E+01  0.1345213E+00 -0.9315681E-01
  0.8504060E+01  0.1272720E+02 -0.2568960E-01  0.1670797E+00  0.2529903E+01  0.1367846E+00 -0.9594583E-01
  0.7215620E+01  0.1349950E+02 -0.2568960E-01  0.1724749E+00  0.2520310E+01  0.1402450E+00 -0.1003939E+00
  0.5857700E+01  0.1414170E+02 -0.2568960E-01  0.1766176E+00  0.2515580E+01  0.1431257E+00 -0.1034835E+00
  0.4443360E+01  0.1464780E+02 -0.2568960E-01  0.1819861E+00  0.2513691E+01  0.1472744E+00 -0.1069074E+00
  0.2986230E+01  0.1501280E+02 -0.2568960E-01  0.1930860E+00  0.2514705E+01  0.1563720E+00 -0.1132695E+00
  0.1500340E+01  0.1523320E+02 -0.2568960E-01  0.1969210E+00  0.2542932E+01  0.1626747E+00 -0.1109722E+00
 -0.6690860E-06  0.1530690E+02 -0.2568960E-01  0.1658523E+00  0.2595677E+01  0.1417460E+00 -0.8611072E-01
 -0.1500340E+01  0.1523320E+02 -0.2568960E-01  0.1051278E+00  0.2783867E+01  0.9847271E-01 -0.3680995E-01
 -0.2986230E+01  0.1501280E+02 -0.2568960E-01  0.7376207E-01 -0.1656453E+01  0.6310503E-02  0.7349164E-01
 -0.4443360E+01  0.1464780E+02 -0.2568960E-01  0.1162986E+00 -0.1330529E+01 -0.2767469E-01  0.1129579E+00
 -0.5857700E+01  0.1414170E+02 -0.2568960E-01  0.1419871E+00 -0.1229766E+01 -0.4748870E-01  0.1338102E+00
 -0.7215620E+01  0.1349950E+02 -0.2568960E-01  0.1616984E+00 -0.1168820E+01 -0.6326251E-01  0.1488094E+00
 -0.8504060E+01  0.1272720E+02 -0.2568960E-01  0.1753093E+00 -0.1128345E+01 -0.7505978E-01  0.1584278E+00
 -0.9710590E+01  0.1183240E+02 -0.2568960E-01  0.1889932E+00 -0.1094523E+01 -0.8664783E-01  0.1679600E+00
 -0.1082360E+02  0.1082360E+02 -0.2568960E-01  0.1992374E+00 -0.1068654E+01 -0.9589384E-01  0.1746422E+00
 -0.1183240E+02  0.9710590E+01 -0.2568960E-01  0.2079190E+00 -0.1047657E+01 -0.1038767E+00  0.1801109E+00
 -0.1272720E+02  0.8504060E+01 -0.2568960E-01  0.2169231E+00 -0.1029962E+01 -0.1116831E+00  0.1859637E+00
 -0.1349950E+02  0.7215620E+01 -0.2568960E-01  0.2248693E+00 -0.1016715E+01 -0.1183178E+00  0.1912253E+00
 -0.1414170E+02  0.5857690E+01 -0.2568960E-01  0.2307310E+00 -0.1007369E+01 -0.1232303E+00  0.1950668E+00
 -0.1464780E+02  0.4443360E+01 -0.2568960E-01  0.2342370E+00 -0.1000699E+01 -0.1264210E+00  0.1971921E+00
 -0.1501280E+02  0.2986230E+01 -0.2568960E-01  0.2371572E+00 -0.9971207E+00 -0.1287106E+00  0.1991911E+00
 -0.1523320E+02  0.1500340E+01 -0.2568960E-01  0.2402293E+00 -0.9972647E+00 -0.1303489E+00  0.2017902E+00
 -0.1530690E+02 -0.1338170E-05 -0.2568960E-01  0.2435313E+00 -0.1001565E+01 -0.1312596E+00  0.2051302E+00
 -0.1523320E+02 -0.1500340E+01 -0.2568960E-01  0.2463098E+00 -0.1010397E+01 -0.1309197E+00  0.2086350E+00
 -0.1501280E+02 -0.2986230E+01 -0.2568960E-01  0.2488617E+00 -0.1023261E+01 -0.1295535E+00  0.2124806E+00
 -0.1464780E+02 -0.4443360E+01 -0.2568960E-01  0.2511991E+00 -0.1040060E+01 -0.1271490E+00  0.2166428E+00
 -0.1414170E+02 -0.5857700E+01 -0.2568960E-01  0.2530369E+00 -0.1060660E+01 -0.1235569E+00  0.2208198E+00
 -0.1349950E+02 -0.7215620E+01 -0.2568960E-01  0.2534547E+00 -0.1084410E+01 -0.1184734E+00  0.2240610E+00
 -0.1272720E+02 -0.8504060E+01 -0.2568960E-01  0.2531596E+00 -0.1112499E+01 -0.1120034E+00  0.2270353E+00
 -0.1183240E+02 -0.9710600E+01 -0.2568960E-01  0.2527046E+00 -0.1145853E+01 -0.1041823E+00  0.2302296E+00
 -0.1082360E+02 -0.1082360E+02 -0.2568960E-01  0.2523028E+00 -0.1183136E+01 -0.9537637E-01  0.2335809E+00
 -0.9710600E+01 -0.1183240E+02 -0.2568960E-01  0.2514591E+00 -0.1225259E+01 -0.8516974E-01  0.2365962E+00
 -0.8504050E+01 -0.1272720E+02 -0.2568960E-01  0.2500931E+00 -0.1275239E+01 -0.7284538E-01  0.2392491E+00
 -0.7215620E+01 -0.1349950E+02 -0.2568960E-01  0.2503607E+00 -0.1333881E+01 -0.5876104E-01  0.2433673E+00
 -0.5857690E+01 -0.1414170E+02 -0.2568960E-01  0.2494543E+00 -0.1401310E+01 -0.4207685E-01  0.2458801E+00
 -0.4443360E+01 -0.1464780E+02 -0.2568960E-01  0.2493414E+00 -0.1483945E+01 -0.2162853E-01  0.2484016E+00
 -0.2986230E+01 -0.1501280E+02 -0.2568960E-01  0.2532406E+00 -0.1606452E+01  0.9027635E-02  0.2530796E+00
 -0.1500340E+01 -0.1523320E+02 -0.2568960E-01  0.2551636E+00 -0.1820712E+01  0.6310766E-01  0.2472365E+00
  0.1825330E-06 -0.1530690E+02 -0.2568960E-01  0.2356475E+00 -0.1922027E+01  0.8107524E-01  0.2212612E+00
  0.1500340E+01 -0.1523320E+02 -0.2568960E-01  0.1894257E+00 -0.2000778E+01  0.7896293E-01  0.1721829E+00
  0.2986230E+01 -0.1501280E+02 -0.2568960E-01  0.7794217E-01 -0.2168698E+01  0.4387438E-01  0.6442066E-01
  0.4443360E+01 -0.1464780E+02 -0.2568960E-01  0.4539980E-01 -0.2527345E+01  0.3710104E-01  0.2616591E-01
  0.5857700E+01 -0.1414170E+02 -0.2568960E-01  0.3905587E-01 -0.2990994E+01  0.3861381E-01  0.5859540E-02
  0.7215620E+01 -0.1349950E+02 -0.2568960E-01  0.4303136E-01  0.2934721E+01  0.4211386E-01 -0.8838600E-02
  0.8504060E+01 -0.1272720E+02 -0.2568960E-01  0.5040315E-01  0.2769867E+01  0.4696071E-01 -0.1830764E-01
  0.9710600E+01 -0.1183240E+02 -0.2568960E-01  0.5906808E-01  0.2651985E+01  0.5212861E-01 -0.2777854E-01
  0.1082360E+02 -0.1082360E+02 -0.2568960E-01  0.6746944E-01  0.2605633E+01  0.5800882E-01 -0.3445435E-01
  0.1183240E+02 -0.9710590E+01 -0.2568960E-01  0.7542736E-01  0.2583657E+01  0.6398877E-01 -0.3993400E-01
  0.1272720E+02 -0.8504060E+01 -0.2568960E-01  0.8328695E-01  0.2559863E+01  0.6958735E-01 -0.4576371E-01
  0.1349950E+02 -0.7215620E+01 -0.2568960E-01  0.9101811E-01  0.2546393E+01  0.7536630E-01 -0.5103153E-01
  0.1414170E+02 -0.5857700E+01 -0.2568960E-01  0.9813723E-01  0.2548257E+01  0.8136363E-01 -0.5487144E-01
  0.1464780E+02 -0.4443350E+01 -0.2568960E-01  0.1041465E+00  0.2563008E+01  0.8719537E-01 -0.5695146E-01
  0.1501280E+02 -0.2986230E+01 -0.2568960E-01  0.1097613E+00  0.2576238E+01  0.9268230E-01 -0.5880078E-01
  0.1523320E+02 -0.1500330E+01 -0.2568960E-01  0.1153002E+00  0.2582691E+01  0.9775593E-01 -0.6113852E-01
  0.1530690E+02  0.0000000E+00 -0.1027320E+00  0.1204402E+00  0.2582084E+01  0.1020750E+00 -0.6392598E-01
  0.1523320E+02  0.1500340E+01 -0.1027320E+00  0.1261170E+00  0.2580523E+01  0.1067816E+00 -0.6710585E-01
  0.1501280E+02  0.2986230E+01 -0.1027320E+00  0.1319122E+00  0.2576735E+01  0.1114215E+00 -0.7061206E-01
  0.1464780E+02  0.4443360E+01 -0.1027320E+00  0.1377547E+00  0.2570960E+01  0.1159288E+00 -0.7441018E-01
  0.1414170E+02  0.5857700E+01 -0.1027320E+00  0.1433385E+00  0.2564514E+01  0.1201263E+00 -0.7820229E-01
  0.1349950E+02  0.7215620E+01 -0.1027320E+00  0.1477758E+00  0.2560710E+01  0.1235375E+00 -0.8109374E-01
  0.1272720E+02  0.8504060E+01 -0.1027320E+00  0.1515760E+00  0.2556327E+01  0.1263485E+00 -0.8373377E-01
  0.1183240E+02  0.9710600E+01 -0.1027320E+00  0.1554868E+00  0.2550205E+01  0.1290801E+00 -0.8668600E-01
  0.1082360E+02  0.1082360E+02 -0.1027320E+00  0.1594315E+00  0.2542830E+01  0.1316958E+00 -0.8985899E-01
  0.9710590E+01  0.1183240E+02 -0.1027320E+00  0.1630056E+00  0.2535810E+01  0.1339999E+00 -0.9281628E-01
  0.8504060E+01  0.1272720E+02 -0.1027320E+00  0.1664684E+00  0.2529727E+01  0.1362674E+00 -0.9561871E-01
  0.7215620E+01  0.1349950E+02 -0.1027320E+00  0.1718029E+00  0.2520230E+01  0.1396905E+00 -0.1000140E+00
  0.5857700E+01  0.1414170E+02 -0.1027320E+00  0.1759725E+00  0.2515436E+01  0.1425880E+00 -0.1031260E+00
  0.4443360E+01  0.1464780E+02 -0.1027320E+00  0.1813540E+00  0.2513519E+01  0.1467446E+00 -0.1065612E+00
  0.2986230E+01  0.1501280E+02 -0.1027320E+00  0.1923931E+00  0.2514571E+01  0.1557958E+00 -0.1128838E+00
  0.1500340E+01  0.1523320E+02 -0.1027320E+00  0.1961489E+00  0.2542813E+01  0.1620237E+00 -0.1105565E+00
 -0.6690860E-06  0.1530690E+02 -0.1027320E+00  0.1652002E+00  0.2595620E+01  0.1411838E+00 -0.8578017E-01
 -0.1500340E+01  0.1523320E+02 -0.1027320E+00  0.1046213E+00  0.2784376E+01  0.9801694E-01 -0.3658274E-01
 -0.2986230E+01  0.1501280E+02 -0.1027320E+00  0.7343247E-01 -0.1656965E+01  0.6319776E-02  0.7316002E-01
 -0.4443360E+01  0.1464780E+02 -0.1027320E+00  0.1158040E+00 -0.1330680E+01 -0.2753996E-01  0.1124816E+00
 -0.5857700E+01  0.1414170E+02 -0.1027320E+00  0.1414293E+00 -0.1229755E+01 -0.4730365E-01  0.1332840E+00
 -0.7215620E+01  0.1349950E+02 -0.1027320E+00  0.1610264E+00 -0.1168881E+01 -0.6299054E-01  0.1481947E+00
 -0.8504060E+01  0.1272720E+02 -0.1027320E+00  0.1746510E+00 -0.1128318E+01 -0.7478216E-01  0.1578309E+00
 -0.9710590E+01  0.1183240E+02 -0.1027320E+00  0.1882289E+00 -0.1094556E+01 -0.8629188E-01  0.1672836E+00
 -0.1082360E+02  0.1082360E+02 -0.1027320E+00  0.1984468E+00 -0.1068669E+01 -0.9551080E-01  0.1739507E+00
 -0.1183240E+02  0.9710590E+01 -0.1027320E+00  0.2071122E+00 -0.1047667E+01 -0.1034720E+00  0.1794130E+00
 -0.1272720E+02  0.8504060E+01 -0.1027320E+00  0.2160545E+00 -0.1029994E+01 -0.1112300E+00  0.1852227E+00
 -0.1349950E+02  0.7215620E+01 -0.1027320E+00  0.2239387E+00 -0.1016743E+01 -0.1178228E+00  0.1904372E+00
 -0.1414170E+02  0.5857690E+01 -0.1027320E+00  0.2297692E+00 -0.1007385E+01 -0.1227136E+00  0.1942557E+00
 -0.1464780E+02  0.4443360E+01 -0.1027320E+00  0.2332894E+00 -0.1000721E+01 -0.1259053E+00  0.1963970E+00
 -0.1501280E+02  0.2986230E+01 -0.1027320E+00  0.2362251E+00 -0.9971508E+00 -0.1281988E+00  0.1984121E+00
 -0.1523320E+02  0.1500340E+01 -0.1027320E+00  0.2392970E+00 -0.9973086E+00 -0.1298342E+00  0.2010128E+00
 -0.1530690E+02 -0.1338170E-05 -0.1027320E+00  0.2425831E+00 -0.1001616E+01 -0.1307381E+00  0.2043382E+00
 -0.1523320E+02 -0.1500340E+01 -0.1027320E+00  0.2453452E+00 -0.1010439E+01 -0.1303982E+00  0.2078234E+00
 -0.1501280E+02 -0.2986230E+01 -0.1027320E+00  0.2478749E+00 -0.1023289E+01 -0.1290339E+00  0.2116418E+00
 -0.1464780E+02 -0.4443360E+01 -0.1027320E+00  0.2501850E+00 -0.1040072E+01 -0.1266332E+00  0.2157697E+00
 -0.1414170E+02 -0.5857700E+01 -0.1027320E+00  0.2519997E+00 -0.1060665E+01 -0.1230493E+00  0.2199152E+00
 -0.1349950E+02 -0.7215620E+01 -0.1027320E+00  0.2524250E+00 -0.1084429E+01 -0.1179878E+00  0.2231530E+00
 -0.1272720E+02 -0.8504060E+01 -0.1027320E+00  0.2521478E+00 -0.1112536E+01 -0.1115474E+00  0.2261321E+00
 -0.1183240E+02 -0.9710600E+01 -0.1027320E+00  0.2517029E+00 -0.1145890E+01 -0.1037610E+00  0.2293208E+00
 -0.1082360E+02 -0.1082360E+02 -0.1027320E+00  0.2512984E+00 -0.1183187E+01 -0.9498470E-01  0.2326559E+00
 -0.9710600E+01 -0.1183240E+02 -0.1027320E+00  0.2504601E+00 -0.1225339E+01 -0.8481252E-01  0.2356631E+00
 -0.8504050E+01 -0.1272720E+02 -0.1027320E+00  0.2491267E+00 -0.1275315E+01 -0.7254581E-01  0.2383301E+00
 -0.7215620E+01 -0.1349950E+02 -0.1027320E+00  0.2493580E+00 -0.1333941E+01 -0.5851106E-01  0.2423961E+00
 -0.5857690E+01 -0.1414170E+02 -0.1027320E+00  0.2484892E+00 -0.1401416E+01 -0.4188816E-01  0.2449332E+00
 -0.4443360E+01 -0.1464780E+02 -0.1027320E+00  0.2484002E+00 -0.1484138E+01 -0.2149892E-01  0.2474680E+00
 -0.2986230E+01 -0.1501280E+02 -0.1027320E+00  0.2522750E+00 -0.1606609E+01  0.9032798E-02  0.2521132E+00
 -0.1500340E+01 -0.1523320E+02 -0.1027320E+00  0.2541478E+00 -0.1820597E+01  0.6282815E-01  0.2462595E+00
  0.1825330E-06 -0.1530690E+02 -0.1027320E+00  0.2347031E+00 -0.1922067E+01  0.8075927E-01  0.2203713E+00
  0.1500340E+01 -0.1523320E+02 -0.1027320E+00  0.1885708E+00 -0.2000889E+01  0.7862546E-01  0.1713971E+00
  0.2986230E+01 -0.1501280E+02 -0.1027320E+00  0.7766732E-01 -0.2169025E+01  0.4374068E-01  0.6417916E-01
  0.4443360E+01 -0.1464780E+02 -0.1027320E+00  0.4525295E-01 -0.2527809E+01  0.3699314E-01  0.2606410E-01
  0.5857700E+01 -0.1414170E+02 -0.1027320E+00  0.3891023E-01 -0.2991787E+01  0.3847444E-01  0.5807182E-02
  0.7215620E+01 -0.1349950E+02 -0.1027320E+00  0.4287503E-01  0.2934809E+01  0.4196164E-01 -0.8802822E-02
  0.8504060E+01 -0.1272720E+02 -0.1027320E+00  0.5022641E-01  0.2768869E+01  0.4677780E-01 -0.1829013E-01
  0.9710600E+01 -0.1183240E+02 -0.1027320E+00  0.5884873E-01  0.2651877E+01  0.5193203E-01 -0.2768099E-01
  0.1082360E+02 -0.1082360E+02 -0.1027320E+00  0.6721737E-01  0.2605353E+01  0.5778247E-01 -0.3434183E-01
  0.1183240E+02 -0.9710590E+01 -0.1027320E+00  0.7514735E-01  0.2583198E+01  0.6373297E-01 -0.3981496E-01
  0.1272720E+02 -0.8504060E+01 -0.1027320E+00  0.8296973E-01  0.2559682E+01  0.6931408E-01 -0.4560193E-01
