 VARIABLES="X" "Y" "Z" "abs(eta) (m)" "angle(phi) (rad)" "PRE1" "PRE2"
ZONE N=   3200 ,E =    3136 ,F=FEPOINT,ET=QUADRILATERAL
  0.1672760E+02  0.0000000E+00  0.0000000E+00  0.8005323E+00 -0.5829915E+00 -0.6682999E+00  0.4407121E+00
  0.1664710E+02  0.1639590E+01  0.0000000E+00  0.7980104E+00 -0.5881048E+00 -0.6639395E+00  0.4427244E+00
  0.1640620E+02  0.3263390E+01  0.0000000E+00  0.7920739E+00 -0.5968801E+00 -0.6551189E+00  0.4451968E+00
  0.1600730E+02  0.4855770E+01  0.0000000E+00  0.7828847E+00 -0.6092710E+00 -0.6420167E+00  0.4480213E+00
  0.1545430E+02  0.6401380E+01  0.0000000E+00  0.7705725E+00 -0.6253597E+00 -0.6247437E+00  0.4510846E+00
  0.1475240E+02  0.7885340E+01  0.0000000E+00  0.7567019E+00 -0.6469488E+00 -0.6037927E+00  0.4561055E+00
  0.1390850E+02  0.9293360E+01  0.0000000E+00  0.7410344E+00 -0.6740688E+00 -0.5789617E+00  0.4625315E+00
  0.1293060E+02  0.1061190E+02  0.0000000E+00  0.7237628E+00 -0.7067824E+00 -0.5503892E+00  0.4700045E+00
  0.1182820E+02  0.1182820E+02  0.0000000E+00  0.7032718E+00 -0.7441836E+00 -0.5173557E+00  0.4763762E+00
  0.1061190E+02  0.1293060E+02  0.0000000E+00  0.6767537E+00 -0.7844146E+00 -0.4790076E+00  0.4780663E+00
  0.9293360E+01  0.1390850E+02  0.0000000E+00  0.6472334E+00 -0.8307382E+00 -0.4364494E+00  0.4779361E+00
  0.7885330E+01  0.1475240E+02  0.0000000E+00  0.6078861E+00 -0.8800829E+00 -0.3872765E+00  0.4685536E+00
  0.6401380E+01  0.1545430E+02  0.0000000E+00  0.5621325E+00 -0.9374388E+00 -0.3327006E+00  0.4531040E+00
  0.4855770E+01  0.1600730E+02  0.0000000E+00  0.5011266E+00 -0.1002159E+01 -0.2698489E+00  0.4222670E+00
  0.3263390E+01  0.1640620E+02  0.0000000E+00  0.4076433E+00 -0.1076970E+01 -0.1932223E+00  0.3589405E+00
  0.1639590E+01  0.1664710E+02  0.0000000E+00  0.2771576E+00 -0.1188921E+01 -0.1032859E+00  0.2571932E+00
 -0.7311870E-06  0.1672760E+02  0.0000000E+00  0.1444844E+00 -0.1491463E+01 -0.1145048E-01  0.1440299E+00
 -0.1639590E+01  0.1664710E+02  0.0000000E+00  0.8532427E-01 -0.2864424E+01  0.8206780E-01  0.2334753E-01
 -0.3263390E+01  0.1640620E+02  0.0000000E+00  0.2006980E+00  0.2634119E+01  0.1754051E+00 -0.9753335E-01
 -0.4855770E+01  0.1600730E+02  0.0000000E+00  0.3071117E+00  0.2531500E+01  0.2517072E+00 -0.1759576E+00
 -0.6401380E+01  0.1545430E+02  0.0000000E+00  0.3796969E+00  0.2535047E+01  0.3119673E+00 -0.2164398E+00
 -0.7885340E+01  0.1475240E+02  0.0000000E+00  0.4341778E+00  0.2561005E+01  0.3630335E+00 -0.2381533E+00
 -0.9293360E+01  0.1390850E+02  0.0000000E+00  0.4802321E+00  0.2588706E+01  0.4086833E+00 -0.2521922E+00
 -0.1061190E+02  0.1293060E+02  0.0000000E+00  0.5158281E+00  0.2622748E+01  0.4479414E+00 -0.2557873E+00
 -0.1182820E+02  0.1182820E+02  0.0000000E+00  0.5481006E+00  0.2652706E+01  0.4838942E+00 -0.2574115E+00
 -0.1293060E+02  0.1061190E+02  0.0000000E+00  0.5743043E+00  0.2683597E+01  0.5151168E+00 -0.2539294E+00
 -0.1390850E+02  0.9293360E+01  0.0000000E+00  0.5961286E+00  0.2711947E+01  0.5419486E+00 -0.2483164E+00
 -0.1475240E+02  0.7885330E+01  0.0000000E+00  0.6158947E+00  0.2735023E+01  0.5656887E+00 -0.2435622E+00
 -0.1545430E+02  0.6401370E+01  0.0000000E+00  0.6337219E+00  0.2752771E+01  0.5864186E+00 -0.2402428E+00
 -0.1600730E+02  0.4855770E+01  0.0000000E+00  0.6498747E+00  0.2765013E+01  0.6043367E+00 -0.2389860E+00
 -0.1640620E+02  0.3263390E+01  0.0000000E+00  0.6627989E+00  0.2774838E+01  0.6187203E+00 -0.2376713E+00
 -0.1664710E+02  0.1639590E+01  0.0000000E+00  0.6724117E+00  0.2781976E+01  0.6293988E+00 -0.2366320E+00
 -0.1672760E+02 -0.1462370E-05  0.0000000E+00  0.6785796E+00  0.2786195E+01  0.6361740E+00 -0.2361207E+00
 -0.1664710E+02 -0.1639590E+01  0.0000000E+00  0.6817506E+00  0.2786397E+01  0.6391948E+00 -0.2370946E+00
 -0.1640620E+02 -0.3263400E+01  0.0000000E+00  0.6814659E+00  0.2783800E+01  0.6383102E+00 -0.2386543E+00
 -0.1600730E+02 -0.4855770E+01  0.0000000E+00  0.6777111E+00  0.2778482E+01  0.6335220E+00 -0.2407119E+00
 -0.1545430E+02 -0.6401380E+01  0.0000000E+00  0.6704285E+00  0.2770442E+01  0.6247795E+00 -0.2431563E+00
 -0.1475240E+02 -0.7885340E+01  0.0000000E+00  0.6614729E+00  0.2757702E+01  0.6133273E+00 -0.2477418E+00
 -0.1390850E+02 -0.9293360E+01  0.0000000E+00  0.6504887E+00  0.2740538E+01  0.5988722E+00 -0.2539441E+00
 -0.1293060E+02 -0.1061190E+02  0.0000000E+00  0.6375178E+00  0.2718958E+01  0.5814235E+00 -0.2614873E+00
 -0.1182820E+02 -0.1182820E+02  0.0000000E+00  0.6200209E+00  0.2693990E+01  0.5589409E+00 -0.2683488E+00
 -0.1061190E+02 -0.1293060E+02  0.0000000E+00  0.5954950E+00  0.2669434E+01  0.5303410E+00 -0.2708373E+00
 -0.9293350E+01 -0.1390850E+02  0.0000000E+00  0.5675235E+00  0.2642086E+01  0.4981830E+00 -0.2718394E+00
 -0.7885340E+01 -0.1475240E+02  0.0000000E+00  0.5279909E+00  0.2617855E+01  0.4572169E+00 -0.2640588E+00
 -0.6401370E+01 -0.1545430E+02  0.0000000E+00  0.4803096E+00  0.2592406E+01  0.4096798E+00 -0.2507186E+00
 -0.4855760E+01 -0.1600730E+02  0.0000000E+00  0.4137011E+00  0.2572957E+01  0.3485997E+00 -0.2227708E+00
 -0.3263390E+01 -0.1640620E+02  0.0000000E+00  0.3083669E+00  0.2583199E+01  0.2615282E+00 -0.1633804E+00
 -0.1639590E+01 -0.1664710E+02  0.0000000E+00  0.1580714E+00  0.2709843E+01  0.1435660E+00 -0.6614665E-01
  0.1994750E-06 -0.1672760E+02  0.0000000E+00  0.4884384E-01 -0.2000005E+01  0.2032643E-01  0.4441348E-01
  0.1639600E+01 -0.1664710E+02  0.0000000E+00  0.1939745E+00 -0.1016465E+01 -0.1021032E+00  0.1649273E+00
  0.3263390E+01 -0.1640620E+02  0.0000000E+00  0.3616340E+00 -0.9201086E+00 -0.2190539E+00  0.2877404E+00
  0.4855770E+01 -0.1600730E+02  0.0000000E+00  0.4806757E+00 -0.8722115E+00 -0.3091392E+00  0.3680789E+00
  0.6401380E+01 -0.1545430E+02  0.0000000E+00  0.5559831E+00 -0.8290662E+00 -0.3756025E+00  0.4099268E+00
  0.7885340E+01 -0.1475240E+02  0.0000000E+00  0.6097707E+00 -0.7888340E+00 -0.4296890E+00  0.4326519E+00
  0.9293360E+01 -0.1390850E+02  0.0000000E+00  0.6544868E+00 -0.7529602E+00 -0.4775580E+00  0.4475392E+00
  0.1061190E+02 -0.1293060E+02  0.0000000E+00  0.6864305E+00 -0.7185794E+00 -0.5167049E+00  0.4518882E+00
  0.1182820E+02 -0.1182820E+02  0.0000000E+00  0.7146745E+00 -0.6888163E+00 -0.5517280E+00  0.4542641E+00
  0.1293060E+02 -0.1061190E+02  0.0000000E+00  0.7353132E+00 -0.6611877E+00 -0.5803559E+00  0.4515225E+00
  0.1390850E+02 -0.9293360E+01  0.0000000E+00  0.7514263E+00 -0.6367254E+00 -0.6041821E+00  0.4467723E+00
  0.1475240E+02 -0.7885330E+01  0.0000000E+00  0.7657131E+00 -0.6169184E+00 -0.6245655E+00  0.4429837E+00
  0.1545430E+02 -0.6401380E+01  0.0000000E+00  0.7781241E+00 -0.6020225E+00 -0.6413236E+00  0.4406599E+00
  0.1600730E+02 -0.4855760E+01  0.0000000E+00  0.7890570E+00 -0.5921780E+00 -0.6547018E+00  0.4404276E+00
  0.1640620E+02 -0.3263390E+01  0.0000000E+00  0.7963669E+00 -0.5855556E+00 -0.6636963E+00  0.4401221E+00
  0.1664710E+02 -0.1639590E+01  0.0000000E+00  0.8001739E+00 -0.5824246E+00 -0.6682504E+00  0.4401360E+00
  0.1672760E+02  0.0000000E+00 -0.2568960E-01  0.7992548E+00 -0.5830098E+00 -0.6672254E+00  0.4400210E+00
  0.1664710E+02  0.1639590E+01 -0.2568960E-01  0.7967363E+00 -0.5881230E+00 -0.6628715E+00  0.4420296E+00
  0.1640620E+02  0.3263390E+01 -0.2568960E-01  0.7908176E+00 -0.5968994E+00 -0.6540713E+00  0.4445033E+00
  0.1600730E+02  0.4855770E+01 -0.2568960E-01  0.7816486E+00 -0.6093032E+00 -0.6409886E+00  0.4473345E+00
  0.1545430E+02  0.6401380E+01 -0.2568960E-01  0.7693673E+00 -0.6254013E+00 -0.6237478E+00  0.4504050E+00
  0.1475240E+02  0.7885340E+01 -0.2568960E-01  0.7555199E+00 -0.6469895E+00 -0.6028309E+00  0.4554176E+00
  0.1390850E+02  0.9293360E+01 -0.2568960E-01  0.7398716E+00 -0.6741000E+00 -0.5780388E+00  0.4618237E+00
  0.1293060E+02  0.1061190E+02 -0.2568960E-01  0.7226106E+00 -0.7068006E+00 -0.5495045E+00  0.4692663E+00
  0.1182820E+02  0.1182820E+02 -0.2568960E-01  0.7021446E+00 -0.7441977E+00 -0.5165198E+00  0.4756200E+00
  0.1061190E+02  0.1293060E+02 -0.2568960E-01  0.6756799E+00 -0.7844383E+00 -0.4782362E+00  0.4773190E+00
  0.9293360E+01  0.1390850E+02 -0.2568960E-01  0.6461892E+00 -0.8307500E+00 -0.4357397E+00  0.4771702E+00
  0.7885330E+01  0.1475240E+02 -0.2568960E-01  0.6069347E+00 -0.8801118E+00 -0.3866569E+00  0.4678314E+00
  0.6401380E+01  0.1545430E+02 -0.2568960E-01  0.5612416E+00 -0.9374569E+00 -0.3321652E+00  0.4523920E+00
  0.4855770E+01  0.1600730E+02 -0.2568960E-01  0.5003390E+00 -0.1002182E+01 -0.2694151E+00  0.4216096E+00
  0.3263390E+01  0.1640620E+02 -0.2568960E-01  0.4070273E+00 -0.1077015E+01 -0.1929143E+00  0.3584066E+00
  0.1639590E+01  0.1664710E+02 -0.2568960E-01  0.2767396E+00 -0.1188955E+01 -0.1031215E+00  0.2568088E+00
 -0.7311870E-06  0.1672760E+02 -0.2568960E-01  0.1442557E+00 -0.1491521E+01 -0.1142389E-01  0.1438027E+00
 -0.1639590E+01  0.1664710E+02 -0.2568960E-01  0.8519580E-01 -0.2864790E+01  0.8195274E-01  0.2328244E-01
 -0.3263390E+01  0.1640620E+02 -0.2568960E-01  0.2004125E+00  0.2634003E+01  0.1751442E+00 -0.9741502E-01
 -0.4855770E+01  0.1600730E+02 -0.2568960E-01  0.3066449E+00  0.2531463E+01  0.2513181E+00 -0.1756995E+00
 -0.6401380E+01  0.1545430E+02 -0.2568960E-01  0.3791050E+00  0.2535024E+01  0.3114762E+00 -0.2161093E+00
 -0.7885340E+01  0.1475240E+02 -0.2568960E-01  0.4335150E+00  0.2560956E+01  0.3624676E+00 -0.2378076E+00
 -0.9293360E+01  0.1390850E+02 -0.2568960E-01  0.4794668E+00  0.2588703E+01  0.4080313E+00 -0.2517914E+00
 -0.1061190E+02  0.1293060E+02 -0.2568960E-01  0.5150213E+00  0.2622713E+01  0.4472319E+00 -0.2554028E+00
 -0.1182820E+02  0.1182820E+02 -0.2568960E-01  0.5472318E+00  0.2652687E+01  0.4831222E+00 -0.2570128E+00
 -0.1293060E+02  0.1061190E+02 -0.2568960E-01  0.5733921E+00  0.2683573E+01  0.5142924E+00 -0.2535386E+00
 -0.1390850E+02  0.9293360E+01 -0.2568960E-01  0.5952022E+00  0.2711900E+01  0.5410945E+00 -0.2479564E+00
 -0.1475240E+02  0.7885330E+01 -0.2568960E-01  0.6149426E+00  0.2734966E+01  0.5648003E+00 -0.2432182E+00
 -0.1545430E+02  0.6401370E+01 -0.2568960E-01  0.6327403E+00  0.2752707E+01  0.5854950E+00 -0.2399080E+00
 -0.1600730E+02  0.4855770E+01 -0.2568960E-01  0.6488550E+00  0.2764973E+01  0.6033789E+00 -0.2386351E+00
 -0.1640620E+02  0.3263390E+01 -0.2568960E-01  0.6617517E+00  0.2774810E+01  0.6177359E+00 -0.2373135E+00
 -0.1664710E+02  0.1639590E+01 -0.2568960E-01  0.6713451E+00  0.2781953E+01  0.6283948E+00 -0.2362712E+00
 -0.1672760E+02 -0.1462370E-05 -0.2568960E-01  0.6775030E+00  0.2786176E+01  0.6351601E+00 -0.2357584E+00
 -0.1664710E+02 -0.1639590E+01 -0.2568960E-01  0.6806678E+00  0.2786377E+01  0.6381749E+00 -0.2367309E+00
 -0.1640620E+02 -0.3263400E+01 -0.2568960E-01  0.6803909E+00  0.2783772E+01  0.6372967E+00 -0.2382955E+00
 -0.1600730E+02 -0.4855770E+01 -0.2568960E-01  0.6766515E+00  0.2778446E+01  0.6325229E+00 -0.2403582E+00
 -0.1545430E+02 -0.6401380E+01 -0.2568960E-01  0.6693934E+00  0.2770393E+01  0.6238029E+00 -0.2428115E+00
 -0.1475240E+02 -0.7885340E+01 -0.2568960E-01  0.6604555E+00  0.2757656E+01  0.6123724E+00 -0.2473893E+00
 -0.1390850E+02 -0.9293360E+01 -0.2568960E-01  0.6494831E+00  0.2740499E+01  0.5979365E+00 -0.2535749E+00
 -0.1293060E+02 -0.1061190E+02 -0.2568960E-01  0.6365097E+00  0.2718933E+01  0.5804977E+00 -0.2610881E+00
 -0.1182820E+02 -0.1182820E+02 -0.2568960E-01  0.6190372E+00  0.2693979E+01  0.5580510E+00 -0.2679291E+00
 -0.1061190E+02 -0.1293060E+02 -0.2568960E-01  0.5945614E+00  0.2669414E+01  0.5295042E+00 -0.2704229E+00
 -0.9293350E+01 -0.1390850E+02 -0.2568960E-01  0.5666213E+00  0.2642082E+01  0.4973897E+00 -0.2714095E+00
 -0.7885340E+01 -0.1475240E+02 -0.2568960E-01  0.5271823E+00  0.2617826E+01  0.4565089E+00 -0.2636681E+00
 -0.6401370E+01 -0.1545430E+02 -0.2568960E-01  0.4795636E+00  0.2592390E+01  0.4090396E+00 -0.2503356E+00
 -0.4855760E+01 -0.1600730E+02 -0.2568960E-01  0.4130687E+00  0.2572939E+01  0.3480627E+00 -0.2224368E+00
 -0.3263390E+01 -0.1640620E+02 -0.2568960E-01  0.3079236E+00  0.2583125E+01  0.2611403E+00 -0.1631647E+00
 -0.1639590E+01 -0.1664710E+02 -0.2568960E-01  0.1578514E+00  0.2709718E+01  0.1433579E+00 -0.6607255E-01
  0.1994750E-06 -0.1672760E+02 -0.2568960E-01  0.4876101E-01 -0.2000271E+01  0.2030375E-01  0.4433277E-01
  0.1639600E+01 -0.1664710E+02 -0.2568960E-01  0.1936880E+00 -0.1016485E+01 -0.1019491E+00  0.1646858E+00
  0.3263390E+01 -0.1640620E+02 -0.2568960E-01  0.3610927E+00 -0.9201203E+00 -0.2187227E+00  0.2873123E+00
  0.4855770E+01 -0.1600730E+02 -0.2568960E-01  0.4799260E+00 -0.8722234E+00 -0.3086527E+00  0.3675085E+00
  0.6401380E+01 -0.1545430E+02 -0.2568960E-01  0.5551029E+00 -0.8290799E+00 -0.3750023E+00  0.4092830E+00
  0.7885340E+01 -0.1475240E+02 -0.2568960E-01  0.6088240E+00 -0.7888575E+00 -0.4290117E+00  0.4319902E+00
  0.9293360E+01 -0.1390850E+02 -0.2568960E-01  0.6534335E+00 -0.7529673E+00 -0.4767863E+00  0.4468223E+00
  0.1061190E+02 -0.1293060E+02 -0.2568960E-01  0.6853464E+00 -0.7185989E+00 -0.5158800E+00  0.4511846E+00
  0.1182820E+02 -0.1182820E+02 -0.2568960E-01  0.7135320E+00 -0.6888270E+00 -0.5508411E+00  0.4535438E+00
  0.1293060E+02 -0.1061190E+02 -0.2568960E-01  0.7341453E+00 -0.6612009E+00 -0.5794281E+00  0.4508131E+00
  0.1390850E+02 -0.9293360E+01 -0.2568960E-01  0.7502530E+00 -0.6367530E+00 -0.6032264E+00  0.4460914E+00
  0.1475240E+02 -0.7885330E+01 -0.2568960E-01  0.7645260E+00 -0.6169557E+00 -0.6235807E+00  0.4423202E+00
  0.1545430E+02 -0.6401380E+01 -0.2568960E-01  0.7769127E+00 -0.6020601E+00 -0.6403086E+00  0.4399979E+00
  0.1600730E+02 -0.4855760E+01 -0.2568960E-01  0.7878166E+00 -0.5922055E+00 -0.6536606E+00  0.4397532E+00
  0.1640620E+02 -0.3263390E+01 -0.2568960E-01  0.7951026E+00 -0.5855799E+00 -0.6626319E+00  0.4394395E+00
  0.1664710E+02 -0.1639590E+01 -0.2568960E-01  0.7988974E+00 -0.5824412E+00 -0.6671771E+00  0.4394450E+00
  0.1672760E+02  0.0000000E+00 -0.1027320E+00  0.7954764E+00 -0.5830874E+00 -0.6640372E+00  0.4379923E+00
  0.1664710E+02  0.1639590E+01 -0.1027320E+00  0.7929694E+00 -0.5882015E+00 -0.6597029E+00  0.4399915E+00
  0.1640620E+02  0.3263390E+01 -0.1027320E+00  0.7870907E+00 -0.5969927E+00 -0.6509475E+00  0.4424693E+00
  0.1600730E+02  0.4855770E+01 -0.1027320E+00  0.7779911E+00 -0.6094153E+00 -0.6379393E+00  0.4453128E+00
  0.1545430E+02  0.6401380E+01 -0.1027320E+00  0.7658002E+00 -0.6255364E+00 -0.6207952E+00  0.4484007E+00
  0.1475240E+02  0.7885340E+01 -0.1027320E+00  0.7520210E+00 -0.6471274E+00 -0.5999765E+00  0.4533913E+00
  0.1390850E+02  0.9293360E+01 -0.1027320E+00  0.7364256E+00 -0.6742175E+00 -0.5752925E+00  0.4597403E+00
  0.1293060E+02  0.1061190E+02 -0.1027320E+00  0.7191927E+00 -0.7068692E+00 -0.5468734E+00  0.4670842E+00
  0.1182820E+02  0.1182820E+02 -0.1027320E+00  0.6988019E+00 -0.7442459E+00 -0.5140379E+00  0.4733805E+00
  0.1061190E+02  0.1293060E+02 -0.1027320E+00  0.6724839E+00 -0.7845101E+00 -0.4759400E+00  0.4750955E+00
  0.9293360E+01  0.1390850E+02 -0.1027320E+00  0.6430904E+00 -0.8307859E+00 -0.4336330E+00  0.4748975E+00
  0.7885330E+01  0.1475240E+02 -0.1027320E+00  0.6041101E+00 -0.8802019E+00 -0.3848155E+00  0.4656889E+00
  0.6401380E+01  0.1545430E+02 -0.1027320E+00  0.5585908E+00 -0.9375203E+00 -0.3305677E+00  0.4502763E+00
  0.4855770E+01  0.1600730E+02 -0.1027320E+00  0.4979917E+00 -0.1002248E+01 -0.2681233E+00  0.4196495E+00
  0.3263390E+01  0.1640620E+02 -0.1027320E+00  0.4052159E+00 -0.1077134E+01 -0.1920132E+00  0.3568344E+00
  0.1639590E+01  0.1664710E+02 -0.1027320E+00  0.2754796E+00 -0.1189055E+01 -0.1026262E+00  0.2556498E+00
 -0.7311870E-06  0.1672760E+02 -0.1027320E+00  0.1435727E+00 -0.1491657E+01 -0.1135035E-01  0.1431233E+00
 -0.1639590E+01  0.1664710E+02 -0.1027320E+00  0.8481237E-01 -0.2865736E+01  0.8160581E-01  0.2310046E-01
 -0.3263390E+01  0.1640620E+02 -0.1027320E+00  0.1995757E+00  0.2633545E+01  0.1743685E+00 -0.9708805E-01
 -0.4855770E+01  0.1600730E+02 -0.1027320E+00  0.3052457E+00  0.2531342E+01  0.2501501E+00 -0.1749281E+00
 -0.6401380E+01  0.1545430E+02 -0.1027320E+00  0.3773460E+00  0.2534947E+01  0.3100142E+00 -0.2151306E+00
 -0.7885340E+01  0.1475240E+02 -0.1027320E+00  0.4315374E+00  0.2560805E+01  0.3607784E+00 -0.2367772E+00
 -0.9293360E+01  0.1390850E+02 -0.1027320E+00  0.4771933E+00  0.2588675E+01  0.4060896E+00 -0.2506087E+00
 -0.1061190E+02  0.1293060E+02 -0.1027320E+00  0.5126206E+00  0.2622602E+01  0.4451190E+00 -0.2542616E+00
 -0.1182820E+02  0.1182820E+02 -0.1027320E+00  0.5446490E+00  0.2652618E+01  0.4808242E+00 -0.2558331E+00
 -0.1293060E+02  0.1061190E+02 -0.1027320E+00  0.5706973E+00  0.2683478E+01  0.5118515E+00 -0.2523953E+00
 -0.1390850E+02  0.9293360E+01 -0.1027320E+00  0.5924531E+00  0.2711715E+01  0.5385499E+00 -0.2469103E+00
 -0.1475240E+02  0.7885330E+01 -0.1027320E+00  0.6121221E+00  0.2734745E+01  0.5621563E+00 -0.2422269E+00
 -0.1545430E+02  0.6401370E+01 -0.1027320E+00  0.6298285E+00  0.2752496E+01  0.5827502E+00 -0.2389272E+00
 -0.1600730E+02  0.4855770E+01 -0.1027320E+00  0.6458373E+00  0.2764806E+01  0.6005329E+00 -0.2376257E+00
 -0.1640620E+02  0.3263390E+01 -0.1027320E+00  0.6586486E+00  0.2774678E+01  0.6148081E+00 -0.2362816E+00
 -0.1664710E+02  0.1639590E+01 -0.1027320E+00  0.6681854E+00  0.2781841E+01  0.6254110E+00 -0.2352290E+00
 -0.1672760E+02 -0.1462370E-05 -0.1027320E+00  0.6743135E+00  0.2786069E+01  0.6321449E+00 -0.2347159E+00
 -0.1664710E+02 -0.1639590E+01 -0.1027320E+00  0.6774652E+00  0.2786269E+01  0.6351466E+00 -0.2356860E+00
 -0.1640620E+02 -0.3263400E+01 -0.1027320E+00  0.6772068E+00  0.2783649E+01  0.6342850E+00 -0.2372583E+00
 -0.1600730E+02 -0.4855770E+01 -0.1027320E+00  0.6735134E+00  0.2778297E+01  0.6295537E+00 -0.2393376E+00
 -0.1545430E+02 -0.6401380E+01 -0.1027320E+00  0.6663249E+00  0.2770214E+01  0.6209001E+00 -0.2418096E+00
 -0.1475240E+02 -0.7885340E+01 -0.1027320E+00  0.6574364E+00  0.2757476E+01  0.6095288E+00 -0.2463681E+00
 -0.1390850E+02 -0.9293360E+01 -0.1027320E+00  0.6464881E+00  0.2740346E+01  0.5951407E+00 -0.2524963E+00
 -0.1293060E+02 -0.1061190E+02 -0.1027320E+00  0.6335191E+00  0.2718842E+01  0.5777465E+00 -0.2599143E+00
 -0.1182820E+02 -0.1182820E+02 -0.1027320E+00  0.6161103E+00  0.2693918E+01  0.5553963E+00 -0.2666962E+00
 -0.1061190E+02 -0.1293060E+02 -0.1027320E+00  0.5917891E+00  0.2669340E+01  0.5270154E+00 -0.2692009E+00
 -0.9293350E+01 -0.1390850E+02 -0.1027320E+00  0.5639264E+00  0.2642052E+01  0.4950161E+00 -0.2701334E+00
 -0.7885340E+01 -0.1475240E+02 -0.1027320E+00  0.5247765E+00  0.2617717E+01  0.4543970E+00 -0.2625143E+00
 -0.6401370E+01 -0.1545430E+02 -0.1027320E+00  0.4773277E+00  0.2592314E+01  0.4071133E+00 -0.2491997E+00
 -0.4855760E+01 -0.1600730E+02 -0.1027320E+00  0.4111728E+00  0.2572863E+01  0.3464483E+00 -0.2214422E+00
 -0.3263390E+01 -0.1640620E+02 -0.1027320E+00  0.3066301E+00  0.2582883E+01  0.2600039E+00 -0.1625424E+00
 -0.1639590E+01 -0.1664710E+02 -0.1027320E+00  0.1571960E+00  0.2709397E+01  0.1427415E+00 -0.6584398E-01
  0.1994750E-06 -0.1672760E+02 -0.1027320E+00  0.4851025E-01 -0.2000842E+01  0.2022453E-01  0.4409323E-01
  0.1639600E+01 -0.1664710E+02 -0.1027320E+00  0.1928177E+00 -0.1016526E+01 -0.1014843E+00  0.1639499E+00
  0.3263390E+01 -0.1640620E+02 -0.1027320E+00  0.3595051E+00 -0.9201701E+00 -0.2177468E+00  0.2860599E+00
  0.4855770E+01 -0.1600730E+02 -0.1027320E+00  0.4776805E+00 -0.8722795E+00 -0.3071880E+00  0.3658062E+00
  0.6401380E+01 -0.1545430E+02 -0.1027320E+00  0.5524814E+00 -0.8291237E+00 -0.3732134E+00  0.4073664E+00
  0.7885340E+01 -0.1475240E+02 -0.1027320E+00  0.6060069E+00 -0.7889260E+00 -0.4269972E+00  0.4300207E+00
  0.9293360E+01 -0.1390850E+02 -0.1027320E+00  0.6502981E+00 -0.7530034E+00 -0.4744824E+00  0.4446954E+00
  0.1061190E+02 -0.1293060E+02 -0.1027320E+00  0.6821219E+00 -0.7186666E+00 -0.5134224E+00  0.4490965E+00
  0.1182820E+02 -0.1182820E+02 -0.1027320E+00  0.7101332E+00 -0.6888835E+00 -0.5481917E+00  0.4514144E+00
  0.1293060E+02 -0.1061190E+02 -0.1027320E+00  0.7306752E+00 -0.6612543E+00 -0.5766654E+00  0.4487130E+00
  0.1390850E+02 -0.9293360E+01 -0.1027320E+00  0.7467757E+00 -0.6368540E+00 -0.6003857E+00  0.4440844E+00
