 VARIABLES="X" "Y" "Z" "abs(eta) (m)" "angle(phi) (rad)" "PRE1" "PRE2"
ZONE N=   3200 ,E =    3136 ,F=FEPOINT,ET=QUADRILATERAL
  0.1672760E+02  0.0000000E+00  0.0000000E+00  0.1332366E+00 -0.1387643E+01 -0.2426646E-01  0.1310081E+00
  0.1664710E+02  0.1639590E+01  0.0000000E+00  0.1303746E+00 -0.1386714E+01 -0.2386431E-01  0.1281718E+00
  0.1640620E+02  0.3263390E+01  0.0000000E+00  0.1270014E+00 -0.1388860E+01 -0.2297897E-01  0.1249053E+00
  0.1600730E+02  0.4855770E+01  0.0000000E+00  0.1230406E+00 -0.1394518E+01 -0.2157726E-01  0.1211339E+00
  0.1545430E+02  0.6401380E+01  0.0000000E+00  0.1190712E+00 -0.1402659E+01 -0.1992616E-01  0.1173921E+00
  0.1475240E+02  0.7885340E+01  0.0000000E+00  0.1152313E+00 -0.1412605E+01 -0.1815272E-01  0.1137925E+00
  0.1390850E+02  0.9293360E+01  0.0000000E+00  0.1115960E+00 -0.1424611E+01 -0.1625564E-01  0.1104058E+00
  0.1293060E+02  0.1061190E+02  0.0000000E+00  0.1075200E+00 -0.1440145E+01 -0.1400770E-01  0.1066036E+00
  0.1182820E+02  0.1182820E+02  0.0000000E+00  0.1011283E+00 -0.1464938E+01 -0.1068530E-01  0.1005622E+00
  0.1061190E+02  0.1293060E+02  0.0000000E+00  0.9452862E-01 -0.1494684E+01 -0.7187901E-02  0.9425494E-01
  0.9293360E+01  0.1390850E+02  0.0000000E+00  0.8696020E-01 -0.1534071E+01 -0.3192881E-02  0.8690157E-01
  0.7885330E+01  0.1475240E+02  0.0000000E+00  0.7658654E-01 -0.1598087E+01  0.2089840E-02  0.7655802E-01
  0.6401380E+01  0.1545430E+02  0.0000000E+00  0.6430574E-01 -0.1702821E+01  0.8465310E-02  0.6374611E-01
  0.4855770E+01  0.1600730E+02  0.0000000E+00  0.4838352E-01 -0.1937286E+01  0.1733778E-01  0.4517041E-01
  0.3263390E+01  0.1640620E+02  0.0000000E+00  0.3478006E-01 -0.2693391E+01  0.3134476E-01  0.1507177E-01
  0.1639590E+01  0.1664710E+02  0.0000000E+00  0.5537677E-01  0.2680540E+01  0.4959459E-01 -0.2463662E-01
 -0.7311870E-06  0.1672760E+02  0.0000000E+00  0.8297004E-01  0.2425825E+01  0.6260832E-01 -0.5444470E-01
 -0.1639590E+01  0.1664710E+02  0.0000000E+00  0.9751154E-01  0.2338859E+01  0.6774546E-01 -0.7013596E-01
 -0.3263390E+01  0.1640620E+02  0.0000000E+00  0.9967990E-01  0.2297439E+01  0.6622373E-01 -0.7450168E-01
 -0.4855770E+01  0.1600730E+02  0.0000000E+00  0.9672857E-01  0.2276253E+01  0.6271699E-01 -0.7364099E-01
 -0.6401380E+01  0.1545430E+02  0.0000000E+00  0.9324364E-01  0.2265590E+01  0.5969712E-01 -0.7162842E-01
 -0.7885340E+01  0.1475240E+02  0.0000000E+00  0.8947351E-01  0.2260868E+01  0.5695815E-01 -0.6900201E-01
 -0.9293360E+01  0.1390850E+02  0.0000000E+00  0.8696427E-01  0.2255423E+01  0.5499480E-01 -0.6736732E-01
 -0.1061190E+02  0.1293060E+02  0.0000000E+00  0.8400558E-01  0.2254357E+01  0.5305440E-01 -0.6513193E-01
 -0.1182820E+02  0.1182820E+02  0.0000000E+00  0.8105206E-01  0.2254525E+01  0.5119960E-01 -0.6283341E-01
 -0.1293060E+02  0.1061190E+02  0.0000000E+00  0.7808706E-01  0.2255497E+01  0.4938545E-01 -0.6048692E-01
 -0.1390850E+02  0.9293360E+01  0.0000000E+00  0.7435502E-01  0.2261979E+01  0.4739754E-01 -0.5728999E-01
 -0.1475240E+02  0.7885330E+01  0.0000000E+00  0.7123473E-01  0.2264923E+01  0.4556989E-01 -0.5475191E-01
 -0.1545430E+02  0.6401370E+01  0.0000000E+00  0.6861979E-01  0.2262848E+01  0.4378753E-01 -0.5283302E-01
 -0.1600730E+02  0.4855770E+01  0.0000000E+00  0.6595017E-01  0.2259048E+01  0.4189073E-01 -0.5093713E-01
 -0.1640620E+02  0.3263390E+01  0.0000000E+00  0.6325012E-01  0.2254425E+01  0.3994943E-01 -0.4903693E-01
 -0.1664710E+02  0.1639590E+01  0.0000000E+00  0.6041942E-01  0.2251402E+01  0.3801977E-01 -0.4695746E-01
 -0.1672760E+02 -0.1462370E-05  0.0000000E+00  0.5734075E-01  0.2251329E+01  0.3607921E-01 -0.4456740E-01
 -0.1664710E+02 -0.1639590E+01  0.0000000E+00  0.5394764E-01  0.2256162E+01  0.3414647E-01 -0.4176561E-01
 -0.1640620E+02 -0.3263400E+01  0.0000000E+00  0.5026285E-01  0.2267702E+01  0.3226110E-01 -0.3854317E-01
 -0.1600730E+02 -0.4855770E+01  0.0000000E+00  0.4628325E-01  0.2289763E+01  0.3048248E-01 -0.3482753E-01
 -0.1545430E+02 -0.6401380E+01  0.0000000E+00  0.4230653E-01  0.2314463E+01  0.2864115E-01 -0.3113722E-01
 -0.1475240E+02 -0.7885340E+01  0.0000000E+00  0.3834957E-01  0.2339211E+01  0.2665281E-01 -0.2757384E-01
 -0.1390850E+02 -0.9293360E+01  0.0000000E+00  0.3452143E-01  0.2364345E+01  0.2460847E-01 -0.2421058E-01
 -0.1293060E+02 -0.1061190E+02  0.0000000E+00  0.3053550E-01  0.2408603E+01  0.2269329E-01 -0.2043113E-01
 -0.1182820E+02 -0.1182820E+02  0.0000000E+00  0.2573301E-01  0.2545979E+01  0.2130190E-01 -0.1443666E-01
 -0.1061190E+02 -0.1293060E+02  0.0000000E+00  0.2153021E-01  0.2751568E+01  0.1991329E-01 -0.8186023E-02
 -0.9293350E+01 -0.1390850E+02  0.0000000E+00  0.1880387E-01  0.3093240E+01  0.1878189E-01 -0.9088731E-03
 -0.7885340E+01 -0.1475240E+02  0.0000000E+00  0.2065503E-01 -0.2673093E+01  0.1842939E-01  0.9326746E-02
 -0.6401370E+01 -0.1545430E+02  0.0000000E+00  0.2901240E-01 -0.2281671E+01  0.1893049E-01  0.2198535E-01
 -0.4855760E+01 -0.1600730E+02  0.0000000E+00  0.4554343E-01 -0.2053320E+01  0.2113288E-01  0.4034359E-01
 -0.3263390E+01 -0.1640620E+02  0.0000000E+00  0.7509187E-01 -0.1936950E+01  0.2688489E-01  0.7011413E-01
 -0.1639590E+01 -0.1664710E+02  0.0000000E+00  0.1149809E+00 -0.1881685E+01  0.3517329E-01  0.1094690E+00
  0.1994750E-06 -0.1672760E+02  0.0000000E+00  0.1444157E+00 -0.1841250E+01  0.3858340E-01  0.1391661E+00
  0.1639600E+01 -0.1664710E+02  0.0000000E+00  0.1589226E+00 -0.1791806E+01  0.3483823E-01  0.1550570E+00
  0.3263390E+01 -0.1640620E+02  0.0000000E+00  0.1618423E+00 -0.1727485E+01  0.2525529E-01  0.1598596E+00
  0.4855770E+01 -0.1600730E+02  0.0000000E+00  0.1601544E+00 -0.1668447E+01  0.1561430E-01  0.1593914E+00
  0.6401380E+01 -0.1545430E+02  0.0000000E+00  0.1578497E+00 -0.1621725E+01  0.8035595E-02  0.1576451E+00
  0.7885340E+01 -0.1475240E+02  0.0000000E+00  0.1552186E+00 -0.1581795E+01  0.1707161E-02  0.1552092E+00
  0.9293360E+01 -0.1390850E+02  0.0000000E+00  0.1537426E+00 -0.1548755E+01 -0.3388440E-02  0.1537053E+00
  0.1061190E+02 -0.1293060E+02  0.0000000E+00  0.1517531E+00 -0.1519913E+01 -0.7718350E-02  0.1515567E+00
  0.1182820E+02 -0.1182820E+02  0.0000000E+00  0.1497542E+00 -0.1494179E+01 -0.1146261E-01  0.1493149E+00
  0.1293060E+02 -0.1061190E+02  0.0000000E+00  0.1477382E+00 -0.1470877E+01 -0.1473728E-01  0.1470013E+00
  0.1390850E+02 -0.9293360E+01  0.0000000E+00  0.1448595E+00 -0.1450083E+01 -0.1744402E-01  0.1438054E+00
  0.1475240E+02 -0.7885330E+01  0.0000000E+00  0.1426015E+00 -0.1433173E+01 -0.1956343E-01  0.1412532E+00
  0.1545430E+02 -0.6401380E+01  0.0000000E+00  0.1409363E+00 -0.1419323E+01 -0.2126653E-01  0.1393225E+00
  0.1600730E+02 -0.4855760E+01  0.0000000E+00  0.1392790E+00 -0.1407376E+01 -0.2265986E-01  0.1374233E+00
  0.1640620E+02 -0.3263390E+01  0.0000000E+00  0.1375719E+00 -0.1397856E+01 -0.2367332E-01  0.1355197E+00
  0.1664710E+02 -0.1639590E+01  0.0000000E+00  0.1356006E+00 -0.1391375E+01 -0.2419931E-01  0.1334238E+00
  0.1672760E+02  0.0000000E+00 -0.2568960E-01  0.1331151E+00 -0.1387663E+01 -0.2424180E-01  0.1308891E+00
  0.1664710E+02  0.1639590E+01 -0.2568960E-01  0.1302564E+00 -0.1386732E+01 -0.2384044E-01  0.1280561E+00
  0.1640620E+02  0.3263390E+01 -0.2568960E-01  0.1268887E+00 -0.1388874E+01 -0.2295678E-01  0.1247948E+00
  0.1600730E+02  0.4855770E+01 -0.2568960E-01  0.1229351E+00 -0.1394523E+01 -0.2155819E-01  0.1210301E+00
  0.1545430E+02  0.6401380E+01 -0.2568960E-01  0.1189711E+00 -0.1402658E+01 -0.1990945E-01  0.1172934E+00
  0.1475240E+02  0.7885340E+01 -0.2568960E-01  0.1151333E+00 -0.1412607E+01 -0.1813705E-01  0.1136958E+00
  0.1390850E+02  0.9293360E+01 -0.2568960E-01  0.1114958E+00 -0.1424629E+01 -0.1623910E-01  0.1103069E+00
  0.1293060E+02  0.1061190E+02 -0.2568960E-01  0.1074180E+00 -0.1440172E+01 -0.1399154E-01  0.1065029E+00
  0.1182820E+02  0.1182820E+02 -0.2568960E-01  0.1010402E+00 -0.1464950E+01 -0.1067480E-01  0.1004747E+00
  0.1061190E+02  0.1293060E+02 -0.2568960E-01  0.9444584E-01 -0.1494699E+01 -0.7180104E-02  0.9417251E-01
  0.9293360E+01  0.1390850E+02 -0.2568960E-01  0.8687925E-01 -0.1534115E+01 -0.3186144E-02  0.8682081E-01
  0.7885330E+01  0.1475240E+02 -0.2568960E-01  0.7652324E-01 -0.1598100E+01  0.2089127E-02  0.7649472E-01
  0.6401380E+01  0.1545430E+02 -0.2568960E-01  0.6425126E-01 -0.1702840E+01  0.8459369E-02  0.6369194E-01
  0.4855770E+01  0.1600730E+02 -0.2568960E-01  0.4833996E-01 -0.1937392E+01  0.1732696E-01  0.4512791E-01
  0.3263390E+01  0.1640620E+02 -0.2568960E-01  0.3475299E-01 -0.2693358E+01  0.3131986E-01  0.1506109E-01
  0.1639590E+01  0.1664710E+02 -0.2568960E-01  0.5532802E-01  0.2680623E+01  0.4955296E-01 -0.2461085E-01
 -0.7311870E-06  0.1672760E+02 -0.2568960E-01  0.8290149E-01  0.2425838E+01  0.6255729E-01 -0.5439892E-01
 -0.1639590E+01  0.1664710E+02 -0.2568960E-01  0.9743654E-01  0.2338849E+01  0.6769266E-01 -0.7008269E-01
 -0.3263390E+01  0.1640620E+02 -0.2568960E-01  0.9959836E-01  0.2297451E+01  0.6617042E-01 -0.7443996E-01
 -0.4855770E+01  0.1600730E+02 -0.2568960E-01  0.9664652E-01  0.2276274E+01  0.6266536E-01 -0.7357720E-01
 -0.6401380E+01  0.1545430E+02 -0.2568960E-01  0.9316248E-01  0.2265612E+01  0.5964674E-01 -0.7156476E-01
 -0.7885340E+01  0.1475240E+02 -0.2568960E-01  0.8940127E-01  0.2260870E+01  0.5691233E-01 -0.6894618E-01
 -0.9293360E+01  0.1390850E+02 -0.2568960E-01  0.8688757E-01  0.2255448E+01  0.5494800E-01 -0.6730651E-01
 -0.1061190E+02  0.1293060E+02 -0.2568960E-01  0.8393165E-01  0.2254375E+01  0.5300884E-01 -0.6507369E-01
 -0.1182820E+02  0.1182820E+02 -0.2568960E-01  0.8097985E-01  0.2254540E+01  0.5115495E-01 -0.6277664E-01
 -0.1293060E+02  0.1061190E+02 -0.2568960E-01  0.7801564E-01  0.2255527E+01  0.4934211E-01 -0.6043009E-01
 -0.1390850E+02  0.9293360E+01 -0.2568960E-01  0.7429188E-01  0.2261975E+01  0.4735705E-01 -0.5724153E-01
 -0.1475240E+02  0.7885330E+01 -0.2568960E-01  0.7117672E-01  0.2264902E+01  0.4553164E-01 -0.5470828E-01
 -0.1545430E+02  0.6401370E+01 -0.2568960E-01  0.6856342E-01  0.2262834E+01  0.4375080E-01 -0.5279024E-01
 -0.1600730E+02  0.4855770E+01 -0.2568960E-01  0.6589456E-01  0.2259041E+01  0.4185505E-01 -0.5089448E-01
 -0.1640620E+02  0.3263390E+01 -0.2568960E-01  0.6319597E-01  0.2254437E+01  0.3991581E-01 -0.4899447E-01
 -0.1664710E+02  0.1639590E+01 -0.2568960E-01  0.6036652E-01  0.2251434E+01  0.3798798E-01 -0.4691513E-01
 -0.1672760E+02 -0.1462370E-05 -0.2568960E-01  0.5728974E-01  0.2251355E+01  0.3604828E-01 -0.4452680E-01
 -0.1664710E+02 -0.1639590E+01 -0.2568960E-01  0.5390023E-01  0.2256177E+01  0.3411713E-01 -0.4172837E-01
 -0.1640620E+02 -0.3263400E+01 -0.2568960E-01  0.5022032E-01  0.2267689E+01  0.3223331E-01 -0.3851097E-01
 -0.1600730E+02 -0.4855770E+01 -0.2568960E-01  0.4624608E-01  0.2289677E+01  0.3045501E-01 -0.3480219E-01
 -0.1545430E+02 -0.6401380E+01 -0.2568960E-01  0.4227383E-01  0.2314343E+01  0.2861528E-01 -0.3111659E-01
 -0.1475240E+02 -0.7885340E+01 -0.2568960E-01  0.3831980E-01  0.2339109E+01  0.2662930E-01 -0.2755516E-01
 -0.1390850E+02 -0.9293360E+01 -0.2568960E-01  0.3449217E-01  0.2364351E+01  0.2458777E-01 -0.2418990E-01
 -0.1293060E+02 -0.1061190E+02 -0.2568960E-01  0.3050716E-01  0.2408763E+01  0.2267550E-01 -0.2040853E-01
 -0.1182820E+02 -0.1182820E+02 -0.2568960E-01  0.2571269E-01  0.2545882E+01  0.2128367E-01 -0.1442733E-01
 -0.1061190E+02 -0.1293060E+02 -0.2568960E-01  0.2151312E-01  0.2751462E+01  0.1989661E-01 -0.8181632E-02
 -0.9293350E+01 -0.1390850E+02 -0.2568960E-01  0.1879023E-01  0.3093350E+01  0.1876837E-01 -0.9061304E-03
 -0.7885340E+01 -0.1475240E+02 -0.2568960E-01  0.2063598E-01 -0.2673420E+01  0.1841544E-01  0.9312109E-02
 -0.6401370E+01 -0.1545430E+02 -0.2568960E-01  0.2898537E-01 -0.2281842E+01  0.1891661E-01  0.2196163E-01
 -0.4855760E+01 -0.1600730E+02 -0.2568960E-01  0.4550536E-01 -0.2053407E+01  0.2111875E-01  0.4030802E-01
 -0.3263390E+01 -0.1640620E+02 -0.2568960E-01  0.7502207E-01 -0.1937020E+01  0.2686479E-01  0.7004709E-01
 -0.1639590E+01 -0.1664710E+02 -0.2568960E-01  0.1148743E+00 -0.1881739E+01  0.3514651E-01  0.1093655E+00
  0.1994750E-06 -0.1672760E+02 -0.2568960E-01  0.1442896E+00 -0.1841289E+01  0.3855513E-01  0.1390431E+00
  0.1639600E+01 -0.1664710E+02 -0.2568960E-01  0.1587896E+00 -0.1791839E+01  0.3481413E-01  0.1549261E+00
  0.3263390E+01 -0.1640620E+02 -0.2568960E-01  0.1617022E+00 -0.1727519E+01  0.2523875E-01  0.1597204E+00
  0.4855770E+01 -0.1600730E+02 -0.2568960E-01  0.1600120E+00 -0.1668478E+01  0.1560545E-01  0.1592492E+00
  0.6401380E+01 -0.1545430E+02 -0.2568960E-01  0.1577080E+00 -0.1621747E+01  0.8031852E-02  0.1575033E+00
  0.7885340E+01 -0.1475240E+02 -0.2568960E-01  0.1550847E+00 -0.1581821E+01  0.1709672E-02  0.1550753E+00
  0.9293360E+01 -0.1390850E+02 -0.2568960E-01  0.1536030E+00 -0.1548776E+01 -0.3382106E-02  0.1535658E+00
  0.1061190E+02 -0.1293060E+02 -0.2568960E-01  0.1516161E+00 -0.1519931E+01 -0.7708679E-02  0.1514200E+00
  0.1182820E+02 -0.1182820E+02 -0.2568960E-01  0.1496181E+00 -0.1494190E+01 -0.1145055E-01  0.1491793E+00
  0.1293060E+02 -0.1061190E+02 -0.2568960E-01  0.1476021E+00 -0.1470890E+01 -0.1472189E-01  0.1468661E+00
  0.1390850E+02 -0.9293360E+01 -0.2568960E-01  0.1447314E+00 -0.1450101E+01 -0.1742597E-01  0.1436785E+00
  0.1475240E+02 -0.7885330E+01 -0.2568960E-01  0.1424779E+00 -0.1433196E+01 -0.1954318E-01  0.1411312E+00
  0.1545430E+02 -0.6401380E+01 -0.2568960E-01  0.1408130E+00 -0.1419343E+01 -0.2124523E-01  0.1392011E+00
  0.1600730E+02 -0.4855760E+01 -0.2568960E-01  0.1391559E+00 -0.1407394E+01 -0.2263732E-01  0.1373023E+00
  0.1640620E+02 -0.3263390E+01 -0.2568960E-01  0.1374483E+00 -0.1397880E+01 -0.2364874E-01  0.1353986E+00
  0.1664710E+02 -0.1639590E+01 -0.2568960E-01  0.1354774E+00 -0.1391399E+01 -0.2417415E-01  0.1333032E+00
  0.1672760E+02  0.0000000E+00 -0.1027320E+00  0.1327589E+00 -0.1387716E+01 -0.2416998E-01  0.1305402E+00
  0.1664710E+02  0.1639590E+01 -0.1027320E+00  0.1299106E+00 -0.1386776E+01 -0.2377150E-01  0.1277172E+00
  0.1640620E+02  0.3263390E+01 -0.1027320E+00  0.1265582E+00 -0.1388906E+01 -0.2289294E-01  0.1244704E+00
  0.1600730E+02  0.4855770E+01 -0.1027320E+00  0.1226259E+00 -0.1394532E+01 -0.2150286E-01  0.1207259E+00
  0.1545430E+02  0.6401380E+01 -0.1027320E+00  0.1186773E+00 -0.1402649E+01 -0.1986141E-01  0.1170035E+00
  0.1475240E+02  0.7885340E+01 -0.1027320E+00  0.1148447E+00 -0.1412608E+01 -0.1809142E-01  0.1134108E+00
  0.1390850E+02  0.9293360E+01 -0.1027320E+00  0.1112001E+00 -0.1424662E+01 -0.1619238E-01  0.1100149E+00
  0.1293060E+02  0.1061190E+02 -0.1027320E+00  0.1071169E+00 -0.1440245E+01 -0.1394458E-01  0.1062053E+00
  0.1182820E+02  0.1182820E+02 -0.1027320E+00  0.1007799E+00 -0.1464961E+01 -0.1064619E-01  0.1002160E+00
  0.1061190E+02  0.1293060E+02 -0.1027320E+00  0.9419978E-01 -0.1494737E+01 -0.7157904E-02  0.9392743E-01
  0.9293360E+01  0.1390850E+02 -0.1027320E+00  0.8663826E-01 -0.1534230E+01 -0.3167326E-02  0.8658035E-01
  0.7885330E+01  0.1475240E+02 -0.1027320E+00  0.7633378E-01 -0.1598110E+01  0.2084723E-02  0.7630530E-01
  0.6401380E+01  0.1545430E+02 -0.1027320E+00  0.6408767E-01 -0.1702916E+01  0.8442637E-02  0.6352914E-01
  0.4855770E+01  0.1600730E+02 -0.1027320E+00  0.4820781E-01 -0.1937695E+01  0.1729320E-01  0.4499931E-01
  0.3263390E+01  0.1640620E+02 -0.1027320E+00  0.3466976E-01 -0.2692985E+01  0.3123924E-01  0.1503668E-01
  0.1639590E+01  0.1664710E+02 -0.1027320E+00  0.5518446E-01  0.2680796E+01  0.4942863E-01 -0.2453843E-01
 -0.7311870E-06  0.1672760E+02 -0.1027320E+00  0.8270150E-01  0.2425853E+01  0.6240722E-01 -0.5426672E-01
 -0.1639590E+01  0.1664710E+02 -0.1027320E+00  0.9721326E-01  0.2338800E+01  0.6753413E-01 -0.6992538E-01
 -0.3263390E+01  0.1640620E+02 -0.1027320E+00  0.9935651E-01  0.2297442E+01  0.6600911E-01 -0.7425977E-01
 -0.4855770E+01  0.1600730E+02 -0.1027320E+00  0.9639949E-01  0.2276321E+01  0.6250867E-01 -0.7338616E-01
 -0.6401380E+01  0.1545430E+02 -0.1027320E+00  0.9292048E-01  0.2265643E+01  0.5949401E-01 -0.7137702E-01
 -0.7885340E+01  0.1475240E+02 -0.1027320E+00  0.8918740E-01  0.2260837E+01  0.5677389E-01 -0.6878313E-01
 -0.9293360E+01  0.1390850E+02 -0.1027320E+00  0.8666101E-01  0.2255478E+01  0.5480672E-01 -0.6712939E-01
 -0.1061190E+02  0.1293060E+02 -0.1027320E+00  0.8371373E-01  0.2254377E+01  0.5287134E-01 -0.6490462E-01
 -0.1182820E+02  0.1182820E+02 -0.1027320E+00  0.8076752E-01  0.2254535E+01  0.5102048E-01 -0.6261232E-01
 -0.1293060E+02  0.1061190E+02 -0.1027320E+00  0.7780644E-01  0.2255546E+01  0.4921095E-01 -0.6026710E-01
 -0.1390850E+02  0.9293360E+01 -0.1027320E+00  0.7410834E-01  0.2261886E+01  0.4723498E-01 -0.5710431E-01
 -0.1475240E+02  0.7885330E+01 -0.1027320E+00  0.7100813E-01  0.2264750E+01  0.4541549E-01 -0.5458560E-01
 -0.1545430E+02  0.6401370E+01 -0.1027320E+00  0.6839895E-01  0.2262694E+01  0.4363850E-01 -0.5266971E-01
 -0.1600730E+02  0.4855770E+01 -0.1027320E+00  0.6573448E-01  0.2258936E+01  0.4174807E-01 -0.5077520E-01
 -0.1640620E+02  0.3263390E+01 -0.1027320E+00  0.6303907E-01  0.2254390E+01  0.3981444E-01 -0.4887469E-01
 -0.1664710E+02  0.1639590E+01 -0.1027320E+00  0.6021308E-01  0.2251420E+01  0.3789074E-01 -0.4679644E-01
 -0.1672760E+02 -0.1462370E-05 -0.1027320E+00  0.5714304E-01  0.2251361E+01  0.3595624E-01 -0.4441256E-01
 -0.1664710E+02 -0.1639590E+01 -0.1027320E+00  0.5376373E-01  0.2256136E+01  0.3402902E-01 -0.4162409E-01
 -0.1640620E+02 -0.3263400E+01 -0.1027320E+00  0.5009723E-01  0.2267548E+01  0.3214890E-01 -0.3842111E-01
 -0.1600730E+02 -0.4855770E+01 -0.1027320E+00  0.4613963E-01  0.2289340E+01  0.3037322E-01 -0.3473231E-01
 -0.1545430E+02 -0.6401380E+01 -0.1027320E+00  0.4217961E-01  0.2313865E+01  0.2853665E-01 -0.3106089E-01
 -0.1475240E+02 -0.7885340E+01 -0.1027320E+00  0.3823375E-01  0.2338690E+01  0.2655798E-01 -0.2750442E-01
 -0.1390850E+02 -0.9293360E+01 -0.1027320E+00  0.3440747E-01  0.2364289E+01  0.2452588E-01 -0.2413203E-01
 -0.1293060E+02 -0.1061190E+02 -0.1027320E+00  0.3042456E-01  0.2409129E+01  0.2262154E-01 -0.2034502E-01
 -0.1182820E+02 -0.1182820E+02 -0.1027320E+00  0.2565234E-01  0.2545457E+01  0.2122761E-01 -0.1440248E-01
 -0.1061190E+02 -0.1293060E+02 -0.1027320E+00  0.2146344E-01  0.2751059E+01  0.1984737E-01 -0.8170750E-02
 -0.9293350E+01 -0.1390850E+02 -0.1027320E+00  0.1874901E-01  0.3093587E+01  0.1872741E-01 -0.8997074E-03
 -0.7885340E+01 -0.1475240E+02 -0.1027320E+00  0.2057690E-01 -0.2674369E+01  0.1837152E-01  0.9268023E-02
 -0.6401370E+01 -0.1545430E+02 -0.1027320E+00  0.2890328E-01 -0.2282284E+01  0.1887272E-01  0.2189109E-01
 -0.4855760E+01 -0.1600730E+02 -0.1027320E+00  0.4539301E-01 -0.2053624E+01  0.2107530E-01  0.4020394E-01
 -0.3263390E+01 -0.1640620E+02 -0.1027320E+00  0.7480524E-01 -0.1937211E+01  0.2680052E-01  0.6983950E-01
 -0.1639590E+01 -0.1664710E+02 -0.1027320E+00  0.1145604E+00 -0.1881881E+01  0.3506592E-01  0.1090618E+00
  0.1994750E-06 -0.1672760E+02 -0.1027320E+00  0.1439168E+00 -0.1841395E+01  0.3847018E-01  0.1386799E+00
  0.1639600E+01 -0.1664710E+02 -0.1027320E+00  0.1583944E+00 -0.1791930E+01  0.3474152E-01  0.1545374E+00
  0.3263390E+01 -0.1640620E+02 -0.1027320E+00  0.1612860E+00 -0.1727594E+01  0.2518570E-01  0.1593075E+00
  0.4855770E+01 -0.1600730E+02 -0.1027320E+00  0.1595868E+00 -0.1668560E+01  0.1557695E-01  0.1588248E+00
  0.6401380E+01 -0.1545430E+02 -0.1027320E+00  0.1572862E+00 -0.1621802E+01  0.8019067E-02  0.1570817E+00
  0.7885340E+01 -0.1475240E+02 -0.1027320E+00  0.1546869E+00 -0.1581905E+01  0.1718311E-02  0.1546774E+00
  0.9293360E+01 -0.1390850E+02 -0.1027320E+00  0.1531910E+00 -0.1548839E+01 -0.3363319E-02  0.1531541E+00
  0.1061190E+02 -0.1293060E+02 -0.1027320E+00  0.1512113E+00 -0.1519975E+01 -0.7681497E-02  0.1510161E+00
  0.1182820E+02 -0.1182820E+02 -0.1027320E+00  0.1492177E+00 -0.1494222E+01 -0.1141515E-01  0.1487804E+00
  0.1293060E+02 -0.1061190E+02 -0.1027320E+00  0.1472018E+00 -0.1470927E+01 -0.1467658E-01  0.1464684E+00
  0.1390850E+02 -0.9293360E+01 -0.1027320E+00  0.1443555E+00 -0.1450154E+01 -0.1737319E-01  0.1433063E+00
