 VARIABLES="X" "Y" "Z" "abs(eta) (m)" "angle(phi) (rad)" "PRE1" "PRE2"
ZONE N=   3200 ,E =    3136 ,F=FEPOINT,ET=QUADRILATERAL
  0.1530690E+02  0.0000000E+00  0.0000000E+00  0.6136302E+00 -0.6576535E+00 -0.4856446E+00  0.3750885E+00
  0.1523320E+02  0.1500340E+01  0.0000000E+00  0.6115044E+00 -0.6663625E+00 -0.4806885E+00  0.3779897E+00
  0.1501280E+02  0.2986230E+01  0.0000000E+00  0.6076927E+00 -0.6794193E+00 -0.4727470E+00  0.3818384E+00
  0.1464780E+02  0.4443360E+01  0.0000000E+00  0.6018794E+00 -0.6965438E+00 -0.4616801E+00  0.3861480E+00
  0.1414170E+02  0.5857700E+01  0.0000000E+00  0.5945505E+00 -0.7183466E+00 -0.4476340E+00  0.3912979E+00
  0.1349950E+02  0.7215620E+01  0.0000000E+00  0.5862764E+00 -0.7453249E+00 -0.4308355E+00  0.3976189E+00
  0.1272720E+02  0.8504060E+01  0.0000000E+00  0.5783414E+00 -0.7793411E+00 -0.4114187E+00  0.4064646E+00
  0.1183240E+02  0.9710600E+01  0.0000000E+00  0.5676234E+00 -0.8178549E+00 -0.3881341E+00  0.4141839E+00
  0.1082360E+02  0.1082360E+02  0.0000000E+00  0.5529341E+00 -0.8598993E+00 -0.3607971E+00  0.4190007E+00
  0.9710590E+01  0.1183240E+02  0.0000000E+00  0.5382358E+00 -0.9089525E+00 -0.3307849E+00  0.4245930E+00
  0.8504060E+01  0.1272720E+02  0.0000000E+00  0.5210450E+00 -0.9640692E+00 -0.2970903E+00  0.4280481E+00
  0.7215620E+01  0.1349950E+02  0.0000000E+00  0.4988213E+00 -0.1025430E+01 -0.2587541E+00  0.4264611E+00
  0.5857700E+01  0.1414170E+02  0.0000000E+00  0.4775795E+00 -0.1101174E+01 -0.2161282E+00  0.4258765E+00
  0.4443360E+01  0.1464780E+02  0.0000000E+00  0.4502206E+00 -0.1190743E+01 -0.1670184E+00  0.4180951E+00
  0.2986230E+01  0.1501280E+02  0.0000000E+00  0.4115997E+00 -0.1313330E+01 -0.1048062E+00  0.3980327E+00
  0.1500340E+01  0.1523320E+02  0.0000000E+00  0.3022416E+00 -0.1538902E+01 -0.9638284E-02  0.3020878E+00
 -0.6690860E-06  0.1530690E+02  0.0000000E+00  0.2252338E+00 -0.1781864E+01  0.4718738E-01  0.2202354E+00
 -0.1500340E+01  0.1523320E+02  0.0000000E+00  0.1486708E+00 -0.2232570E+01  0.9136076E-01  0.1172869E+00
 -0.2986230E+01  0.1501280E+02  0.0000000E+00  0.1485208E+00  0.2603547E+01  0.1275365E+00 -0.7611082E-01
 -0.4443360E+01  0.1464780E+02  0.0000000E+00  0.2093732E+00  0.2455394E+01  0.1619837E+00 -0.1326590E+00
 -0.5857700E+01  0.1414170E+02  0.0000000E+00  0.2518246E+00  0.2455375E+01  0.1948237E+00 -0.1595599E+00
 -0.7215620E+01  0.1349950E+02  0.0000000E+00  0.2850080E+00  0.2482861E+01  0.2253756E+00 -0.1744574E+00
 -0.8504060E+01  0.1272720E+02  0.0000000E+00  0.3159281E+00  0.2509456E+01  0.2548804E+00 -0.1866723E+00
 -0.9710590E+01  0.1183240E+02  0.0000000E+00  0.3409315E+00  0.2544514E+01  0.2819441E+00 -0.1916815E+00
 -0.1082360E+02  0.1082360E+02  0.0000000E+00  0.3629653E+00  0.2579238E+01  0.3070694E+00 -0.1935256E+00
 -0.1183240E+02  0.9710590E+01  0.0000000E+00  0.3845564E+00  0.2605803E+01  0.3306669E+00 -0.1963236E+00
 -0.1272720E+02  0.8504060E+01  0.0000000E+00  0.4023435E+00  0.2636989E+01  0.3521978E+00 -0.1945173E+00
 -0.1349950E+02  0.7215620E+01  0.0000000E+00  0.4172699E+00  0.2667807E+01  0.3713066E+00 -0.1903828E+00
 -0.1414170E+02  0.5857690E+01  0.0000000E+00  0.4321180E+00  0.2690420E+01  0.3888787E+00 -0.1884125E+00
 -0.1464780E+02  0.4443360E+01  0.0000000E+00  0.4460134E+00  0.2706888E+01  0.4045317E+00 -0.1878351E+00
 -0.1501280E+02  0.2986230E+01  0.0000000E+00  0.4586526E+00  0.2719604E+01  0.4184179E+00 -0.1878528E+00
 -0.1523320E+02  0.1500340E+01  0.0000000E+00  0.4696992E+00  0.2729761E+01  0.4304272E+00 -0.1880153E+00
 -0.1530690E+02 -0.1338170E-05  0.0000000E+00  0.4791866E+00  0.2736667E+01  0.4404357E+00 -0.1887756E+00
 -0.1523320E+02 -0.1500340E+01  0.0000000E+00  0.4868901E+00  0.2740323E+01  0.4482145E+00 -0.1901730E+00
 -0.1501280E+02 -0.2986230E+01  0.0000000E+00  0.4928139E+00  0.2740481E+01  0.4536980E+00 -0.1924154E+00
 -0.1464780E+02 -0.4443360E+01  0.0000000E+00  0.4969957E+00  0.2737869E+01  0.4570395E+00 -0.1952425E+00
 -0.1414170E+02 -0.5857700E+01  0.0000000E+00  0.4999256E+00  0.2732056E+01  0.4585845E+00 -0.1990624E+00
 -0.1349950E+02 -0.7215620E+01  0.0000000E+00  0.5021288E+00  0.2722771E+01  0.4587292E+00 -0.2042080E+00
 -0.1272720E+02 -0.8504060E+01  0.0000000E+00  0.5048909E+00  0.2707986E+01  0.4581664E+00 -0.2121283E+00
 -0.1183240E+02 -0.9710600E+01  0.0000000E+00  0.5043679E+00  0.2691864E+01  0.4542161E+00 -0.2192596E+00
 -0.1082360E+02 -0.1082360E+02  0.0000000E+00  0.4986532E+00  0.2676152E+01  0.4456085E+00 -0.2238037E+00
 -0.9710600E+01 -0.1183240E+02  0.0000000E+00  0.4930570E+00  0.2657509E+01  0.4364057E+00 -0.2294674E+00
 -0.8504050E+01 -0.1272720E+02  0.0000000E+00  0.4841763E+00  0.2638544E+01  0.4241950E+00 -0.2334210E+00
 -0.7215620E+01 -0.1349950E+02  0.0000000E+00  0.4686130E+00  0.2621578E+01  0.4066679E+00 -0.2328507E+00
 -0.5857690E+01 -0.1414170E+02  0.0000000E+00  0.4544103E+00  0.2600781E+01  0.3895619E+00 -0.2339451E+00
 -0.4443360E+01 -0.1464780E+02  0.0000000E+00  0.4317928E+00  0.2583690E+01  0.3663190E+00 -0.2285944E+00
 -0.2986230E+01 -0.1501280E+02  0.0000000E+00  0.3946957E+00  0.2572907E+01  0.3325743E+00 -0.2125536E+00
 -0.1500340E+01 -0.1523320E+02  0.0000000E+00  0.2500747E+00  0.2617080E+01  0.2164567E+00 -0.1252351E+00
  0.1825330E-06 -0.1530690E+02  0.0000000E+00  0.1221021E+00  0.2747322E+01  0.1127341E+00 -0.4690367E-01
  0.1500340E+01 -0.1523320E+02  0.0000000E+00  0.5538876E-01 -0.1463657E+01 -0.5922984E-02  0.5507117E-01
  0.2986230E+01 -0.1501280E+02  0.0000000E+00  0.3159871E+00 -0.9228122E+00 -0.1907236E+00  0.2519372E+00
  0.4443360E+01 -0.1464780E+02  0.0000000E+00  0.4034695E+00 -0.8767477E+00 -0.2580811E+00  0.3101319E+00
  0.5857700E+01 -0.1414170E+02  0.0000000E+00  0.4536792E+00 -0.8394600E+00 -0.3029964E+00  0.3376655E+00
  0.7215620E+01 -0.1349950E+02  0.0000000E+00  0.4887289E+00 -0.8067681E+00 -0.3381201E+00  0.3528892E+00
  0.8504060E+01 -0.1272720E+02  0.0000000E+00  0.5206662E+00 -0.7775845E+00 -0.3710321E+00  0.3652787E+00
  0.9710600E+01 -0.1183240E+02  0.0000000E+00  0.5430586E+00 -0.7507488E+00 -0.3970727E+00  0.3704672E+00
  0.1082360E+02 -0.1082360E+02  0.0000000E+00  0.5606516E+00 -0.7267724E+00 -0.4189878E+00  0.3725312E+00
  0.1183240E+02 -0.9710590E+01  0.0000000E+00  0.5783995E+00 -0.7069216E+00 -0.4397947E+00  0.3756682E+00
  0.1272720E+02 -0.8504060E+01  0.0000000E+00  0.5888110E+00 -0.6886907E+00 -0.4546085E+00  0.3742052E+00
  0.1349950E+02 -0.7215620E+01  0.0000000E+00  0.5948116E+00 -0.6727868E+00 -0.4651950E+00  0.3706675E+00
  0.1414170E+02 -0.5857700E+01  0.0000000E+00  0.6013983E+00 -0.6618251E+00 -0.4744263E+00  0.3695939E+00
  0.1464780E+02 -0.4443350E+01  0.0000000E+00  0.6075078E+00 -0.6552410E+00 -0.4816937E+00  0.3701851E+00
  0.1501280E+02 -0.2986230E+01  0.0000000E+00  0.6118605E+00 -0.6524068E+00 -0.4861996E+00  0.3714609E+00
  0.1523320E+02 -0.1500330E+01  0.0000000E+00  0.6137704E+00 -0.6530393E+00 -0.4874814E+00  0.3729288E+00
  0.1530690E+02  0.0000000E+00 -0.2568960E-01  0.6126770E+00 -0.6576900E+00 -0.4848765E+00  0.3745235E+00
  0.1523320E+02  0.1500340E+01 -0.2568960E-01  0.6105545E+00 -0.6664004E+00 -0.4799275E+00  0.3774207E+00
  0.1501280E+02  0.2986230E+01 -0.2568960E-01  0.6067476E+00 -0.6794595E+00 -0.4719966E+00  0.3812636E+00
  0.1464780E+02  0.4443360E+01 -0.2568960E-01  0.6009440E+00 -0.6965878E+00 -0.4609456E+00  0.3855681E+00
  0.1414170E+02  0.5857700E+01 -0.2568960E-01  0.5936248E+00 -0.7183880E+00 -0.4469209E+00  0.3907072E+00
  0.1349950E+02  0.7215620E+01 -0.2568960E-01  0.5853602E+00 -0.7453573E+00 -0.4301494E+00  0.3970115E+00
  0.1272720E+02  0.8504060E+01 -0.2568960E-01  0.5774159E+00 -0.7793546E+00 -0.4107548E+00  0.4058197E+00
  0.1183240E+02  0.9710600E+01 -0.2568960E-01  0.5667089E+00 -0.8178673E+00 -0.3875036E+00  0.4135213E+00
  0.1082360E+02  0.1082360E+02 -0.2568960E-01  0.5520572E+00 -0.8599241E+00 -0.3602146E+00  0.4183451E+00
  0.9710590E+01  0.1183240E+02 -0.2568960E-01  0.5373747E+00 -0.9089724E+00 -0.3302472E+00  0.4239202E+00
  0.8504060E+01  0.1272720E+02 -0.2568960E-01  0.5202090E+00 -0.9640930E+00 -0.2966035E+00  0.4273684E+00
  0.7215620E+01  0.1349950E+02 -0.2568960E-01  0.4980613E+00 -0.1025479E+01 -0.2583391E+00  0.4258239E+00
  0.5857700E+01  0.1414170E+02 -0.2568960E-01  0.4768407E+00 -0.1101206E+01 -0.2157806E+00  0.4252244E+00
  0.4443360E+01  0.1464780E+02 -0.2568960E-01  0.4495499E+00 -0.1190785E+01 -0.1667519E+00  0.4174793E+00
  0.2986230E+01  0.1501280E+02 -0.2568960E-01  0.4109755E+00 -0.1313376E+01 -0.1046290E+00  0.3974339E+00
  0.1500340E+01  0.1523320E+02 -0.2568960E-01  0.3018294E+00 -0.1538985E+01 -0.9599897E-02  0.3016767E+00
 -0.6690860E-06  0.1530690E+02 -0.2568960E-01  0.2248926E+00 -0.1781945E+01  0.4713381E-01  0.2198979E+00
 -0.1500340E+01  0.1523320E+02 -0.2568960E-01  0.1484362E+00 -0.2232823E+01  0.9124622E-01  0.1170787E+00
 -0.2986230E+01  0.1501280E+02 -0.2568960E-01  0.1483155E+00  0.2603399E+01  0.1273490E+00 -0.7602450E-01
 -0.4443360E+01  0.1464780E+02 -0.2568960E-01  0.2090915E+00  0.2455196E+01  0.1617395E+00 -0.1325126E+00
 -0.5857700E+01  0.1414170E+02 -0.2568960E-01  0.2514593E+00  0.2455266E+01  0.1945237E+00 -0.1593497E+00
 -0.7215620E+01  0.1349950E+02 -0.2568960E-01  0.2845948E+00  0.2482745E+01  0.2250286E+00 -0.1742308E+00
 -0.8504060E+01  0.1272720E+02 -0.2568960E-01  0.3154316E+00  0.2509451E+01  0.2544788E+00 -0.1863803E+00
 -0.9710590E+01  0.1183240E+02 -0.2568960E-01  0.3403974E+00  0.2544490E+01  0.2814979E+00 -0.1913880E+00
 -0.1082360E+02  0.1082360E+02 -0.2568960E-01  0.3624036E+00  0.2579188E+01  0.3065845E+00 -0.1932417E+00
 -0.1183240E+02  0.9710590E+01 -0.2568960E-01  0.3839458E+00  0.2605805E+01  0.3301422E+00 -0.1960114E+00
 -0.1272720E+02  0.8504060E+01 -0.2568960E-01  0.4017073E+00  0.2636971E+01  0.3516375E+00 -0.1942160E+00
 -0.1349950E+02  0.7215620E+01 -0.2568960E-01  0.4166265E+00  0.2667746E+01  0.3707224E+00 -0.1901120E+00
 -0.1414170E+02  0.5857690E+01 -0.2568960E-01  0.4314573E+00  0.2690344E+01  0.3882698E+00 -0.1881540E+00
 -0.1464780E+02  0.4443360E+01 -0.2568960E-01  0.4453294E+00  0.2706812E+01  0.4038971E+00 -0.1875778E+00
 -0.1501280E+02  0.2986230E+01 -0.2568960E-01  0.4579486E+00  0.2719537E+01  0.4177632E+00 -0.1875923E+00
 -0.1523320E+02  0.1500340E+01 -0.2568960E-01  0.4689777E+00  0.2729697E+01  0.4297540E+00 -0.1877541E+00
 -0.1530690E+02 -0.1338170E-05 -0.2568960E-01  0.4784515E+00  0.2736606E+01  0.4397483E+00 -0.1885131E+00
 -0.1523320E+02 -0.1500340E+01 -0.2568960E-01  0.4861444E+00  0.2740264E+01  0.4475168E+00 -0.1899081E+00
 -0.1501280E+02 -0.2986230E+01 -0.2568960E-01  0.4920613E+00  0.2740423E+01  0.4529942E+00 -0.1921474E+00
 -0.1464780E+02 -0.4443360E+01 -0.2568960E-01  0.4962374E+00  0.2737812E+01  0.4563311E+00 -0.1949705E+00
 -0.1414170E+02 -0.5857700E+01 -0.2568960E-01  0.4991651E+00  0.2732004E+01  0.4578765E+00 -0.1987836E+00
 -0.1349950E+02 -0.7215620E+01 -0.2568960E-01  0.5013576E+00  0.2722733E+01  0.4580169E+00 -0.2039116E+00
 -0.1272720E+02 -0.8504060E+01 -0.2568960E-01  0.5040922E+00  0.2707972E+01  0.4574386E+00 -0.2117990E+00
 -0.1183240E+02 -0.9710600E+01 -0.2568960E-01  0.5035628E+00  0.2691856E+01  0.4534892E+00 -0.2189132E+00
 -0.1082360E+02 -0.1082360E+02 -0.2568960E-01  0.4978782E+00  0.2676137E+01  0.4449124E+00 -0.2234628E+00
 -0.9710600E+01 -0.1183240E+02 -0.2568960E-01  0.4922801E+00  0.2657501E+01  0.4357160E+00 -0.2291096E+00
 -0.8504050E+01 -0.1272720E+02 -0.2568960E-01  0.4834135E+00  0.2638535E+01  0.4235246E+00 -0.2330569E+00
 -0.7215620E+01 -0.1349950E+02 -0.2568960E-01  0.4679293E+00  0.2621533E+01  0.4060642E+00 -0.2325289E+00
 -0.5857690E+01 -0.1414170E+02 -0.2568960E-01  0.4537311E+00  0.2600759E+01  0.3889744E+00 -0.2336040E+00
 -0.4443360E+01 -0.1464780E+02 -0.2568960E-01  0.4311828E+00  0.2583655E+01  0.3657936E+00 -0.2282843E+00
 -0.2986230E+01 -0.1501280E+02 -0.2568960E-01  0.3941274E+00  0.2572880E+01  0.3320897E+00 -0.2122566E+00
 -0.1500340E+01 -0.1523320E+02 -0.2568960E-01  0.2497812E+00  0.2616956E+01  0.2161870E+00 -0.1251151E+00
  0.1825330E-06 -0.1530690E+02 -0.2568960E-01  0.1219350E+00  0.2747227E+01  0.1125753E+00 -0.4685017E-01
  0.1500340E+01 -0.1523320E+02 -0.2568960E-01  0.5531418E-01 -0.1463365E+01 -0.5931059E-02  0.5499528E-01
  0.2986230E+01 -0.1501280E+02 -0.2568960E-01  0.3155189E+00 -0.9228185E+00 -0.1904395E+00  0.2515651E+00
  0.4443360E+01 -0.1464780E+02 -0.2568960E-01  0.4029041E+00 -0.8767546E+00 -0.2577173E+00  0.3096991E+00
  0.5857700E+01 -0.1414170E+02 -0.2568960E-01  0.4530000E+00 -0.8394831E+00 -0.3025350E+00  0.3371670E+00
  0.7215620E+01 -0.1349950E+02 -0.2568960E-01  0.4880046E+00 -0.8067868E+00 -0.3376124E+00  0.3523725E+00
  0.8504060E+01 -0.1272720E+02 -0.2568960E-01  0.5198346E+00 -0.7775933E+00 -0.3704363E+00  0.3646985E+00
  0.9710600E+01 -0.1183240E+02 -0.2568960E-01  0.5421948E+00 -0.7507652E+00 -0.3964350E+00  0.3698845E+00
  0.1082360E+02 -0.1082360E+02 -0.2568960E-01  0.5597739E+00 -0.7267957E+00 -0.4183232E+00  0.3719577E+00
  0.1183240E+02 -0.9710590E+01 -0.2568960E-01  0.5774646E+00 -0.7069338E+00 -0.4390793E+00  0.3750664E+00
  0.1272720E+02 -0.8504060E+01 -0.2568960E-01  0.5878660E+00 -0.6887051E+00 -0.4538735E+00  0.3736112E+00
  0.1349950E+02 -0.7215620E+01 -0.2568960E-01  0.5938897E+00 -0.6728120E+00 -0.4644647E+00  0.3701047E+00
  0.1414170E+02 -0.5857700E+01 -0.2568960E-01  0.6004784E+00 -0.6618590E+00 -0.4736880E+00  0.3690446E+00
  0.1464780E+02 -0.4443350E+01 -0.2568960E-01  0.6065732E+00 -0.6552769E+00 -0.4809393E+00  0.3696329E+00
  0.1501280E+02 -0.2986230E+01 -0.2568960E-01  0.6109148E+00 -0.6524413E+00 -0.4854353E+00  0.3709035E+00
  0.1523320E+02 -0.1500330E+01 -0.2568960E-01  0.6128168E+00 -0.6530766E+00 -0.4867102E+00  0.3723676E+00
  0.1530690E+02  0.0000000E+00 -0.1027320E+00  0.6098554E+00 -0.6578180E+00 -0.4825957E+00  0.3728604E+00
  0.1523320E+02  0.1500340E+01 -0.1027320E+00  0.6077417E+00 -0.6665326E+00 -0.4776668E+00  0.3757450E+00
  0.1501280E+02  0.2986230E+01 -0.1027320E+00  0.6039515E+00 -0.6795954E+00 -0.4697698E+00  0.3795704E+00
  0.1464780E+02  0.4443360E+01 -0.1027320E+00  0.5981734E+00 -0.6967312E+00 -0.4587654E+00  0.3838563E+00
  0.1414170E+02  0.5857700E+01 -0.1027320E+00  0.5908862E+00 -0.7185224E+00 -0.4448068E+00  0.3889644E+00
  0.1349950E+02  0.7215620E+01 -0.1027320E+00  0.5826389E+00 -0.7454745E+00 -0.4281034E+00  0.3952160E+00
  0.1272720E+02  0.8504060E+01 -0.1027320E+00  0.5746680E+00 -0.7794152E+00 -0.4087756E+00  0.4039133E+00
  0.1183240E+02  0.9710600E+01 -0.1027320E+00  0.5639945E+00 -0.8179120E+00 -0.3856292E+00  0.4115580E+00
  0.1082360E+02  0.1082360E+02 -0.1027320E+00  0.5494553E+00 -0.8599995E+00 -0.3584855E+00  0.4164004E+00
  0.9710590E+01  0.1183240E+02 -0.1027320E+00  0.5348167E+00 -0.9090315E+00 -0.3286503E+00  0.4219217E+00
  0.8504060E+01  0.1272720E+02 -0.1027320E+00  0.5177270E+00 -0.9641438E+00 -0.2951668E+00  0.4253444E+00
  0.7215620E+01  0.1349950E+02 -0.1027320E+00  0.4957770E+00 -0.1025610E+01 -0.2570986E+00  0.4239047E+00
  0.5857700E+01  0.1414170E+02 -0.1027320E+00  0.4746484E+00 -0.1101291E+01 -0.2147524E+00  0.4232878E+00
  0.4443360E+01  0.1464780E+02 -0.1027320E+00  0.4475517E+00 -0.1190903E+01 -0.1659617E+00  0.4156431E+00
  0.2986230E+01  0.1501280E+02 -0.1027320E+00  0.4091072E+00 -0.1313502E+01 -0.1041033E+00  0.3956403E+00
  0.1500340E+01  0.1523320E+02 -0.1027320E+00  0.3005719E+00 -0.1539220E+01 -0.9489283E-02  0.3004220E+00
 -0.6690860E-06  0.1530690E+02 -0.1027320E+00  0.2239194E+00 -0.1782234E+01  0.4699305E-01  0.2189327E+00
 -0.1500340E+01  0.1523320E+02 -0.1027320E+00  0.1477186E+00 -0.2233568E+01  0.9089191E-01  0.1164450E+00
 -0.2986230E+01  0.1501280E+02 -0.1027320E+00  0.1476978E+00  0.2603034E+01  0.1267910E+00 -0.7575409E-01
 -0.4443360E+01  0.1464780E+02 -0.1027320E+00  0.2082580E+00  0.2454582E+01  0.1610137E+00 -0.1320833E+00
 -0.5857700E+01  0.1414170E+02 -0.1027320E+00  0.2503749E+00  0.2454926E+01  0.1936307E+00 -0.1587285E+00
 -0.7215620E+01  0.1349950E+02 -0.1027320E+00  0.2833458E+00  0.2482479E+01  0.2239948E+00 -0.1735257E+00
 -0.8504060E+01  0.1272720E+02 -0.1027320E+00  0.3139552E+00  0.2509414E+01  0.2532809E+00 -0.1855173E+00
 -0.9710590E+01  0.1183240E+02 -0.1027320E+00  0.3388128E+00  0.2544404E+01  0.2801709E+00 -0.1905213E+00
 -0.1082360E+02  0.1082360E+02 -0.1027320E+00  0.3607344E+00  0.2579024E+01  0.3051409E+00 -0.1924015E+00
 -0.1183240E+02  0.9710590E+01 -0.1027320E+00  0.3821310E+00  0.2605784E+01  0.3285775E+00 -0.1950919E+00
 -0.1272720E+02  0.8504060E+01 -0.1027320E+00  0.3998180E+00  0.2636910E+01  0.3499720E+00 -0.1933237E+00
 -0.1349950E+02  0.7215620E+01 -0.1027320E+00  0.4147183E+00  0.2667535E+01  0.3689846E+00 -0.1893189E+00
 -0.1414170E+02  0.5857690E+01 -0.1027320E+00  0.4294961E+00  0.2690076E+01  0.3864547E+00 -0.1874023E+00
 -0.1464780E+02  0.4443360E+01 -0.1027320E+00  0.4433061E+00  0.2706553E+01  0.4020135E+00 -0.1868300E+00
 -0.1501280E+02  0.2986230E+01 -0.1027320E+00  0.4558644E+00  0.2719302E+01  0.4158179E+00 -0.1868362E+00
 -0.1523320E+02  0.1500340E+01 -0.1027320E+00  0.4668398E+00  0.2729475E+01  0.4277536E+00 -0.1869929E+00
 -0.1530690E+02 -0.1338170E-05 -0.1027320E+00  0.4762721E+00  0.2736393E+01  0.4377055E+00 -0.1877474E+00
 -0.1523320E+02 -0.1500340E+01 -0.1027320E+00  0.4839313E+00  0.2740052E+01  0.4454394E+00 -0.1891381E+00
 -0.1501280E+02 -0.2986230E+01 -0.1027320E+00  0.4898292E+00  0.2740222E+01  0.4509006E+00 -0.1913667E+00
 -0.1464780E+02 -0.4443360E+01 -0.1027320E+00  0.4939964E+00  0.2737616E+01  0.4542322E+00 -0.1941790E+00
 -0.1414170E+02 -0.5857700E+01 -0.1027320E+00  0.4969085E+00  0.2731819E+01  0.4557700E+00 -0.1979690E+00
 -0.1349950E+02 -0.7215620E+01 -0.1027320E+00  0.4990666E+00  0.2722580E+01  0.4558928E+00 -0.2030497E+00
 -0.1272720E+02 -0.8504060E+01 -0.1027320E+00  0.5017154E+00  0.2707902E+01  0.4552671E+00 -0.2108321E+00
 -0.1183240E+02 -0.9710600E+01 -0.1027320E+00  0.5011689E+00  0.2691815E+01  0.4513245E+00 -0.2178910E+00
 -0.1082360E+02 -0.1082360E+02 -0.1027320E+00  0.4955699E+00  0.2676059E+01  0.4428325E+00 -0.2224611E+00
 -0.9710600E+01 -0.1183240E+02 -0.1027320E+00  0.4899699E+00  0.2657456E+01  0.4336613E+00 -0.2280535E+00
 -0.8504050E+01 -0.1272720E+02 -0.1027320E+00  0.4811337E+00  0.2638498E+01  0.4215188E+00 -0.2319732E+00
 -0.7215620E+01 -0.1349950E+02 -0.1027320E+00  0.4658531E+00  0.2621418E+01  0.4042358E+00 -0.2315438E+00
 -0.5857690E+01 -0.1414170E+02 -0.1027320E+00  0.4517082E+00  0.2600677E+01  0.3872212E+00 -0.2325943E+00
 -0.4443360E+01 -0.1464780E+02 -0.1027320E+00  0.4293593E+00  0.2583536E+01  0.3642193E+00 -0.2273625E+00
 -0.2986230E+01 -0.1501280E+02 -0.1027320E+00  0.3924141E+00  0.2572789E+01  0.3306270E+00 -0.2113637E+00
 -0.1500340E+01 -0.1523320E+02 -0.1027320E+00  0.2488667E+00  0.2616634E+01  0.2153554E+00 -0.1247263E+00
  0.1825330E-06 -0.1530690E+02 -0.1027320E+00  0.1214751E+00  0.2746657E+01  0.1121241E+00 -0.4673734E-01
  0.1500340E+01 -0.1523320E+02 -0.1027320E+00  0.5510408E-01 -0.1462430E+01 -0.5959763E-02  0.5478084E-01
  0.2986230E+01 -0.1501280E+02 -0.1027320E+00  0.3141045E+00 -0.9228240E+00 -0.1895843E+00  0.2504384E+00
  0.4443360E+01 -0.1464780E+02 -0.1027320E+00  0.4012142E+00 -0.8767823E+00 -0.2566278E+00  0.3084072E+00
  0.5857700E+01 -0.1414170E+02 -0.1027320E+00  0.4509842E+00 -0.8395366E+00 -0.3011708E+00  0.3356828E+00
  0.7215620E+01 -0.1349950E+02 -0.1027320E+00  0.4858032E+00 -0.8068407E+00 -0.3360705E+00  0.3508010E+00
  0.8504060E+01 -0.1272720E+02 -0.1027320E+00  0.5173502E+00 -0.7776357E+00 -0.3686505E+00  0.3629712E+00
  0.9710600E+01 -0.1183240E+02 -0.1027320E+00  0.5396264E+00 -0.7508153E+00 -0.3945386E+00  0.3681520E+00
  0.1082360E+02 -0.1082360E+02 -0.1027320E+00  0.5571687E+00 -0.7268597E+00 -0.4163526E+00  0.3702532E+00
  0.1183240E+02 -0.9710590E+01 -0.1027320E+00  0.5746864E+00 -0.7069749E+00 -0.4369515E+00  0.3732799E+00
  0.1272720E+02 -0.8504060E+01 -0.1027320E+00  0.5850648E+00 -0.6887532E+00 -0.4516928E+00  0.3718526E+00
