 VARIABLES="X" "Y" "Z" "abs(eta) (m)" "angle(phi) (rad)" "PRE1" "PRE2"
ZONE N=   3200 ,E =    3136 ,F=FEPOINT,ET=QUADRILATERAL
  0.1672760E+02  0.0000000E+00  0.0000000E+00  0.1332365E+00 -0.1387643E+01 -0.2426657E-01  0.1310080E+00
  0.1664710E+02  0.1639590E+01  0.0000000E+00  0.1356005E+00 -0.1391377E+01 -0.2419906E-01  0.1334237E+00
  0.1640620E+02  0.3263390E+01  0.0000000E+00  0.1375716E+00 -0.1397856E+01 -0.2367322E-01  0.1355195E+00
  0.1600730E+02  0.4855770E+01  0.0000000E+00  0.1392788E+00 -0.1407378E+01 -0.2265947E-01  0.1374232E+00
  0.1545430E+02  0.6401380E+01  0.0000000E+00  0.1409362E+00 -0.1419324E+01 -0.2126644E-01  0.1393224E+00
  0.1475240E+02  0.7885340E+01  0.0000000E+00  0.1426015E+00 -0.1433172E+01 -0.1956350E-01  0.1412532E+00
  0.1390850E+02  0.9293360E+01  0.0000000E+00  0.1448595E+00 -0.1450084E+01 -0.1744387E-01  0.1438054E+00
  0.1293060E+02  0.1061190E+02  0.0000000E+00  0.1477383E+00 -0.1470878E+01 -0.1473722E-01  0.1470014E+00
  0.1182820E+02  0.1182820E+02  0.0000000E+00  0.1497544E+00 -0.1494178E+01 -0.1146269E-01  0.1493151E+00
  0.1061190E+02  0.1293060E+02  0.0000000E+00  0.1517531E+00 -0.1519912E+01 -0.7718542E-02  0.1515567E+00
  0.9293360E+01  0.1390850E+02  0.0000000E+00  0.1537426E+00 -0.1548753E+01 -0.3388778E-02  0.1537052E+00
  0.7885330E+01  0.1475240E+02  0.0000000E+00  0.1552186E+00 -0.1581794E+01  0.1707040E-02  0.1552093E+00
  0.6401380E+01  0.1545430E+02  0.0000000E+00  0.1578498E+00 -0.1621727E+01  0.8035940E-02  0.1576452E+00
  0.4855770E+01  0.1600730E+02  0.0000000E+00  0.1601541E+00 -0.1668448E+01  0.1561450E-01  0.1593911E+00
  0.3263390E+01  0.1640620E+02  0.0000000E+00  0.1618424E+00 -0.1727486E+01  0.2525538E-01  0.1598597E+00
  0.1639590E+01  0.1664710E+02  0.0000000E+00  0.1589230E+00 -0.1791806E+01  0.3483836E-01  0.1550574E+00
 -0.7311870E-06  0.1672760E+02  0.0000000E+00  0.1444161E+00 -0.1841251E+01  0.3858355E-01  0.1391665E+00
 -0.1639590E+01  0.1664710E+02  0.0000000E+00  0.1149811E+00 -0.1881683E+01  0.3517301E-01  0.1094692E+00
 -0.3263390E+01  0.1640620E+02  0.0000000E+00  0.7509203E-01 -0.1936950E+01  0.2688498E-01  0.7011427E-01
 -0.4855770E+01  0.1600730E+02  0.0000000E+00  0.4554322E-01 -0.2053319E+01  0.2113275E-01  0.4034343E-01
 -0.6401380E+01  0.1545430E+02  0.0000000E+00  0.2901260E-01 -0.2281673E+01  0.1893067E-01  0.2198546E-01
 -0.7885340E+01  0.1475240E+02  0.0000000E+00  0.2065521E-01 -0.2673079E+01  0.1842942E-01  0.9327080E-02
 -0.9293360E+01  0.1390850E+02  0.0000000E+00  0.1880379E-01  0.3093250E+01  0.1878183E-01 -0.9086684E-03
 -0.1061190E+02  0.1293060E+02  0.0000000E+00  0.2153008E-01  0.2751575E+01  0.1991322E-01 -0.8185842E-02
 -0.1182820E+02  0.1182820E+02  0.0000000E+00  0.2573287E-01  0.2545988E+01  0.2130190E-01 -0.1443639E-01
 -0.1293060E+02  0.1061190E+02  0.0000000E+00  0.3053529E-01  0.2408609E+01  0.2269325E-01 -0.2043086E-01
 -0.1390850E+02  0.9293360E+01  0.0000000E+00  0.3452126E-01  0.2364345E+01  0.2460835E-01 -0.2421046E-01
 -0.1475240E+02  0.7885330E+01  0.0000000E+00  0.3834935E-01  0.2339212E+01  0.2665267E-01 -0.2757368E-01
 -0.1545430E+02  0.6401370E+01  0.0000000E+00  0.4230647E-01  0.2314464E+01  0.2864115E-01 -0.3113715E-01
 -0.1600730E+02  0.4855770E+01  0.0000000E+00  0.4628288E-01  0.2289759E+01  0.3048211E-01 -0.3482737E-01
 -0.1640620E+02  0.3263390E+01  0.0000000E+00  0.5026277E-01  0.2267705E+01  0.3226117E-01 -0.3854300E-01
 -0.1664710E+02  0.1639590E+01  0.0000000E+00  0.5394734E-01  0.2256158E+01  0.3414614E-01 -0.4176549E-01
 -0.1672760E+02 -0.1462370E-05  0.0000000E+00  0.5734066E-01  0.2251332E+01  0.3607927E-01 -0.4456722E-01
 -0.1664710E+02 -0.1639590E+01  0.0000000E+00  0.6041904E-01  0.2251398E+01  0.3801935E-01 -0.4695732E-01
 -0.1640620E+02 -0.3263400E+01  0.0000000E+00  0.6324998E-01  0.2254424E+01  0.3994932E-01 -0.4903685E-01
 -0.1600730E+02 -0.4855770E+01  0.0000000E+00  0.6594995E-01  0.2259048E+01  0.4189058E-01 -0.5093698E-01
 -0.1545430E+02 -0.6401380E+01  0.0000000E+00  0.6861969E-01  0.2262849E+01  0.4378754E-01 -0.5283289E-01
 -0.1475240E+02 -0.7885340E+01  0.0000000E+00  0.7123485E-01  0.2264927E+01  0.4557018E-01 -0.5475183E-01
 -0.1390850E+02 -0.9293360E+01  0.0000000E+00  0.7435501E-01  0.2261981E+01  0.4739763E-01 -0.5728989E-01
 -0.1293060E+02 -0.1061190E+02  0.0000000E+00  0.7808708E-01  0.2255501E+01  0.4938572E-01 -0.6048672E-01
 -0.1182820E+02 -0.1182820E+02  0.0000000E+00  0.8105192E-01  0.2254525E+01  0.5119955E-01 -0.6283326E-01
 -0.1061190E+02 -0.1293060E+02  0.0000000E+00  0.8400530E-01  0.2254356E+01  0.5305411E-01 -0.6513181E-01
 -0.9293350E+01 -0.1390850E+02  0.0000000E+00  0.8696425E-01  0.2255423E+01  0.5499479E-01 -0.6736730E-01
 -0.7885340E+01 -0.1475240E+02  0.0000000E+00  0.8947343E-01  0.2260867E+01  0.5695802E-01 -0.6900202E-01
 -0.6401370E+01 -0.1545430E+02  0.0000000E+00  0.9324327E-01  0.2265589E+01  0.5969676E-01 -0.7162824E-01
 -0.4855760E+01 -0.1600730E+02  0.0000000E+00  0.9672849E-01  0.2276250E+01  0.6271676E-01 -0.7364108E-01
 -0.3263390E+01 -0.1640620E+02  0.0000000E+00  0.9967982E-01  0.2297441E+01  0.6622387E-01 -0.7450144E-01
 -0.1639590E+01 -0.1664710E+02  0.0000000E+00  0.9751155E-01  0.2338860E+01  0.6774553E-01 -0.7013591E-01
  0.1994750E-06 -0.1672760E+02  0.0000000E+00  0.8297029E-01  0.2425826E+01  0.6260856E-01 -0.5444481E-01
  0.1639600E+01 -0.1664710E+02  0.0000000E+00  0.5537671E-01  0.2680543E+01  0.4959461E-01 -0.2463644E-01
  0.3263390E+01 -0.1640620E+02  0.0000000E+00  0.3478027E-01 -0.2693399E+01  0.3134507E-01  0.1507161E-01
  0.4855770E+01 -0.1600730E+02  0.0000000E+00  0.4838372E-01 -0.1937301E+01  0.1733852E-01  0.4517035E-01
  0.6401380E+01 -0.1545430E+02  0.0000000E+00  0.6430560E-01 -0.1702824E+01  0.8465490E-02  0.6374595E-01
  0.7885340E+01 -0.1475240E+02  0.0000000E+00  0.7658643E-01 -0.1598088E+01  0.2089913E-02  0.7655790E-01
  0.9293360E+01 -0.1390850E+02  0.0000000E+00  0.8695999E-01 -0.1534072E+01 -0.3192832E-02  0.8690135E-01
  0.1061190E+02 -0.1293060E+02  0.0000000E+00  0.9452855E-01 -0.1494683E+01 -0.7187985E-02  0.9425487E-01
  0.1182820E+02 -0.1182820E+02  0.0000000E+00  0.1011283E+00 -0.1464938E+01 -0.1068525E-01  0.1005622E+00
  0.1293060E+02 -0.1061190E+02  0.0000000E+00  0.1075200E+00 -0.1440146E+01 -0.1400759E-01  0.1066037E+00
  0.1390850E+02 -0.9293360E+01  0.0000000E+00  0.1115962E+00 -0.1424613E+01 -0.1625552E-01  0.1104059E+00
  0.1475240E+02 -0.7885330E+01  0.0000000E+00  0.1152313E+00 -0.1412603E+01 -0.1815294E-01  0.1137924E+00
  0.1545430E+02 -0.6401380E+01  0.0000000E+00  0.1190709E+00 -0.1402661E+01 -0.1992583E-01  0.1173918E+00
  0.1600730E+02 -0.4855760E+01  0.0000000E+00  0.1230404E+00 -0.1394516E+01 -0.2157744E-01  0.1211336E+00
  0.1640620E+02 -0.3263390E+01  0.0000000E+00  0.1270013E+00 -0.1388861E+01 -0.2297878E-01  0.1249052E+00
  0.1664710E+02 -0.1639590E+01  0.0000000E+00  0.1303745E+00 -0.1386715E+01 -0.2386425E-01  0.1281718E+00
  0.1672760E+02  0.0000000E+00 -0.2568960E-01  0.1331151E+00 -0.1387661E+01 -0.2424197E-01  0.1308891E+00
  0.1664710E+02  0.1639590E+01 -0.2568960E-01  0.1354773E+00 -0.1391398E+01 -0.2417419E-01  0.1333031E+00
  0.1640620E+02  0.3263390E+01 -0.2568960E-01  0.1374480E+00 -0.1397880E+01 -0.2364875E-01  0.1353983E+00
  0.1600730E+02  0.4855770E+01 -0.2568960E-01  0.1391557E+00 -0.1407393E+01 -0.2263741E-01  0.1373021E+00
  0.1545430E+02  0.6401380E+01 -0.2568960E-01  0.1408131E+00 -0.1419341E+01 -0.2124543E-01  0.1392011E+00
  0.1475240E+02  0.7885340E+01 -0.2568960E-01  0.1424778E+00 -0.1433196E+01 -0.1954318E-01  0.1411311E+00
  0.1390850E+02  0.9293360E+01 -0.2568960E-01  0.1447313E+00 -0.1450102E+01 -0.1742585E-01  0.1436784E+00
  0.1293060E+02  0.1061190E+02 -0.2568960E-01  0.1476021E+00 -0.1470888E+01 -0.1472213E-01  0.1468660E+00
  0.1182820E+02  0.1182820E+02 -0.2568960E-01  0.1496179E+00 -0.1494191E+01 -0.1145027E-01  0.1491791E+00
  0.1061190E+02  0.1293060E+02 -0.2568960E-01  0.1516158E+00 -0.1519932E+01 -0.7708581E-02  0.1514197E+00
  0.9293360E+01  0.1390850E+02 -0.2568960E-01  0.1536030E+00 -0.1548776E+01 -0.3382087E-02  0.1535658E+00
  0.7885330E+01  0.1475240E+02 -0.2568960E-01  0.1550846E+00 -0.1581821E+01  0.1709668E-02  0.1550751E+00
  0.6401380E+01  0.1545430E+02 -0.2568960E-01  0.1577082E+00 -0.1621745E+01  0.8031617E-02  0.1575035E+00
  0.4855770E+01  0.1600730E+02 -0.2568960E-01  0.1600118E+00 -0.1668478E+01  0.1560533E-01  0.1592490E+00
  0.3263390E+01  0.1640620E+02 -0.2568960E-01  0.1617019E+00 -0.1727520E+01  0.2523886E-01  0.1597201E+00
  0.1639590E+01  0.1664710E+02 -0.2568960E-01  0.1587897E+00 -0.1791839E+01  0.3481422E-01  0.1549262E+00
 -0.7311870E-06  0.1672760E+02 -0.2568960E-01  0.1442897E+00 -0.1841290E+01  0.3855528E-01  0.1390432E+00
 -0.1639590E+01  0.1664710E+02 -0.2568960E-01  0.1148743E+00 -0.1881739E+01  0.3514648E-01  0.1093656E+00
 -0.3263390E+01  0.1640620E+02 -0.2568960E-01  0.7502233E-01 -0.1937017E+01  0.2686469E-01  0.7004740E-01
 -0.4855770E+01  0.1600730E+02 -0.2568960E-01  0.4550553E-01 -0.2053409E+01  0.2111888E-01  0.4030814E-01
 -0.6401380E+01  0.1545430E+02 -0.2568960E-01  0.2898547E-01 -0.2281846E+01  0.1891677E-01  0.2196163E-01
 -0.7885340E+01  0.1475240E+02 -0.2568960E-01  0.2063584E-01 -0.2673410E+01  0.1841522E-01  0.9312234E-02
 -0.9293360E+01  0.1390850E+02 -0.2568960E-01  0.1879040E-01  0.3093352E+01  0.1876854E-01 -0.9061077E-03
 -0.1061190E+02  0.1293060E+02 -0.2568960E-01  0.2151331E-01  0.2751473E+01  0.1989688E-01 -0.8181483E-02
 -0.1182820E+02  0.1182820E+02 -0.2568960E-01  0.2571240E-01  0.2545882E+01  0.2128344E-01 -0.1442715E-01
 -0.1293060E+02  0.1061190E+02 -0.2568960E-01  0.3050698E-01  0.2408765E+01  0.2267540E-01 -0.2040838E-01
 -0.1390850E+02  0.9293360E+01 -0.2568960E-01  0.3449211E-01  0.2364358E+01  0.2458788E-01 -0.2418970E-01
 -0.1475240E+02  0.7885330E+01 -0.2568960E-01  0.3831964E-01  0.2339111E+01  0.2662924E-01 -0.2755500E-01
 -0.1545430E+02  0.6401370E+01 -0.2568960E-01  0.4227372E-01  0.2314340E+01  0.2861509E-01 -0.3111662E-01
 -0.1600730E+02  0.4855770E+01 -0.2568960E-01  0.4624603E-01  0.2289679E+01  0.3045506E-01 -0.3480209E-01
 -0.1640620E+02  0.3263390E+01 -0.2568960E-01  0.5021999E-01  0.2267684E+01  0.3223289E-01 -0.3851089E-01
 -0.1664710E+02  0.1639590E+01 -0.2568960E-01  0.5389992E-01  0.2256174E+01  0.3411679E-01 -0.4172824E-01
 -0.1672760E+02 -0.1462370E-05 -0.2568960E-01  0.5728973E-01  0.2251359E+01  0.3604843E-01 -0.4452666E-01
 -0.1664710E+02 -0.1639590E+01 -0.2568960E-01  0.6036624E-01  0.2251431E+01  0.3798767E-01 -0.4691503E-01
 -0.1640620E+02 -0.3263400E+01 -0.2568960E-01  0.6319554E-01  0.2254432E+01  0.3991532E-01 -0.4899433E-01
 -0.1600730E+02 -0.4855770E+01 -0.2568960E-01  0.6589428E-01  0.2259037E+01  0.4185470E-01 -0.5089441E-01
 -0.1545430E+02 -0.6401380E+01 -0.2568960E-01  0.6856321E-01  0.2262834E+01  0.4375068E-01 -0.5279007E-01
 -0.1475240E+02 -0.7885340E+01 -0.2568960E-01  0.7117657E-01  0.2264902E+01  0.4553155E-01 -0.5470815E-01
 -0.1390850E+02 -0.9293360E+01 -0.2568960E-01  0.7429150E-01  0.2261972E+01  0.4735665E-01 -0.5724138E-01
 -0.1293060E+02 -0.1061190E+02 -0.2568960E-01  0.7801540E-01  0.2255528E+01  0.4934203E-01 -0.6042985E-01
 -0.1182820E+02 -0.1182820E+02 -0.2568960E-01  0.8097979E-01  0.2254542E+01  0.5115500E-01 -0.6277652E-01
 -0.1061190E+02 -0.1293060E+02 -0.2568960E-01  0.8393161E-01  0.2254376E+01  0.5300891E-01 -0.6507357E-01
 -0.9293350E+01 -0.1390850E+02 -0.2568960E-01  0.8688763E-01  0.2255448E+01  0.5494804E-01 -0.6730656E-01
 -0.7885340E+01 -0.1475240E+02 -0.2568960E-01  0.8940133E-01  0.2260872E+01  0.5691246E-01 -0.6894613E-01
 -0.6401370E+01 -0.1545430E+02 -0.2568960E-01  0.9316253E-01  0.2265614E+01  0.5964688E-01 -0.7156470E-01
 -0.4855760E+01 -0.1600730E+02 -0.2568960E-01  0.9664626E-01  0.2276270E+01  0.6266490E-01 -0.7357724E-01
 -0.3263390E+01 -0.1640620E+02 -0.2568960E-01  0.9959843E-01  0.2297451E+01  0.6617054E-01 -0.7443995E-01
 -0.1639590E+01 -0.1664710E+02 -0.2568960E-01  0.9743650E-01  0.2338850E+01  0.6769272E-01 -0.7008258E-01
  0.1994750E-06 -0.1672760E+02 -0.2568960E-01  0.8290159E-01  0.2425842E+01  0.6255761E-01 -0.5439871E-01
  0.1639600E+01 -0.1664710E+02 -0.2568960E-01  0.5532760E-01  0.2680622E+01  0.4955256E-01 -0.2461072E-01
  0.3263390E+01 -0.1640620E+02 -0.2568960E-01  0.3475278E-01 -0.2693359E+01  0.3131970E-01  0.1506095E-01
  0.4855770E+01 -0.1600730E+02 -0.2568960E-01  0.4833967E-01 -0.1937383E+01  0.1732645E-01  0.4512780E-01
  0.6401380E+01 -0.1545430E+02 -0.2568960E-01  0.6425127E-01 -0.1702848E+01  0.8459834E-02  0.6369189E-01
  0.7885340E+01 -0.1475240E+02 -0.2568960E-01  0.7652321E-01 -0.1598102E+01  0.2089252E-02  0.7649468E-01
  0.9293360E+01 -0.1390850E+02 -0.2568960E-01  0.8687901E-01 -0.1534118E+01 -0.3185893E-02  0.8682058E-01
  0.1061190E+02 -0.1293060E+02 -0.2568960E-01  0.9444556E-01 -0.1494694E+01 -0.7180554E-02  0.9417219E-01
  0.1182820E+02 -0.1182820E+02 -0.2568960E-01  0.1010401E+00 -0.1464946E+01 -0.1067518E-01  0.1004746E+00
  0.1293060E+02 -0.1061190E+02 -0.2568960E-01  0.1074179E+00 -0.1440171E+01 -0.1399161E-01  0.1065028E+00
  0.1390850E+02 -0.9293360E+01 -0.2568960E-01  0.1114957E+00 -0.1424627E+01 -0.1623926E-01  0.1103068E+00
  0.1475240E+02 -0.7885330E+01 -0.2568960E-01  0.1151333E+00 -0.1412605E+01 -0.1813727E-01  0.1136957E+00
  0.1545430E+02 -0.6401380E+01 -0.2568960E-01  0.1189710E+00 -0.1402656E+01 -0.1990971E-01  0.1172932E+00
  0.1600730E+02 -0.4855760E+01 -0.2568960E-01  0.1229349E+00 -0.1394524E+01 -0.2155799E-01  0.1210299E+00
  0.1640620E+02 -0.3263390E+01 -0.2568960E-01  0.1268887E+00 -0.1388873E+01 -0.2295686E-01  0.1247947E+00
  0.1664710E+02 -0.1639590E+01 -0.2568960E-01  0.1302563E+00 -0.1386730E+01 -0.2384058E-01  0.1280559E+00
  0.1672760E+02  0.0000000E+00 -0.1027320E+00  0.1327588E+00 -0.1387716E+01 -0.2417002E-01  0.1305400E+00
  0.1664710E+02  0.1639590E+01 -0.1027320E+00  0.1351164E+00 -0.1391453E+01 -0.2410250E-01  0.1329493E+00
  0.1640620E+02  0.3263390E+01 -0.1027320E+00  0.1370867E+00 -0.1397933E+01 -0.2357943E-01  0.1350436E+00
  0.1600730E+02  0.4855770E+01 -0.1027320E+00  0.1387958E+00 -0.1407440E+01 -0.2257243E-01  0.1369480E+00
  0.1545430E+02  0.6401380E+01 -0.1027320E+00  0.1404527E+00 -0.1419388E+01 -0.2118452E-01  0.1388459E+00
  0.1475240E+02  0.7885340E+01 -0.1027320E+00  0.1421157E+00 -0.1433247E+01 -0.1948640E-01  0.1407734E+00
  0.1390850E+02  0.9293360E+01 -0.1027320E+00  0.1443554E+00 -0.1450156E+01 -0.1737289E-01  0.1433062E+00
  0.1293060E+02  0.1061190E+02 -0.1027320E+00  0.1472016E+00 -0.1470925E+01 -0.1467683E-01  0.1464681E+00
  0.1182820E+02  0.1182820E+02 -0.1027320E+00  0.1492175E+00 -0.1494221E+01 -0.1141528E-01  0.1487802E+00
  0.1061190E+02  0.1293060E+02 -0.1027320E+00  0.1512112E+00 -0.1519975E+01 -0.7681382E-02  0.1510160E+00
  0.9293360E+01  0.1390850E+02 -0.1027320E+00  0.1531908E+00 -0.1548840E+01 -0.3363260E-02  0.1531538E+00
  0.7885330E+01  0.1475240E+02 -0.1027320E+00  0.1546870E+00 -0.1581906E+01  0.1718508E-02  0.1546775E+00
  0.6401380E+01  0.1545430E+02 -0.1027320E+00  0.1572861E+00 -0.1621801E+01  0.8018781E-02  0.1570816E+00
  0.4855770E+01  0.1600730E+02 -0.1027320E+00  0.1595866E+00 -0.1668559E+01  0.1557672E-01  0.1588246E+00
  0.3263390E+01  0.1640620E+02 -0.1027320E+00  0.1612859E+00 -0.1727593E+01  0.2518564E-01  0.1593074E+00
  0.1639590E+01  0.1664710E+02 -0.1027320E+00  0.1583941E+00 -0.1791930E+01  0.3474145E-01  0.1545371E+00
 -0.7311870E-06  0.1672760E+02 -0.1027320E+00  0.1439170E+00 -0.1841395E+01  0.3847029E-01  0.1386800E+00
 -0.1639590E+01  0.1664710E+02 -0.1027320E+00  0.1145607E+00 -0.1881881E+01  0.3506605E-01  0.1090620E+00
 -0.3263390E+01  0.1640620E+02 -0.1027320E+00  0.7480563E-01 -0.1937217E+01  0.2680107E-01  0.6983971E-01
 -0.4855770E+01  0.1600730E+02 -0.1027320E+00  0.4539291E-01 -0.2053625E+01  0.2107531E-01  0.4020382E-01
 -0.6401380E+01  0.1545430E+02 -0.1027320E+00  0.2890312E-01 -0.2282279E+01  0.1887250E-01  0.2189107E-01
 -0.7885340E+01  0.1475240E+02 -0.1027320E+00  0.2057692E-01 -0.2674369E+01  0.1837153E-01  0.9268027E-02
 -0.9293360E+01  0.1390850E+02 -0.1027320E+00  0.1874877E-01  0.3093594E+01  0.1872717E-01 -0.8995658E-03
 -0.1061190E+02  0.1293060E+02 -0.1027320E+00  0.2146332E-01  0.2751067E+01  0.1984733E-01 -0.8170546E-02
 -0.1182820E+02  0.1182820E+02 -0.1027320E+00  0.2565242E-01  0.2545467E+01  0.2122782E-01 -0.1440230E-01
 -0.1293060E+02  0.1061190E+02 -0.1027320E+00  0.3042450E-01  0.2409130E+01  0.2262153E-01 -0.2034494E-01
 -0.1390850E+02  0.9293360E+01 -0.1027320E+00  0.3440720E-01  0.2364288E+01  0.2452566E-01 -0.2413187E-01
 -0.1475240E+02  0.7885330E+01 -0.1027320E+00  0.3823352E-01  0.2338686E+01  0.2655772E-01 -0.2750435E-01
 -0.1545430E+02  0.6401370E+01 -0.1027320E+00  0.4217948E-01  0.2313866E+01  0.2853659E-01 -0.3106078E-01
 -0.1600730E+02  0.4855770E+01 -0.1027320E+00  0.4613943E-01  0.2289339E+01  0.3037305E-01 -0.3473219E-01
 -0.1640620E+02  0.3263390E+01 -0.1027320E+00  0.5009736E-01  0.2267554E+01  0.3214921E-01 -0.3842102E-01
 -0.1664710E+02  0.1639590E+01 -0.1027320E+00  0.5376364E-01  0.2256140E+01  0.3402910E-01 -0.4162390E-01
 -0.1672760E+02 -0.1462370E-05 -0.1027320E+00  0.5714301E-01  0.2251362E+01  0.3595627E-01 -0.4441250E-01
 -0.1664710E+02 -0.1639590E+01 -0.1027320E+00  0.6021298E-01  0.2251422E+01  0.3789078E-01 -0.4679627E-01
 -0.1640620E+02 -0.3263400E+01 -0.1027320E+00  0.6303916E-01  0.2254395E+01  0.3981473E-01 -0.4887456E-01
 -0.1600730E+02 -0.4855770E+01 -0.1027320E+00  0.6573452E-01  0.2258940E+01  0.4174827E-01 -0.5077508E-01
 -0.1545430E+02 -0.6401380E+01 -0.1027320E+00  0.6839877E-01  0.2262693E+01  0.4363832E-01 -0.5266963E-01
 -0.1475240E+02 -0.7885340E+01 -0.1027320E+00  0.7100781E-01  0.2264748E+01  0.4541519E-01 -0.5458543E-01
 -0.1390850E+02 -0.9293360E+01 -0.1027320E+00  0.7410809E-01  0.2261885E+01  0.4723475E-01 -0.5710419E-01
 -0.1293060E+02 -0.1061190E+02 -0.1027320E+00  0.7780614E-01  0.2255543E+01  0.4921059E-01 -0.6026701E-01
 -0.1182820E+02 -0.1182820E+02 -0.1027320E+00  0.8076749E-01  0.2254536E+01  0.5102055E-01 -0.6261222E-01
 -0.1061190E+02 -0.1293060E+02 -0.1027320E+00  0.8371361E-01  0.2254376E+01  0.5287123E-01 -0.6490456E-01
 -0.9293350E+01 -0.1390850E+02 -0.1027320E+00  0.8666098E-01  0.2255479E+01  0.5480675E-01 -0.6712932E-01
 -0.7885340E+01 -0.1475240E+02 -0.1027320E+00  0.8918729E-01  0.2260836E+01  0.5677374E-01 -0.6878311E-01
 -0.6401370E+01 -0.1545430E+02 -0.1027320E+00  0.9292024E-01  0.2265640E+01  0.5949364E-01 -0.7137701E-01
 -0.4855760E+01 -0.1600730E+02 -0.1027320E+00  0.9639934E-01  0.2276320E+01  0.6250850E-01 -0.7338610E-01
 -0.3263390E+01 -0.1640620E+02 -0.1027320E+00  0.9935666E-01  0.2297444E+01  0.6600934E-01 -0.7425977E-01
 -0.1639590E+01 -0.1664710E+02 -0.1027320E+00  0.9721323E-01  0.2338802E+01  0.6753423E-01 -0.6992524E-01
  0.1994750E-06 -0.1672760E+02 -0.1027320E+00  0.8270151E-01  0.2425853E+01  0.6240721E-01 -0.5426674E-01
  0.1639600E+01 -0.1664710E+02 -0.1027320E+00  0.5518426E-01  0.2680802E+01  0.4942862E-01 -0.2453802E-01
  0.3263390E+01 -0.1640620E+02 -0.1027320E+00  0.3466978E-01 -0.2692993E+01  0.3123939E-01  0.1503642E-01
  0.4855770E+01 -0.1600730E+02 -0.1027320E+00  0.4820771E-01 -0.1937698E+01  0.1729333E-01  0.4499916E-01
  0.6401380E+01 -0.1545430E+02 -0.1027320E+00  0.6408772E-01 -0.1702916E+01  0.8442645E-02  0.6352919E-01
  0.7885340E+01 -0.1475240E+02 -0.1027320E+00  0.7633346E-01 -0.1598112E+01  0.2084848E-02  0.7630498E-01
  0.9293360E+01 -0.1390850E+02 -0.1027320E+00  0.8663826E-01 -0.1534229E+01 -0.3167386E-02  0.8658034E-01
  0.1061190E+02 -0.1293060E+02 -0.1027320E+00  0.9419989E-01 -0.1494730E+01 -0.7158519E-02  0.9392750E-01
  0.1182820E+02 -0.1182820E+02 -0.1027320E+00  0.1007798E+00 -0.1464963E+01 -0.1064600E-01  0.1002159E+00
  0.1293060E+02 -0.1061190E+02 -0.1027320E+00  0.1071167E+00 -0.1440242E+01 -0.1394489E-01  0.1062052E+00
  0.1390850E+02 -0.9293360E+01 -0.1027320E+00  0.1112002E+00 -0.1424659E+01 -0.1619278E-01  0.1100149E+00
