 VARIABLES="X" "Y" "Z" "abs(eta) (m)" "angle(phi) (rad)" "PRE1" "PRE2"
ZONE N=   3200 ,E =    3136 ,F=FEPOINT,ET=QUADRILATERAL
  0.1530690E+02  0.0000000E+00  0.0000000E+00  0.1681846E+00 -0.1494965E+01 -0.1274140E-01  0.1677013E+00
  0.1523320E+02  0.1500340E+01  0.0000000E+00  0.1665919E+00 -0.1491004E+01 -0.1327857E-01  0.1660618E+00
  0.1501280E+02  0.2986230E+01  0.0000000E+00  0.1650981E+00 -0.1488314E+01 -0.1360220E-01  0.1645368E+00
  0.1464780E+02  0.4443360E+01  0.0000000E+00  0.1631843E+00 -0.1487125E+01 -0.1363798E-01  0.1626134E+00
  0.1414170E+02  0.5857700E+01  0.0000000E+00  0.1605526E+00 -0.1487834E+01 -0.1330455E-01  0.1600004E+00
  0.1349950E+02  0.7215620E+01  0.0000000E+00  0.1571555E+00 -0.1490662E+01 -0.1258009E-01  0.1566512E+00
  0.1272720E+02  0.8504060E+01  0.0000000E+00  0.1533908E+00 -0.1495313E+01 -0.1156747E-01  0.1529540E+00
  0.1183240E+02  0.9710600E+01  0.0000000E+00  0.1500886E+00 -0.1500489E+01 -0.1054360E-01  0.1497178E+00
  0.1082360E+02  0.1082360E+02  0.0000000E+00  0.1465704E+00 -0.1506735E+01 -0.9383114E-02  0.1462698E+00
  0.9710590E+01  0.1183240E+02  0.0000000E+00  0.1412638E+00 -0.1516158E+01 -0.7714530E-02  0.1410529E+00
  0.8504060E+01  0.1272720E+02  0.0000000E+00  0.1362213E+00 -0.1526260E+01 -0.6064801E-02  0.1360862E+00
  0.7215620E+01  0.1349950E+02  0.0000000E+00  0.1292123E+00 -0.1540688E+01 -0.3889792E-02  0.1291537E+00
  0.5857700E+01  0.1414170E+02  0.0000000E+00  0.1191984E+00 -0.1561941E+01 -0.1055566E-02  0.1191937E+00
  0.4443360E+01  0.1464780E+02  0.0000000E+00  0.1047018E+00 -0.1598047E+01  0.2852895E-02  0.1046630E+00
  0.2986230E+01  0.1501280E+02  0.0000000E+00  0.7677890E-01 -0.1706019E+01  0.1035061E-01  0.7607801E-01
  0.1500340E+01  0.1523320E+02  0.0000000E+00  0.3929077E-01  0.2722852E+01  0.3589612E-01 -0.1597602E-01
 -0.6690860E-06  0.1530690E+02  0.0000000E+00  0.7949807E-01  0.2235483E+01  0.4903541E-01 -0.6257374E-01
 -0.1500340E+01  0.1523320E+02  0.0000000E+00  0.1103030E+00  0.2115293E+01  0.5713559E-01 -0.9435183E-01
 -0.2986230E+01  0.1501280E+02  0.0000000E+00  0.1338023E+00  0.2035501E+01  0.5996460E-01 -0.1196131E+00
 -0.4443360E+01  0.1464780E+02  0.0000000E+00  0.1339442E+00  0.2012970E+01  0.5731545E-01 -0.1210619E+00
 -0.5857700E+01  0.1414170E+02  0.0000000E+00  0.1324690E+00  0.2000273E+01  0.5515947E-01 -0.1204387E+00
 -0.7215620E+01  0.1349950E+02  0.0000000E+00  0.1316248E+00  0.1990463E+01  0.5363128E-01 -0.1202030E+00
 -0.8504060E+01  0.1272720E+02  0.0000000E+00  0.1295504E+00  0.1984441E+01  0.5207275E-01 -0.1186244E+00
 -0.9710590E+01  0.1183240E+02  0.0000000E+00  0.1270748E+00  0.1980066E+01  0.5056805E-01 -0.1165799E+00
 -0.1082360E+02  0.1082360E+02  0.0000000E+00  0.1256867E+00  0.1974819E+01  0.4940998E-01 -0.1155673E+00
 -0.1183240E+02  0.9710590E+01  0.0000000E+00  0.1238366E+00  0.1970644E+01  0.4820685E-01 -0.1140684E+00
 -0.1272720E+02  0.8504060E+01  0.0000000E+00  0.1219990E+00  0.1966653E+01  0.4704264E-01 -0.1125644E+00
 -0.1349950E+02  0.7215620E+01  0.0000000E+00  0.1205150E+00  0.1962055E+01  0.4595869E-01 -0.1114076E+00
 -0.1414170E+02  0.5857690E+01  0.0000000E+00  0.1191172E+00  0.1957026E+01  0.4487126E-01 -0.1103425E+00
 -0.1464780E+02  0.4443360E+01  0.0000000E+00  0.1173864E+00  0.1952040E+01  0.4367661E-01 -0.1089584E+00
 -0.1501280E+02  0.2986230E+01  0.0000000E+00  0.1152380E+00  0.1947318E+01  0.4237166E-01 -0.1071654E+00
 -0.1523320E+02  0.1500340E+01  0.0000000E+00  0.1127244E+00  0.1943004E+01  0.4099483E-01 -0.1050058E+00
 -0.1530690E+02 -0.1338170E-05  0.0000000E+00  0.1101950E+00  0.1937822E+01  0.3954242E-01 -0.1028559E+00
 -0.1523320E+02 -0.1500340E+01  0.0000000E+00  0.1081096E+00  0.1929452E+01  0.3794822E-01 -0.1012306E+00
 -0.1501280E+02 -0.2986230E+01  0.0000000E+00  0.1061013E+00  0.1919421E+01  0.3624477E-01 -0.9971866E-01
 -0.1464780E+02 -0.4443360E+01  0.0000000E+00  0.1037060E+00  0.1909585E+01  0.3446613E-01 -0.9781116E-01
 -0.1414170E+02 -0.5857700E+01  0.0000000E+00  0.1006760E+00  0.1901562E+01  0.3269625E-01 -0.9521876E-01
 -0.1349950E+02 -0.7215620E+01  0.0000000E+00  0.9697783E-01  0.1895917E+01  0.3097692E-01 -0.9189738E-01
 -0.1272720E+02 -0.8504060E+01  0.0000000E+00  0.9296496E-01  0.1891155E+01  0.2927530E-01 -0.8823515E-01
 -0.1183240E+02 -0.9710600E+01  0.0000000E+00  0.8934440E-01  0.1882632E+01  0.2741142E-01 -0.8503550E-01
 -0.1082360E+02 -0.1082360E+02  0.0000000E+00  0.8550820E-01  0.1873204E+01  0.2546597E-01 -0.8162804E-01
 -0.9710600E+01 -0.1183240E+02  0.0000000E+00  0.8004691E-01  0.1871227E+01  0.2368839E-01 -0.7646154E-01
 -0.8504050E+01 -0.1272720E+02  0.0000000E+00  0.7480743E-01  0.1866802E+01  0.2182145E-01 -0.7155401E-01
 -0.7215620E+01 -0.1349950E+02  0.0000000E+00  0.6777400E-01  0.1873282E+01  0.2018948E-01 -0.6469698E-01
 -0.5857690E+01 -0.1414170E+02  0.0000000E+00  0.5797542E-01  0.1901692E+01  0.1883567E-01 -0.5483035E-01
 -0.4443360E+01 -0.1464780E+02  0.0000000E+00  0.4433304E-01  0.1993284E+01  0.1817788E-01 -0.4043492E-01
 -0.2986230E+01 -0.1501280E+02  0.0000000E+00  0.2327998E-01  0.2596080E+01  0.1990115E-01 -0.1207898E-01
 -0.1500340E+01 -0.1523320E+02  0.0000000E+00  0.8625329E-01 -0.1969217E+01  0.3346309E-01  0.7949749E-01
  0.1825330E-06 -0.1530690E+02  0.0000000E+00  0.1315584E+00 -0.1862393E+01  0.3782059E-01  0.1260048E+00
  0.1500340E+01 -0.1523320E+02  0.0000000E+00  0.1623237E+00 -0.1804428E+01  0.3757988E-01  0.1579137E+00
  0.2986230E+01 -0.1501280E+02  0.0000000E+00  0.1861756E+00 -0.1734130E+01  0.3027369E-01  0.1836978E+00
  0.4443360E+01 -0.1464780E+02  0.0000000E+00  0.1868102E+00 -0.1693830E+01  0.2292602E-01  0.1853981E+00
  0.5857700E+01 -0.1414170E+02  0.0000000E+00  0.1857222E+00 -0.1663338E+01  0.1716255E-01  0.1849276E+00
  0.7215620E+01 -0.1349950E+02  0.0000000E+00  0.1852177E+00 -0.1638047E+01  0.1244663E-01  0.1847990E+00
  0.8504060E+01 -0.1272720E+02  0.0000000E+00  0.1834891E+00 -0.1615466E+01  0.8193721E-02  0.1833060E+00
  0.9710600E+01 -0.1183240E+02  0.0000000E+00  0.1813798E+00 -0.1595012E+01  0.4391850E-02  0.1813266E+00
  0.1082360E+02 -0.1082360E+02  0.0000000E+00  0.1803686E+00 -0.1577018E+01  0.1122205E-02  0.1803651E+00
  0.1183240E+02 -0.9710590E+01  0.0000000E+00  0.1789099E+00 -0.1560948E+01 -0.1761843E-02  0.1789012E+00
  0.1272720E+02 -0.8504060E+01  0.0000000E+00  0.1774756E+00 -0.1546625E+01 -0.4289345E-02  0.1774237E+00
  0.1349950E+02 -0.7215620E+01  0.0000000E+00  0.1764046E+00 -0.1534121E+01 -0.6468167E-02  0.1762860E+00
  0.1414170E+02 -0.5857700E+01  0.0000000E+00  0.1754264E+00 -0.1523403E+01 -0.8311014E-02  0.1752294E+00
  0.1464780E+02 -0.4443350E+01  0.0000000E+00  0.1741250E+00 -0.1514122E+01 -0.9863186E-02  0.1738454E+00
  0.1501280E+02 -0.2986230E+01  0.0000000E+00  0.1724031E+00 -0.1506249E+01 -0.1112037E-01  0.1720441E+00
  0.1523320E+02 -0.1500330E+01  0.0000000E+00  0.1702967E+00 -0.1499911E+01 -0.1206149E-01  0.1698691E+00
  0.1530690E+02  0.0000000E+00 -0.2568960E-01  0.1680559E+00 -0.1494967E+01 -0.1273140E-01  0.1675730E+00
  0.1523320E+02  0.1500340E+01 -0.2568960E-01  0.1664635E+00 -0.1491008E+01 -0.1326782E-01  0.1659339E+00
  0.1501280E+02  0.2986230E+01 -0.2568960E-01  0.1649698E+00 -0.1488322E+01 -0.1359043E-01  0.1644090E+00
  0.1464780E+02  0.4443360E+01 -0.2568960E-01  0.1630578E+00 -0.1487131E+01 -0.1362643E-01  0.1624875E+00
  0.1414170E+02  0.5857700E+01 -0.2568960E-01  0.1604317E+00 -0.1487841E+01 -0.1329347E-01  0.1598800E+00
  0.1349950E+02  0.7215620E+01 -0.2568960E-01  0.1570442E+00 -0.1490665E+01 -0.1257067E-01  0.1565403E+00
  0.1272720E+02  0.8504060E+01 -0.2568960E-01  0.1532890E+00 -0.1495308E+01 -0.1156060E-01  0.1528525E+00
  0.1183240E+02  0.9710600E+01 -0.2568960E-01  0.1499873E+00 -0.1500488E+01 -0.1053673E-01  0.1496167E+00
  0.1082360E+02  0.1082360E+02 -0.2568960E-01  0.1464667E+00 -0.1506737E+01 -0.9376210E-02  0.1461663E+00
  0.9710590E+01  0.1183240E+02 -0.2568960E-01  0.1411751E+00 -0.1516153E+01 -0.7710401E-02  0.1409643E+00
  0.8504060E+01  0.1272720E+02 -0.2568960E-01  0.1361304E+00 -0.1526258E+01 -0.6060994E-02  0.1359954E+00
  0.7215620E+01  0.1349950E+02 -0.2568960E-01  0.1291324E+00 -0.1540669E+01 -0.3889882E-02  0.1290738E+00
  0.5857700E+01  0.1414170E+02 -0.2568960E-01  0.1191177E+00 -0.1561945E+01 -0.1054279E-02  0.1191130E+00
  0.4443360E+01  0.1464780E+02 -0.2568960E-01  0.1046410E+00 -0.1598019E+01  0.2848257E-02  0.1046023E+00
  0.2986230E+01  0.1501280E+02 -0.2568960E-01  0.7672474E-01 -0.1706028E+01  0.1034402E-01  0.7602425E-01
  0.1500340E+01  0.1523320E+02 -0.2568960E-01  0.3924843E-01  0.2723377E+01  0.3586581E-01 -0.1593997E-01
 -0.6690860E-06  0.1530690E+02 -0.2568960E-01  0.7944055E-01  0.2235500E+01  0.4900098E-01 -0.6252763E-01
 -0.1500340E+01  0.1523320E+02 -0.2568960E-01  0.1102432E+00  0.2115245E+01  0.5710006E-01 -0.9430344E-01
 -0.2986230E+01  0.1501280E+02 -0.2568960E-01  0.1337326E+00  0.2035475E+01  0.5993039E-01 -0.1195523E+00
 -0.4443360E+01  0.1464780E+02 -0.2568960E-01  0.1338663E+00  0.2012953E+01  0.5727997E-01 -0.1209925E+00
 -0.5857700E+01  0.1414170E+02 -0.2568960E-01  0.1323884E+00  0.2000261E+01  0.5512435E-01 -0.1203660E+00
 -0.7215620E+01  0.1349950E+02 -0.2568960E-01  0.1315404E+00  0.1990455E+01  0.5359602E-01 -0.1201263E+00
 -0.8504060E+01  0.1272720E+02 -0.2568960E-01  0.1294645E+00  0.1984435E+01  0.5203751E-01 -0.1185460E+00
 -0.9710590E+01  0.1183240E+02 -0.2568960E-01  0.1269951E+00  0.1980053E+01  0.5053485E-01 -0.1165074E+00
 -0.1082360E+02  0.1082360E+02 -0.2568960E-01  0.1256003E+00  0.1974821E+01  0.4937631E-01 -0.1154877E+00
 -0.1183240E+02  0.9710590E+01 -0.2568960E-01  0.1237535E+00  0.1970652E+01  0.4817537E-01 -0.1139915E+00
 -0.1272720E+02  0.8504060E+01 -0.2568960E-01  0.1219175E+00  0.1966654E+01  0.4701138E-01 -0.1124891E+00
 -0.1349950E+02  0.7215620E+01 -0.2568960E-01  0.1204302E+00  0.1962061E+01  0.4592704E-01 -0.1113290E+00
 -0.1414170E+02  0.5857690E+01 -0.2568960E-01  0.1190281E+00  0.1957033E+01  0.4483847E-01 -0.1102597E+00
 -0.1464780E+02  0.4443360E+01 -0.2568960E-01  0.1172948E+00  0.1952059E+01  0.4364455E-01 -0.1088725E+00
 -0.1501280E+02  0.2986230E+01 -0.2568960E-01  0.1151467E+00  0.1947349E+01  0.4234136E-01 -0.1070792E+00
 -0.1523320E+02  0.1500340E+01 -0.2568960E-01  0.1126355E+00  0.1943025E+01  0.4096467E-01 -0.1049221E+00
 -0.1530690E+02 -0.1338170E-05 -0.2568960E-01  0.1101095E+00  0.1937843E+01  0.3951390E-01 -0.1027752E+00
 -0.1523320E+02 -0.1500340E+01 -0.2568960E-01  0.1080247E+00  0.1929484E+01  0.3792164E-01 -0.1011498E+00
 -0.1501280E+02 -0.2986230E+01 -0.2568960E-01  0.1060171E+00  0.1919454E+01  0.3621928E-01 -0.9963824E-01
 -0.1464780E+02 -0.4443360E+01 -0.2568960E-01  0.1036238E+00  0.1909616E+01  0.3444185E-01 -0.9773256E-01
 -0.1414170E+02 -0.5857700E+01 -0.2568960E-01  0.1006004E+00  0.1901584E+01  0.3267376E-01 -0.9514653E-01
 -0.1349950E+02 -0.7215620E+01 -0.2568960E-01  0.9691127E-01  0.1895915E+01  0.3095553E-01 -0.9183436E-01
 -0.1272720E+02 -0.8504060E+01 -0.2568960E-01  0.9290680E-01  0.1891132E+01  0.2925495E-01 -0.8818061E-01
 -0.1183240E+02 -0.9710600E+01 -0.2568960E-01  0.8928735E-01  0.1882611E+01  0.2739210E-01 -0.8498178E-01
 -0.1082360E+02 -0.1082360E+02 -0.2568960E-01  0.8544912E-01  0.1873205E+01  0.2544848E-01 -0.8157161E-01
 -0.9710600E+01 -0.1183240E+02 -0.2568960E-01  0.8000184E-01  0.1871176E+01  0.2367116E-01 -0.7641970E-01
 -0.8504050E+01 -0.1272720E+02 -0.2568960E-01  0.7476039E-01  0.1866779E+01  0.2180613E-01 -0.7150950E-01
 -0.7215620E+01 -0.1349950E+02 -0.2568960E-01  0.6773801E-01  0.1873208E+01  0.2017397E-01 -0.6466413E-01
 -0.5857690E+01 -0.1414170E+02 -0.2568960E-01  0.5793903E-01  0.1901664E+01  0.1882227E-01 -0.5479648E-01
 -0.4443360E+01 -0.1464780E+02 -0.2568960E-01  0.4431410E-01  0.1993132E+01  0.1816398E-01 -0.4042040E-01
 -0.2986230E+01 -0.1501280E+02 -0.2568960E-01  0.2326643E-01  0.2596054E+01  0.1988926E-01 -0.1207246E-01
 -0.1500340E+01 -0.1523320E+02 -0.2568960E-01  0.8616696E-01 -0.1969304E+01  0.3343650E-01  0.7941502E-01
  0.1825330E-06 -0.1530690E+02 -0.2568960E-01  0.1314630E+00 -0.1862403E+01  0.3779451E-01  0.1259131E+00
  0.1500340E+01 -0.1523320E+02 -0.2568960E-01  0.1622258E+00 -0.1804416E+01  0.3755533E-01  0.1578189E+00
  0.2986230E+01 -0.1501280E+02 -0.2568960E-01  0.1860671E+00 -0.1734141E+01  0.3025816E-01  0.1835903E+00
  0.4443360E+01 -0.1464780E+02 -0.2568960E-01  0.1866936E+00 -0.1693841E+01  0.2291373E-01  0.1852821E+00
  0.5857700E+01 -0.1414170E+02 -0.2568960E-01  0.1856018E+00 -0.1663350E+01  0.1715370E-01  0.1848074E+00
  0.7215620E+01 -0.1349950E+02 -0.2568960E-01  0.1850936E+00 -0.1638057E+01  0.1244020E-01  0.1846751E+00
  0.8504060E+01 -0.1272720E+02 -0.2568960E-01  0.1833637E+00 -0.1615473E+01  0.8189324E-02  0.1831807E+00
  0.9710600E+01 -0.1183240E+02 -0.2568960E-01  0.1812603E+00 -0.1595023E+01  0.4390899E-02  0.1812071E+00
  0.1082360E+02 -0.1082360E+02 -0.2568960E-01  0.1802419E+00 -0.1577025E+01  0.1122729E-02  0.1802384E+00
  0.1183240E+02 -0.9710590E+01 -0.2568960E-01  0.1787858E+00 -0.1560956E+01 -0.1759327E-02  0.1787771E+00
  0.1272720E+02 -0.8504060E+01 -0.2568960E-01  0.1773525E+00 -0.1546635E+01 -0.4284699E-02  0.1773007E+00
  0.1349950E+02 -0.7215620E+01 -0.2568960E-01  0.1762786E+00 -0.1534127E+01 -0.6462591E-02  0.1761601E+00
  0.1414170E+02 -0.5857700E+01 -0.2568960E-01  0.1752962E+00 -0.1523408E+01 -0.8303897E-02  0.1750994E+00
  0.1464780E+02 -0.4443350E+01 -0.2568960E-01  0.1739917E+00 -0.1514126E+01 -0.9854957E-02  0.1737124E+00
  0.1501280E+02 -0.2986230E+01 -0.2568960E-01  0.1722686E+00 -0.1506253E+01 -0.1111102E-01  0.1719099E+00
  0.1523320E+02 -0.1500330E+01 -0.2568960E-01  0.1701654E+00 -0.1499910E+01 -0.1205234E-01  0.1697380E+00
  0.1530690E+02  0.0000000E+00 -0.1027320E+00  0.1676805E+00 -0.1494961E+01 -0.1270386E-01  0.1671985E+00
  0.1523320E+02  0.1500340E+01 -0.1027320E+00  0.1660884E+00 -0.1491010E+01 -0.1323751E-01  0.1655600E+00
  0.1501280E+02  0.2986230E+01 -0.1027320E+00  0.1645930E+00 -0.1488341E+01 -0.1355619E-01  0.1640338E+00
  0.1464780E+02  0.4443360E+01 -0.1027320E+00  0.1626877E+00 -0.1487155E+01 -0.1359158E-01  0.1621189E+00
  0.1414170E+02  0.5857700E+01 -0.1027320E+00  0.1600788E+00 -0.1487862E+01 -0.1326080E-01  0.1595286E+00
  0.1349950E+02  0.7215620E+01 -0.1027320E+00  0.1567189E+00 -0.1490670E+01 -0.1254380E-01  0.1562161E+00
  0.1272720E+02  0.8504060E+01 -0.1027320E+00  0.1529886E+00 -0.1495292E+01 -0.1154030E-01  0.1525527E+00
  0.1183240E+02  0.9710600E+01 -0.1027320E+00  0.1496890E+00 -0.1500478E+01 -0.1051721E-01  0.1493191E+00
  0.1082360E+02  0.1082360E+02 -0.1027320E+00  0.1461596E+00 -0.1506753E+01 -0.9354101E-02  0.1458600E+00
  0.9710590E+01  0.1183240E+02 -0.1027320E+00  0.1409108E+00 -0.1516116E+01 -0.7701148E-02  0.1407002E+00
  0.8504060E+01  0.1272720E+02 -0.1027320E+00  0.1358587E+00 -0.1526248E+01 -0.6050272E-02  0.1357239E+00
  0.7215620E+01  0.1349950E+02 -0.1027320E+00  0.1288804E+00 -0.1540638E+01 -0.3886168E-02  0.1288218E+00
  0.5857700E+01  0.1414170E+02 -0.1027320E+00  0.1188797E+00 -0.1561931E+01 -0.1053949E-02  0.1188751E+00
  0.4443360E+01  0.1464780E+02 -0.1027320E+00  0.1044573E+00 -0.1597935E+01  0.2834503E-02  0.1044189E+00
  0.2986230E+01  0.1501280E+02 -0.1027320E+00  0.7655151E-01 -0.1706147E+01  0.1032972E-01  0.7585137E-01
  0.1500340E+01  0.1523320E+02 -0.1027320E+00  0.3910987E-01  0.2725167E+01  0.3576757E-01 -0.1581970E-01
 -0.6690860E-06  0.1530690E+02 -0.1027320E+00  0.7928073E-01  0.2235470E+01  0.4890056E-01 -0.6240328E-01
 -0.1500340E+01  0.1523320E+02 -0.1027320E+00  0.1100456E+00  0.2115117E+01  0.5698565E-01 -0.9414176E-01
 -0.2986230E+01  0.1501280E+02 -0.1027320E+00  0.1335130E+00  0.2035393E+01  0.5982217E-01 -0.1193610E+00
 -0.4443360E+01  0.1464780E+02 -0.1027320E+00  0.1336337E+00  0.2012880E+01  0.5717171E-01 -0.1207864E+00
 -0.5857700E+01  0.1414170E+02 -0.1027320E+00  0.1321524E+00  0.2000205E+01  0.5501945E-01 -0.1201546E+00
 -0.7215620E+01  0.1349950E+02 -0.1027320E+00  0.1312806E+00  0.1990435E+01  0.5348779E-01 -0.1198902E+00
 -0.8504060E+01  0.1272720E+02 -0.1027320E+00  0.1292117E+00  0.1984411E+01  0.5193299E-01 -0.1183158E+00
 -0.9710590E+01  0.1183240E+02 -0.1027320E+00  0.1267610E+00  0.1980009E+01  0.5043657E-01 -0.1162949E+00
 -0.1082360E+02  0.1082360E+02 -0.1027320E+00  0.1253473E+00  0.1974816E+01  0.4927617E-01 -0.1152553E+00
 -0.1183240E+02  0.9710590E+01 -0.1027320E+00  0.1235090E+00  0.1970626E+01  0.4807726E-01 -0.1137675E+00
 -0.1272720E+02  0.8504060E+01 -0.1027320E+00  0.1216784E+00  0.1966636E+01  0.4691716E-01 -0.1122694E+00
 -0.1349950E+02  0.7215620E+01 -0.1027320E+00  0.1201842E+00  0.1962053E+01  0.4583234E-01 -0.1111019E+00
 -0.1414170E+02  0.5857690E+01 -0.1027320E+00  0.1187690E+00  0.1957056E+01  0.4474340E-01 -0.1100186E+00
 -0.1464780E+02  0.4443360E+01 -0.1027320E+00  0.1170285E+00  0.1952100E+01  0.4354985E-01 -0.1086235E+00
 -0.1501280E+02  0.2986230E+01 -0.1027320E+00  0.1148808E+00  0.1947396E+01  0.4224862E-01 -0.1068300E+00
 -0.1523320E+02  0.1500340E+01 -0.1027320E+00  0.1123782E+00  0.1943063E+01  0.4087503E-01 -0.1046809E+00
 -0.1530690E+02 -0.1338170E-05 -0.1027320E+00  0.1098611E+00  0.1937867E+01  0.3942722E-01 -0.1025425E+00
 -0.1523320E+02 -0.1500340E+01 -0.1027320E+00  0.1077790E+00  0.1929527E+01  0.3783973E-01 -0.1009181E+00
 -0.1501280E+02 -0.2986230E+01 -0.1027320E+00  0.1057716E+00  0.1919526E+01  0.3614265E-01 -0.9940492E-01
 -0.1464780E+02 -0.4443360E+01 -0.1027320E+00  0.1033863E+00  0.1909706E+01  0.3437172E-01 -0.9750545E-01
 -0.1414170E+02 -0.5857700E+01 -0.1027320E+00  0.1003797E+00  0.1901632E+01  0.3260672E-01 -0.9493620E-01
 -0.1349950E+02 -0.7215620E+01 -0.1027320E+00  0.9671663E-01  0.1895888E+01  0.3089088E-01 -0.9165075E-01
 -0.1272720E+02 -0.8504060E+01 -0.1027320E+00  0.9273610E-01  0.1891012E+01  0.2919064E-01 -0.8802211E-01
 -0.1183240E+02 -0.9710600E+01 -0.1027320E+00  0.8911985E-01  0.1882519E+01  0.2733298E-01 -0.8482486E-01
 -0.1082360E+02 -0.1082360E+02 -0.1027320E+00  0.8527622E-01  0.1873206E+01  0.2539705E-01 -0.8140653E-01
 -0.9710600E+01 -0.1183240E+02 -0.1027320E+00  0.7986900E-01  0.1870998E+01  0.2361827E-01 -0.7629701E-01
 -0.8504050E+01 -0.1272720E+02 -0.1027320E+00  0.7462332E-01  0.1866697E+01  0.2176027E-01 -0.7138018E-01
 -0.7215620E+01 -0.1349950E+02 -0.1027320E+00  0.6761804E-01  0.1873066E+01  0.2012905E-01 -0.6455246E-01
 -0.5857690E+01 -0.1414170E+02 -0.1027320E+00  0.5783528E-01  0.1901594E+01  0.1878474E-01 -0.5469966E-01
 -0.4443360E+01 -0.1464780E+02 -0.1027320E+00  0.4425875E-01  0.1992701E+01  0.1812389E-01 -0.4037774E-01
 -0.2986230E+01 -0.1501280E+02 -0.1027320E+00  0.2322109E-01  0.2596541E+01  0.1985637E-01 -0.1203926E-01
 -0.1500340E+01 -0.1523320E+02 -0.1027320E+00  0.8589616E-01 -0.1969581E+01  0.3335336E-01  0.7915621E-01
  0.1825330E-06 -0.1530690E+02 -0.1027320E+00  0.1311889E+00 -0.1862424E+01  0.3771837E-01  0.1256498E+00
  0.1500340E+01 -0.1523320E+02 -0.1027320E+00  0.1619150E+00 -0.1804369E+01  0.3747594E-01  0.1575183E+00
  0.2986230E+01 -0.1501280E+02 -0.1027320E+00  0.1857311E+00 -0.1734177E+01  0.3021009E-01  0.1832577E+00
  0.4443360E+01 -0.1464780E+02 -0.1027320E+00  0.1863447E+00 -0.1693854E+01  0.2287330E-01  0.1849355E+00
  0.5857700E+01 -0.1414170E+02 -0.1027320E+00  0.1852492E+00 -0.1663381E+01  0.1712683E-01  0.1844558E+00
  0.7215620E+01 -0.1349950E+02 -0.1027320E+00  0.1847158E+00 -0.1638072E+01  0.1241747E-01  0.1842980E+00
  0.8504060E+01 -0.1272720E+02 -0.1027320E+00  0.1829917E+00 -0.1615491E+01  0.8175964E-02  0.1828090E+00
  0.9710600E+01 -0.1183240E+02 -0.1027320E+00  0.1809064E+00 -0.1595047E+01  0.4386730E-02  0.1808532E+00
  0.1082360E+02 -0.1082360E+02 -0.1027320E+00  0.1798676E+00 -0.1577045E+01  0.1123916E-02  0.1798641E+00
  0.1183240E+02 -0.9710590E+01 -0.1027320E+00  0.1784204E+00 -0.1560979E+01 -0.1751596E-02  0.1784118E+00
  0.1272720E+02 -0.8504060E+01 -0.1027320E+00  0.1769905E+00 -0.1546659E+01 -0.4271628E-02  0.1769390E+00
