 VARIABLES="X" "Y" "Z" "abs(eta) (m)" "angle(phi) (rad)" "PRE1" "PRE2"
ZONE N=   3200 ,E =    3136 ,F=FEPOINT,ET=QUADRILATERAL
  0.1672760E+02  0.0000000E+00  0.0000000E+00  0.3000792E+00  0.2199853E+01  0.1765612E+00 -0.2426389E+00
  0.1664710E+02  0.1639590E+01  0.0000000E+00  0.2966336E+00  0.2190824E+01  0.1723612E+00 -0.2414189E+00
  0.1640620E+02  0.3263390E+01  0.0000000E+00  0.2927098E+00  0.2179176E+01  0.1672949E+00 -0.2401904E+00
  0.1600730E+02  0.4855770E+01  0.0000000E+00  0.2868941E+00  0.2167634E+01  0.1612429E+00 -0.2372951E+00
  0.1545430E+02  0.6401380E+01  0.0000000E+00  0.2789023E+00  0.2157106E+01  0.1543141E+00 -0.2323223E+00
  0.1475240E+02  0.7885340E+01  0.0000000E+00  0.2688926E+00  0.2147569E+01  0.1466330E+00 -0.2253930E+00
  0.1390850E+02  0.9293360E+01  0.0000000E+00  0.2583557E+00  0.2135392E+01  0.1382395E+00 -0.2182602E+00
  0.1293060E+02  0.1061190E+02  0.0000000E+00  0.2478766E+00  0.2118399E+01  0.1290551E+00 -0.2116309E+00
  0.1182820E+02  0.1182820E+02  0.0000000E+00  0.2361874E+00  0.2099515E+01  0.1191395E+00 -0.2039369E+00
  0.1061190E+02  0.1293060E+02  0.0000000E+00  0.2218159E+00  0.2081749E+01  0.1084699E+00 -0.1934853E+00
  0.9293360E+01  0.1390850E+02  0.0000000E+00  0.2057115E+00  0.2062714E+01  0.9716110E-01 -0.1813200E+00
  0.7885330E+01  0.1475240E+02  0.0000000E+00  0.1855240E+00  0.2048313E+01  0.8526216E-01 -0.1647711E+00
  0.6401380E+01  0.1545430E+02  0.0000000E+00  0.1569005E+00  0.2053066E+01  0.7276902E-01 -0.1390052E+00
  0.4855770E+01  0.1600730E+02  0.0000000E+00  0.1189129E+00  0.2098657E+01  0.5989486E-01 -0.1027272E+00
  0.3263390E+01  0.1640620E+02  0.0000000E+00  0.6249209E-01  0.2422203E+01  0.4700706E-01 -0.4117764E-01
  0.1639590E+01  0.1664710E+02  0.0000000E+00  0.5882436E-01 -0.2190817E+01  0.3417999E-01  0.4787518E-01
 -0.7311870E-06  0.1672760E+02  0.0000000E+00  0.1338895E+00 -0.1720910E+01  0.2002325E-01  0.1323838E+00
 -0.1639590E+01  0.1664710E+02  0.0000000E+00  0.2062969E+00 -0.1587055E+01  0.3353933E-02  0.2062696E+00
 -0.3263390E+01  0.1640620E+02  0.0000000E+00  0.2687077E+00 -0.1510257E+01 -0.1625751E-01  0.2682154E+00
 -0.4855770E+01  0.1600730E+02  0.0000000E+00  0.3084478E+00 -0.1453919E+01 -0.3596846E-01  0.3063434E+00
 -0.6401380E+01  0.1545430E+02  0.0000000E+00  0.3314228E+00 -0.1407024E+01 -0.5403567E-01  0.3269881E+00
 -0.7885340E+01  0.1475240E+02  0.0000000E+00  0.3492509E+00 -0.1367771E+01 -0.7042059E-01  0.3420777E+00
 -0.9293360E+01  0.1390850E+02  0.0000000E+00  0.3601947E+00 -0.1331426E+01 -0.8539881E-01  0.3499246E+00
 -0.1061190E+02  0.1293060E+02  0.0000000E+00  0.3684031E+00 -0.1298856E+01 -0.9895356E-01  0.3548648E+00
 -0.1182820E+02  0.1182820E+02  0.0000000E+00  0.3757012E+00 -0.1270111E+01 -0.1112731E+00  0.3588449E+00
 -0.1293060E+02  0.1061190E+02  0.0000000E+00  0.3817060E+00 -0.1244779E+01 -0.1222500E+00  0.3615998E+00
 -0.1390850E+02  0.9293360E+01  0.0000000E+00  0.3868683E+00 -0.1222777E+01 -0.1319361E+00  0.3636756E+00
 -0.1475240E+02  0.7885330E+01  0.0000000E+00  0.3920299E+00 -0.1204546E+01 -0.1403926E+00  0.3660292E+00
 -0.1545430E+02  0.6401370E+01  0.0000000E+00  0.3968557E+00 -0.1189666E+01 -0.1476182E+00  0.3683793E+00
 -0.1600730E+02  0.4855770E+01  0.0000000E+00  0.3999141E+00 -0.1176659E+01 -0.1535716E+00  0.3692520E+00
 -0.1640620E+02  0.3263390E+01  0.0000000E+00  0.4008418E+00 -0.1165134E+01 -0.1581830E+00  0.3683100E+00
 -0.1664710E+02  0.1639590E+01  0.0000000E+00  0.3998564E+00 -0.1155353E+01 -0.1613802E+00  0.3658436E+00
 -0.1672760E+02 -0.1462370E-05  0.0000000E+00  0.3986706E+00 -0.1148522E+01 -0.1633894E+00  0.3636512E+00
 -0.1664710E+02 -0.1639590E+01  0.0000000E+00  0.3977828E+00 -0.1145055E+01 -0.1642829E+00  0.3622738E+00
 -0.1640620E+02 -0.3263400E+01  0.0000000E+00  0.3963624E+00 -0.1144518E+01 -0.1638900E+00  0.3608923E+00
 -0.1600730E+02 -0.4855770E+01  0.0000000E+00  0.3927519E+00 -0.1145933E+01 -0.1618910E+00  0.3578343E+00
 -0.1545430E+02 -0.6401380E+01  0.0000000E+00  0.3865199E+00 -0.1149249E+01 -0.1581535E+00  0.3526827E+00
 -0.1475240E+02 -0.7885340E+01  0.0000000E+00  0.3778009E+00 -0.1154649E+01 -0.1527221E+00  0.3455568E+00
 -0.1390850E+02 -0.9293360E+01  0.0000000E+00  0.3684808E+00 -0.1162746E+01 -0.1462207E+00  0.3382272E+00
 -0.1293060E+02 -0.1061190E+02  0.0000000E+00  0.3593954E+00 -0.1173640E+01 -0.1390133E+00  0.3314218E+00
 -0.1182820E+02 -0.1182820E+02  0.0000000E+00  0.3489524E+00 -0.1186900E+01 -0.1306953E+00  0.3235529E+00
 -0.1061190E+02 -0.1293060E+02  0.0000000E+00  0.3354648E+00 -0.1202112E+01 -0.1208977E+00  0.3129223E+00
 -0.9293350E+01 -0.1390850E+02  0.0000000E+00  0.3200584E+00 -0.1220039E+01 -0.1099751E+00  0.3005709E+00
 -0.7885340E+01 -0.1475240E+02  0.0000000E+00  0.2999515E+00 -0.1241006E+01 -0.9713779E-01  0.2837871E+00
 -0.6401370E+01 -0.1545430E+02  0.0000000E+00  0.2701072E+00 -0.1266964E+01 -0.8081045E-01  0.2577354E+00
 -0.4855760E+01 -0.1600730E+02  0.0000000E+00  0.2292889E+00 -0.1301752E+01 -0.6094734E-01  0.2210404E+00
 -0.3263390E+01 -0.1640620E+02  0.0000000E+00  0.1620833E+00 -0.1371821E+01 -0.3203819E-01  0.1588853E+00
 -0.1639590E+01 -0.1664710E+02  0.0000000E+00  0.6960727E-01 -0.1677216E+01  0.7393603E-02  0.6921348E-01
  0.1994750E-06 -0.1672760E+02  0.0000000E+00  0.4902704E-01  0.2822591E+01  0.4655357E-01 -0.1537579E-01
  0.1639600E+01 -0.1664710E+02  0.0000000E+00  0.1210917E+00  0.2319618E+01  0.8243633E-01 -0.8869860E-01
  0.3263390E+01 -0.1640620E+02  0.0000000E+00  0.1874792E+00  0.2217911E+01  0.1130287E+00 -0.1495760E+00
  0.4855770E+01 -0.1600730E+02  0.0000000E+00  0.2291598E+00  0.2188968E+01  0.1328087E+00 -0.1867513E+00
  0.6401380E+01 -0.1545430E+02  0.0000000E+00  0.2525934E+00  0.2182986E+01  0.1451557E+00 -0.2067203E+00
  0.7885340E+01 -0.1475240E+02  0.0000000E+00  0.2702829E+00  0.2182102E+01  0.1551253E+00 -0.2213345E+00
  0.9293360E+01 -0.1390850E+02  0.0000000E+00  0.2804525E+00  0.2187273E+01  0.1621475E+00 -0.2288270E+00
  0.1061190E+02 -0.1293060E+02  0.0000000E+00  0.2875313E+00  0.2193860E+01  0.1677819E+00 -0.2335027E+00
  0.1182820E+02 -0.1182820E+02  0.0000000E+00  0.2933982E+00  0.2199532E+01  0.1725542E+00 -0.2372922E+00
  0.1293060E+02 -0.1061190E+02  0.0000000E+00  0.2976888E+00  0.2204144E+01  0.1761860E+00 -0.2399523E+00
  0.1390850E+02 -0.9293360E+01  0.0000000E+00  0.3010143E+00  0.2207709E+01  0.1790182E+00 -0.2419961E+00
  0.1475240E+02 -0.7885330E+01  0.0000000E+00  0.3043186E+00  0.2209300E+01  0.1813723E+00 -0.2443643E+00
  0.1545430E+02 -0.6401380E+01  0.0000000E+00  0.3072238E+00  0.2208855E+01  0.1829939E+00 -0.2467787E+00
  0.1600730E+02 -0.4855760E+01  0.0000000E+00  0.3081953E+00  0.2207767E+01  0.1833032E+00 -0.2477585E+00
  0.1640620E+02 -0.3263390E+01  0.0000000E+00  0.3069133E+00  0.2206511E+01  0.1822306E+00 -0.2469571E+00
  0.1664710E+02 -0.1639590E+01  0.0000000E+00  0.3036910E+00  0.2204851E+01  0.1799114E+00 -0.2446633E+00
  0.1672760E+02  0.0000000E+00 -0.2568960E-01  0.2997263E+00  0.2199877E+01  0.1763594E+00 -0.2423493E+00
  0.1664710E+02  0.1639590E+01 -0.2568960E-01  0.2962843E+00  0.2190868E+01  0.1721689E+00 -0.2411271E+00
  0.1640620E+02  0.3263390E+01 -0.2568960E-01  0.2923609E+00  0.2179224E+01  0.1671070E+00 -0.2398961E+00
  0.1600730E+02  0.4855770E+01 -0.2568960E-01  0.2865545E+00  0.2167674E+01  0.1610616E+00 -0.2370078E+00
  0.1545430E+02  0.6401380E+01 -0.2568960E-01  0.2785831E+00  0.2157125E+01  0.1541418E+00 -0.2320536E+00
  0.1475240E+02  0.7885340E+01 -0.2568960E-01  0.2686020E+00  0.2147551E+01  0.1464705E+00 -0.2251520E+00
  0.1390850E+02  0.9293360E+01 -0.2568960E-01  0.2580884E+00  0.2135350E+01  0.1380874E+00 -0.2180401E+00
  0.1293060E+02  0.1061190E+02 -0.2568960E-01  0.2476196E+00  0.2118357E+01  0.1289123E+00 -0.2114169E+00
  0.1182820E+02  0.1182820E+02 -0.2568960E-01  0.2359385E+00  0.2099492E+01  0.1190092E+00 -0.2037248E+00
  0.1061190E+02  0.1293060E+02 -0.2568960E-01  0.2215911E+00  0.2081706E+01  0.1083517E+00 -0.1932939E+00
  0.9293360E+01  0.1390850E+02 -0.2568960E-01  0.2055004E+00  0.2062681E+01  0.9705539E-01 -0.1811371E+00
  0.7885330E+01  0.1475240E+02 -0.2568960E-01  0.1853282E+00  0.2048310E+01  0.8517170E-01 -0.1645974E+00
  0.6401380E+01  0.1545430E+02 -0.2568960E-01  0.1567473E+00  0.2053002E+01  0.7268915E-01 -0.1388740E+00
  0.4855770E+01  0.1600730E+02 -0.2568960E-01  0.1187950E+00  0.2098617E+01  0.5983135E-01 -0.1026278E+00
  0.3263390E+01  0.1640620E+02 -0.2568960E-01  0.6243267E-01  0.2422107E+01  0.4695842E-01 -0.4114297E-01
  0.1639590E+01  0.1664710E+02 -0.2568960E-01  0.5877835E-01 -0.2190677E+01  0.3414658E-01  0.4784250E-01
 -0.7311870E-06  0.1672760E+02 -0.2568960E-01  0.1337596E+00 -0.1720957E+01  0.2001000E-01  0.1322544E+00
 -0.1639590E+01  0.1664710E+02 -0.2568960E-01  0.2060701E+00 -0.1587081E+01  0.3355716E-02  0.2060427E+00
 -0.3263390E+01  0.1640620E+02 -0.2568960E-01  0.2684307E+00 -0.1510278E+01 -0.1623496E-01  0.2679393E+00
 -0.4855770E+01  0.1600730E+02 -0.2568960E-01  0.3081229E+00 -0.1453939E+01 -0.3592445E-01  0.3060215E+00
 -0.6401380E+01  0.1545430E+02 -0.2568960E-01  0.3310807E+00 -0.1407043E+01 -0.5397351E-01  0.3266516E+00
 -0.7885340E+01  0.1475240E+02 -0.2568960E-01  0.3488677E+00 -0.1367783E+01 -0.7033936E-01  0.3417031E+00
 -0.9293360E+01  0.1390850E+02 -0.2568960E-01  0.3598078E+00 -0.1331446E+01 -0.8530009E-01  0.3495505E+00
 -0.1061190E+02  0.1293060E+02 -0.2568960E-01  0.3680119E+00 -0.1298875E+01 -0.9884152E-01  0.3544900E+00
 -0.1182820E+02  0.1182820E+02 -0.2568960E-01  0.3752975E+00 -0.1270128E+01 -0.1111475E+00  0.3584612E+00
 -0.1293060E+02  0.1061190E+02 -0.2568960E-01  0.3812980E+00 -0.1244796E+01 -0.1221132E+00  0.3612154E+00
 -0.1390850E+02  0.9293360E+01 -0.2568960E-01  0.3864529E+00 -0.1222796E+01 -0.1317876E+00  0.3632876E+00
 -0.1475240E+02  0.7885330E+01 -0.2568960E-01  0.3915966E+00 -0.1204561E+01 -0.1402320E+00  0.3656268E+00
 -0.1545430E+02  0.6401370E+01 -0.2568960E-01  0.3964024E+00 -0.1189662E+01 -0.1474511E+00  0.3679579E+00
 -0.1600730E+02  0.4855770E+01 -0.2568960E-01  0.3994444E+00 -0.1176648E+01 -0.1533953E+00  0.3688166E+00
 -0.1640620E+02  0.3263390E+01 -0.2568960E-01  0.4003681E+00 -0.1165118E+01 -0.1580020E+00  0.3678723E+00
 -0.1664710E+02  0.1639590E+01 -0.2568960E-01  0.3993871E+00 -0.1155342E+01 -0.1611949E+00  0.3654124E+00
 -0.1672760E+02 -0.1462370E-05 -0.2568960E-01  0.3982039E+00 -0.1148515E+01 -0.1632008E+00  0.3632243E+00
 -0.1664710E+02 -0.1639590E+01 -0.2568960E-01  0.3973133E+00 -0.1145048E+01 -0.1640912E+00  0.3618452E+00
 -0.1640620E+02 -0.3263400E+01 -0.2568960E-01  0.3958903E+00 -0.1144508E+01 -0.1636982E+00  0.3604609E+00
 -0.1600730E+02 -0.4855770E+01 -0.2568960E-01  0.3922878E+00 -0.1145926E+01 -0.1617019E+00  0.3574104E+00
 -0.1545430E+02 -0.6401380E+01 -0.2568960E-01  0.3860765E+00 -0.1149249E+01 -0.1579718E+00  0.3522782E+00
 -0.1475240E+02 -0.7885340E+01 -0.2568960E-01  0.3773881E+00 -0.1154658E+01 -0.1525522E+00  0.3451805E+00
 -0.1390850E+02 -0.9293360E+01 -0.2568960E-01  0.3680907E+00 -0.1162755E+01 -0.1460628E+00  0.3378704E+00
 -0.1293060E+02 -0.1061190E+02 -0.2568960E-01  0.3590149E+00 -0.1173649E+01 -0.1388631E+00  0.3310721E+00
 -0.1182820E+02 -0.1182820E+02 -0.2568960E-01  0.3485768E+00 -0.1186914E+01 -0.1305499E+00  0.3232066E+00
 -0.1061190E+02 -0.1293060E+02 -0.2568960E-01  0.3351134E+00 -0.1202119E+01 -0.1207687E+00  0.3125954E+00
 -0.9293350E+01 -0.1390850E+02 -0.2568960E-01  0.3197183E+00 -0.1220052E+01 -0.1098541E+00  0.3002530E+00
 -0.7885340E+01 -0.1475240E+02 -0.2568960E-01  0.2996247E+00 -0.1241015E+01 -0.9702942E-01  0.2834788E+00
 -0.6401370E+01 -0.1545430E+02 -0.2568960E-01  0.2698285E+00 -0.1266968E+01 -0.8072597E-01  0.2574698E+00
 -0.4855760E+01 -0.1600730E+02 -0.2568960E-01  0.2290467E+00 -0.1301757E+01 -0.6088189E-01  0.2208071E+00
 -0.3263390E+01 -0.1640620E+02 -0.2568960E-01  0.1619110E+00 -0.1371818E+01 -0.3200461E-01  0.1587164E+00
 -0.1639590E+01 -0.1664710E+02 -0.2568960E-01  0.6950693E-01 -0.1677382E+01  0.7394434E-02  0.6911249E-01
  0.1994750E-06 -0.1672760E+02 -0.2568960E-01  0.4898754E-01  0.2822219E+01  0.4651034E-01 -0.1538073E-01
  0.1639600E+01 -0.1664710E+02 -0.2568960E-01  0.1209630E+00  0.2319597E+01  0.8234690E-01 -0.8860611E-01
  0.3263390E+01 -0.1640620E+02 -0.2568960E-01  0.1872987E+00  0.2217882E+01  0.1129156E+00 -0.1494352E+00
  0.4855770E+01 -0.1600730E+02 -0.2568960E-01  0.2289291E+00  0.2188955E+01  0.1326726E+00 -0.1865650E+00
  0.6401380E+01 -0.1545430E+02 -0.2568960E-01  0.2523441E+00  0.2182958E+01  0.1450065E+00 -0.2065204E+00
  0.7885340E+01 -0.1475240E+02 -0.2568960E-01  0.2699910E+00  0.2182092E+01  0.1549556E+00 -0.2210970E+00
  0.9293360E+01 -0.1390850E+02 -0.2568960E-01  0.2801579E+00  0.2187252E+01  0.1619724E+00 -0.2285900E+00
  0.1061190E+02 -0.1293060E+02 -0.2568960E-01  0.2872367E+00  0.2193849E+01  0.1676075E+00 -0.2332652E+00
  0.1182820E+02 -0.1182820E+02 -0.2568960E-01  0.2930894E+00  0.2199512E+01  0.1723679E+00 -0.2370458E+00
  0.1293060E+02 -0.1061190E+02 -0.2568960E-01  0.2973785E+00  0.2204126E+01  0.1759982E+00 -0.2397052E+00
  0.1390850E+02 -0.9293360E+01 -0.2568960E-01  0.3006996E+00  0.2207696E+01  0.1788278E+00 -0.2417454E+00
  0.1475240E+02 -0.7885330E+01 -0.2568960E-01  0.3039886E+00  0.2209296E+01  0.1811746E+00 -0.2441001E+00
  0.1545430E+02 -0.6401380E+01 -0.2568960E-01  0.3068729E+00  0.2208865E+01  0.1827874E+00 -0.2464949E+00
  0.1600730E+02 -0.4855760E+01 -0.2568960E-01  0.3078308E+00  0.2207795E+01  0.1830932E+00 -0.2474604E+00
  0.1640620E+02 -0.3263390E+01 -0.2568960E-01  0.3065457E+00  0.2206542E+01  0.1820200E+00 -0.2466557E+00
  0.1664710E+02 -0.1639590E+01 -0.2568960E-01  0.3033310E+00  0.2204874E+01  0.1797038E+00 -0.2443691E+00
  0.1672760E+02  0.0000000E+00 -0.1027320E+00  0.2986656E+00  0.2199978E+01  0.1757596E+00 -0.2414740E+00
  0.1664710E+02  0.1639590E+01 -0.1027320E+00  0.2952252E+00  0.2190981E+01  0.1715805E+00 -0.2402458E+00
  0.1640620E+02  0.3263390E+01 -0.1027320E+00  0.2913081E+00  0.2179376E+01  0.1665417E+00 -0.2390069E+00
  0.1600730E+02  0.4855770E+01 -0.1027320E+00  0.2855322E+00  0.2167812E+01  0.1605195E+00 -0.2361400E+00
  0.1545430E+02  0.6401380E+01 -0.1027320E+00  0.2776215E+00  0.2157202E+01  0.1536275E+00 -0.2312408E+00
  0.1475240E+02  0.7885340E+01 -0.1027320E+00  0.2677242E+00  0.2147519E+01  0.1459847E+00 -0.2244209E+00
  0.1390850E+02  0.9293360E+01 -0.1027320E+00  0.2572783E+00  0.2135252E+01  0.1376327E+00 -0.2173692E+00
  0.1293060E+02  0.1061190E+02 -0.1027320E+00  0.2468425E+00  0.2118265E+01  0.1284884E+00 -0.2107651E+00
  0.1182820E+02  0.1182820E+02 -0.1027320E+00  0.2351843E+00  0.2099439E+01  0.1186180E+00 -0.2030798E+00
  0.1061190E+02  0.1293060E+02 -0.1027320E+00  0.2209099E+00  0.2081601E+01  0.1079983E+00 -0.1927110E+00
  0.9293360E+01  0.1390850E+02 -0.1027320E+00  0.2048580E+00  0.2062602E+01  0.9673776E-01 -0.1805785E+00
  0.7885330E+01  0.1475240E+02 -0.1027320E+00  0.1847320E+00  0.2048295E+01  0.8489523E-01 -0.1640692E+00
  0.6401380E+01  0.1545430E+02 -0.1027320E+00  0.1562869E+00  0.2052869E+01  0.7245717E-01 -0.1384758E+00
  0.4855770E+01  0.1600730E+02 -0.1027320E+00  0.1184381E+00  0.2098557E+01  0.5964545E-01 -0.1023230E+00
  0.3263390E+01  0.1640620E+02 -0.1027320E+00  0.6226486E-01  0.2421670E+01  0.4681424E-01 -0.4105289E-01
  0.1639590E+01  0.1664710E+02 -0.1027320E+00  0.5864155E-01 -0.2190307E+01  0.3404944E-01  0.4774376E-01
 -0.7311870E-06  0.1672760E+02 -0.1027320E+00  0.1333631E+00 -0.1721058E+01  0.1996407E-01  0.1318604E+00
 -0.1639590E+01  0.1664710E+02 -0.1027320E+00  0.2053863E+00 -0.1587169E+01  0.3362610E-02  0.2053587E+00
 -0.3263390E+01  0.1640620E+02 -0.1027320E+00  0.2676073E+00 -0.1510357E+01 -0.1616408E-01  0.2671187E+00
 -0.4855770E+01  0.1600730E+02 -0.1027320E+00  0.3071412E+00 -0.1453992E+01 -0.3579396E-01  0.3050484E+00
 -0.6401380E+01  0.1545430E+02 -0.1027320E+00  0.3300500E+00 -0.1407111E+01 -0.5378336E-01  0.3256384E+00
 -0.7885340E+01  0.1475240E+02 -0.1027320E+00  0.3477156E+00 -0.1367809E+01 -0.7009830E-01  0.3405766E+00
 -0.9293360E+01  0.1390850E+02 -0.1027320E+00  0.3586436E+00 -0.1331485E+01 -0.8501064E-01  0.3484228E+00
 -0.1061190E+02  0.1293060E+02 -0.1027320E+00  0.3668327E+00 -0.1298923E+01 -0.9850781E-01  0.3533588E+00
 -0.1182820E+02  0.1182820E+02 -0.1027320E+00  0.3740782E+00 -0.1270175E+01 -0.1107696E+00  0.3573018E+00
 -0.1293060E+02  0.1061190E+02 -0.1027320E+00  0.3800662E+00 -0.1244850E+01 -0.1216994E+00  0.3600550E+00
 -0.1390850E+02  0.9293360E+01 -0.1027320E+00  0.3851999E+00 -0.1222845E+01 -0.1313425E+00  0.3621162E+00
 -0.1475240E+02  0.7885330E+01 -0.1027320E+00  0.3902943E+00 -0.1204589E+01 -0.1397555E+00  0.3644147E+00
 -0.1545430E+02  0.6401370E+01 -0.1027320E+00  0.3950357E+00 -0.1189652E+01 -0.1469466E+00  0.3666878E+00
 -0.1600730E+02  0.4855770E+01 -0.1027320E+00  0.3980333E+00 -0.1176604E+01 -0.1528698E+00  0.3675069E+00
 -0.1640620E+02  0.3263390E+01 -0.1027320E+00  0.3989421E+00 -0.1165071E+01 -0.1574566E+00  0.3665545E+00
 -0.1664710E+02  0.1639590E+01 -0.1027320E+00  0.3979746E+00 -0.1155303E+01 -0.1606390E+00  0.3641139E+00
 -0.1672760E+02 -0.1462370E-05 -0.1027320E+00  0.3968005E+00 -0.1148484E+01 -0.1626371E+00  0.3619390E+00
 -0.1664710E+02 -0.1639590E+01 -0.1027320E+00  0.3959011E+00 -0.1145022E+01 -0.1635177E+00  0.3605547E+00
 -0.1640620E+02 -0.3263400E+01 -0.1027320E+00  0.3944686E+00 -0.1144485E+01 -0.1631186E+00  0.3591626E+00
 -0.1600730E+02 -0.4855770E+01 -0.1027320E+00  0.3908893E+00 -0.1145912E+01 -0.1611306E+00  0.3561340E+00
 -0.1545430E+02 -0.6401380E+01 -0.1027320E+00  0.3847367E+00 -0.1149256E+01 -0.1574215E+00  0.3510567E+00
 -0.1475240E+02 -0.7885340E+01 -0.1027320E+00  0.3761385E+00 -0.1154678E+01 -0.1520400E+00  0.3440407E+00
 -0.1390850E+02 -0.9293360E+01 -0.1027320E+00  0.3669114E+00 -0.1162789E+01 -0.1455833E+00  0.3367929E+00
 -0.1293060E+02 -0.1061190E+02 -0.1027320E+00  0.3578632E+00 -0.1173675E+01 -0.1384092E+00  0.3300136E+00
 -0.1182820E+02 -0.1182820E+02 -0.1027320E+00  0.3474406E+00 -0.1186931E+01 -0.1301189E+00  0.3221553E+00
 -0.1061190E+02 -0.1293060E+02 -0.1027320E+00  0.3340500E+00 -0.1202154E+01 -0.1203745E+00  0.3116077E+00
 -0.9293350E+01 -0.1390850E+02 -0.1027320E+00  0.3186895E+00 -0.1220080E+01 -0.1094923E+00  0.2992899E+00
 -0.7885340E+01 -0.1475240E+02 -0.1027320E+00  0.2986365E+00 -0.1241043E+01 -0.9670143E-01  0.2825466E+00
 -0.6401370E+01 -0.1545430E+02 -0.1027320E+00  0.2689871E+00 -0.1266975E+01 -0.8047242E-01  0.2566676E+00
 -0.4855760E+01 -0.1600730E+02 -0.1027320E+00  0.2283114E+00 -0.1301779E+01 -0.6068153E-01  0.2200996E+00
 -0.3263390E+01 -0.1640620E+02 -0.1027320E+00  0.1614104E+00 -0.1371808E+01 -0.3190729E-01  0.1582253E+00
 -0.1639590E+01 -0.1664710E+02 -0.1027320E+00  0.6920789E-01 -0.1677945E+01  0.7401336E-02  0.6881099E-01
  0.1994750E-06 -0.1672760E+02 -0.1027320E+00  0.4886475E-01  0.2821253E+01  0.4637893E-01 -0.1538699E-01
  0.1639600E+01 -0.1664710E+02 -0.1027320E+00  0.1205745E+00  0.2319571E+01  0.8208010E-01 -0.8832367E-01
  0.3263390E+01 -0.1640620E+02 -0.1027320E+00  0.1867622E+00  0.2217780E+01  0.1125770E+00 -0.1490186E+00
  0.4855770E+01 -0.1600730E+02 -0.1027320E+00  0.2282249E+00  0.2188897E+01  0.1322537E+00 -0.1859988E+00
  0.6401380E+01 -0.1545430E+02 -0.1027320E+00  0.2515908E+00  0.2182878E+01  0.1445572E+00 -0.2059154E+00
  0.7885340E+01 -0.1475240E+02 -0.1027320E+00  0.2691138E+00  0.2182081E+01  0.1544498E+00 -0.2203804E+00
  0.9293360E+01 -0.1390850E+02 -0.1027320E+00  0.2792740E+00  0.2187222E+01  0.1614546E+00 -0.2278736E+00
  0.1061190E+02 -0.1293060E+02 -0.1027320E+00  0.2863381E+00  0.2193790E+01  0.1670695E+00 -0.2325453E+00
  0.1182820E+02 -0.1182820E+02 -0.1027320E+00  0.2921554E+00  0.2199466E+01  0.1718077E+00 -0.2362982E+00
  0.1293060E+02 -0.1061190E+02 -0.1027320E+00  0.2964402E+00  0.2204078E+01  0.1754313E+00 -0.2389575E+00
  0.1390850E+02 -0.9293360E+01 -0.1027320E+00  0.2997462E+00  0.2207654E+01  0.1782508E+00 -0.2409863E+00
