 VARIABLES="X" "Y" "Z" "abs(eta) (m)" "angle(phi) (rad)" "PRE1" "PRE2"
ZONE N=   3200 ,E =    3136 ,F=FEPOINT,ET=QUADRILATERAL
  0.1530690E+02  0.0000000E+00  0.0000000E+00  0.2229242E+00  0.2001634E+01  0.9310032E-01 -0.2025526E+00
  0.1523320E+02  0.1500340E+01  0.0000000E+00  0.2201757E+00  0.1995917E+01  0.9080725E-01 -0.2005777E+00
  0.1501280E+02  0.2986230E+01  0.0000000E+00  0.2167145E+00  0.1989656E+01  0.8814190E-01 -0.1979803E+00
  0.1464780E+02  0.4443360E+01  0.0000000E+00  0.2127755E+00  0.1982259E+01  0.8509971E-01 -0.1950165E+00
  0.1414170E+02  0.5857700E+01  0.0000000E+00  0.2098276E+00  0.1970343E+01  0.8162303E-01 -0.1933010E+00
  0.1349950E+02  0.7215620E+01  0.0000000E+00  0.2080092E+00  0.1953660E+01  0.7770769E-01 -0.1929491E+00
  0.1272720E+02  0.8504060E+01  0.0000000E+00  0.2048448E+00  0.1937098E+01  0.7336824E-01 -0.1912551E+00
  0.1183240E+02  0.9710600E+01  0.0000000E+00  0.1983361E+00  0.1925030E+01  0.6879720E-01 -0.1860219E+00
  0.1082360E+02  0.1082360E+02  0.0000000E+00  0.1914847E+00  0.1911432E+01  0.6397238E-01 -0.1804825E+00
  0.9710590E+01  0.1183240E+02  0.0000000E+00  0.1849900E+00  0.1894533E+01  0.5884742E-01 -0.1753804E+00
  0.8504060E+01  0.1272720E+02  0.0000000E+00  0.1745184E+00  0.1882782E+01  0.5356831E-01 -0.1660937E+00
  0.7215620E+01  0.1349950E+02  0.0000000E+00  0.1640281E+00  0.1867132E+01  0.4789911E-01 -0.1568786E+00
  0.5857700E+01  0.1414170E+02  0.0000000E+00  0.1497712E+00  0.1856461E+01  0.4220480E-01 -0.1437017E+00
  0.4443360E+01  0.1464780E+02  0.0000000E+00  0.1282293E+00  0.1859630E+01  0.3652415E-01 -0.1229176E+00
  0.2986230E+01  0.1501280E+02  0.0000000E+00  0.8942847E-01  0.1931746E+01  0.3158285E-01 -0.8366585E-01
  0.1500340E+01  0.1523320E+02  0.0000000E+00  0.6125273E-01 -0.2143285E+01  0.3318217E-01  0.5148632E-01
 -0.6690860E-06  0.1530690E+02  0.0000000E+00  0.1319584E+00 -0.1806728E+01  0.3084511E-01  0.1283027E+00
 -0.1500340E+01  0.1523320E+02  0.0000000E+00  0.1939315E+00 -0.1706044E+01  0.2614893E-01  0.1921605E+00
 -0.2986230E+01  0.1501280E+02  0.0000000E+00  0.2691390E+00 -0.1633351E+01  0.1682483E-01  0.2686126E+00
 -0.4443360E+01  0.1464780E+02  0.0000000E+00  0.2841848E+00 -0.1589643E+01  0.5355772E-02  0.2841343E+00
 -0.5857700E+01  0.1414170E+02  0.0000000E+00  0.2925538E+00 -0.1555460E+01 -0.4486587E-02  0.2925194E+00
 -0.7215620E+01  0.1349950E+02  0.0000000E+00  0.2966274E+00 -0.1525764E+01 -0.1335337E-01  0.2963267E+00
 -0.8504060E+01  0.1272720E+02  0.0000000E+00  0.2993188E+00 -0.1499198E+01 -0.2141253E-01  0.2985519E+00
 -0.9710590E+01  0.1183240E+02  0.0000000E+00  0.3030860E+00 -0.1476240E+01 -0.2861606E-01  0.3017321E+00
 -0.1082360E+02  0.1082360E+02  0.0000000E+00  0.3039064E+00 -0.1454845E+01 -0.3515936E-01  0.3018658E+00
 -0.1183240E+02  0.9710590E+01  0.0000000E+00  0.3052452E+00 -0.1436032E+01 -0.4101169E-01  0.3024776E+00
 -0.1272720E+02  0.8504060E+01  0.0000000E+00  0.3067685E+00 -0.1419587E+01 -0.4620958E-01  0.3032682E+00
 -0.1349950E+02  0.7215620E+01  0.0000000E+00  0.3056334E+00 -0.1403821E+01 -0.5079650E-01  0.3013826E+00
 -0.1414170E+02  0.5857690E+01  0.0000000E+00  0.3035246E+00 -0.1389670E+01 -0.5467626E-01  0.2985593E+00
 -0.1464780E+02  0.4443360E+01  0.0000000E+00  0.3026618E+00 -0.1378368E+01 -0.5788204E-01  0.2970755E+00
 -0.1501280E+02  0.2986230E+01  0.0000000E+00  0.3026332E+00 -0.1369780E+01 -0.6042534E-01  0.2965394E+00
 -0.1523320E+02  0.1500340E+01  0.0000000E+00  0.3021974E+00 -0.1363205E+01 -0.6228383E-01  0.2957093E+00
 -0.1530690E+02 -0.1338170E-05  0.0000000E+00  0.3010986E+00 -0.1358403E+01 -0.6347152E-01  0.2943327E+00
 -0.1523320E+02 -0.1500340E+01  0.0000000E+00  0.2992225E+00 -0.1355298E+01 -0.6398404E-01  0.2923015E+00
 -0.1501280E+02 -0.2986230E+01  0.0000000E+00  0.2965835E+00 -0.1353898E+01 -0.6382519E-01  0.2896345E+00
 -0.1464780E+02 -0.4443360E+01  0.0000000E+00  0.2934513E+00 -0.1354178E+01 -0.6307103E-01  0.2865933E+00
 -0.1414170E+02 -0.5857700E+01  0.0000000E+00  0.2914927E+00 -0.1356184E+01 -0.6207886E-01  0.2848056E+00
 -0.1349950E+02 -0.7215620E+01  0.0000000E+00  0.2908427E+00 -0.1359716E+01 -0.6093621E-01  0.2843876E+00
 -0.1272720E+02 -0.8504060E+01  0.0000000E+00  0.2887458E+00 -0.1364510E+01 -0.5914273E-01  0.2826239E+00
 -0.1183240E+02 -0.9710600E+01  0.0000000E+00  0.2829319E+00 -0.1371029E+01 -0.5614535E-01  0.2773052E+00
 -0.1082360E+02 -0.1082360E+02  0.0000000E+00  0.2767327E+00 -0.1379164E+01 -0.5270705E-01  0.2716669E+00
 -0.9710600E+01 -0.1183240E+02  0.0000000E+00  0.2709373E+00 -0.1388705E+01 -0.4906327E-01  0.2664579E+00
 -0.8504050E+01 -0.1272720E+02  0.0000000E+00  0.2608159E+00 -0.1400439E+01 -0.4421738E-01  0.2570404E+00
 -0.7215620E+01 -0.1349950E+02  0.0000000E+00  0.2507950E+00 -0.1412927E+01 -0.3942859E-01  0.2476762E+00
 -0.5857690E+01 -0.1414170E+02  0.0000000E+00  0.2366975E+00 -0.1428261E+01 -0.3362374E-01  0.2342971E+00
 -0.4443360E+01 -0.1464780E+02  0.0000000E+00  0.2148392E+00 -0.1448948E+01 -0.2611300E-01  0.2132464E+00
 -0.2986230E+01 -0.1501280E+02  0.0000000E+00  0.1741312E+00 -0.1486995E+01 -0.1457534E-01  0.1735201E+00
 -0.1500340E+01 -0.1523320E+02  0.0000000E+00  0.4344953E-01 -0.2104994E+01  0.2212235E-01  0.3739603E-01
  0.1825330E-06 -0.1530690E+02  0.0000000E+00  0.6066319E-01  0.2430820E+01  0.4597407E-01 -0.3957788E-01
  0.1500340E+01 -0.1523320E+02  0.0000000E+00  0.1229290E+00  0.2146166E+01  0.6689116E-01 -0.1031364E+00
  0.2986230E+01 -0.1501280E+02  0.0000000E+00  0.1999665E+00  0.2038867E+01  0.9021799E-01 -0.1784581E+00
  0.4443360E+01 -0.1464780E+02  0.0000000E+00  0.2149658E+00  0.2022239E+01  0.9378188E-01 -0.1934303E+00
  0.5857700E+01 -0.1414170E+02  0.0000000E+00  0.2231365E+00  0.2014896E+01  0.9586958E-01 -0.2014918E+00
  0.7215620E+01 -0.1349950E+02  0.0000000E+00  0.2269003E+00  0.2013199E+01  0.9713872E-01 -0.2050557E+00
  0.8504060E+01 -0.1272720E+02  0.0000000E+00  0.2291439E+00  0.2012995E+01  0.9805691E-01 -0.2071033E+00
  0.9710600E+01 -0.1183240E+02  0.0000000E+00  0.2324440E+00  0.2012397E+01  0.9934355E-01 -0.2101454E+00
  0.1082360E+02 -0.1082360E+02  0.0000000E+00  0.2326728E+00  0.2014110E+01  0.9980165E-01 -0.2101815E+00
  0.1183240E+02 -0.9710590E+01  0.0000000E+00  0.2333644E+00  0.2015006E+01  0.1002871E+00 -0.2107165E+00
  0.1272720E+02 -0.8504060E+01  0.0000000E+00  0.2341501E+00  0.2014785E+01  0.1005779E+00 -0.2114482E+00
  0.1349950E+02 -0.7215620E+01  0.0000000E+00  0.2321354E+00  0.2015812E+01  0.9992789E-01 -0.2095263E+00
  0.1414170E+02 -0.5857700E+01  0.0000000E+00  0.2290895E+00  0.2016731E+01  0.9880655E-01 -0.2066863E+00
  0.1464780E+02 -0.4443350E+01  0.0000000E+00  0.2272723E+00  0.2015122E+01  0.9769285E-01 -0.2052043E+00
  0.1501280E+02 -0.2986230E+01  0.0000000E+00  0.2262957E+00  0.2011390E+01  0.9650975E-01 -0.2046842E+00
  0.1523320E+02 -0.1500330E+01  0.0000000E+00  0.2249318E+00  0.2006839E+01  0.9500132E-01 -0.2038849E+00
  0.1530690E+02  0.0000000E+00 -0.2568960E-01  0.2227387E+00  0.2001617E+01  0.9301934E-01 -0.2023856E+00
  0.1523320E+02  0.1500340E+01 -0.2568960E-01  0.2199929E+00  0.1995893E+01  0.9072704E-01 -0.2004133E+00
  0.1501280E+02  0.2986230E+01 -0.2568960E-01  0.2165369E+00  0.1989623E+01  0.8806317E-01 -0.1978209E+00
  0.1464780E+02  0.4443360E+01 -0.2568960E-01  0.2126029E+00  0.1982220E+01  0.8502302E-01 -0.1948617E+00
  0.1414170E+02  0.5857700E+01 -0.2568960E-01  0.2096519E+00  0.1970317E+01  0.8154967E-01 -0.1931414E+00
  0.1349950E+02  0.7215620E+01 -0.2568960E-01  0.2078186E+00  0.1953667E+01  0.7763796E-01 -0.1927717E+00
  0.1272720E+02  0.8504060E+01 -0.2568960E-01  0.2046491E+00  0.1937120E+01  0.7330239E-01 -0.1910707E+00
  0.1183240E+02  0.9710600E+01 -0.2568960E-01  0.1981621E+00  0.1925027E+01  0.6873632E-01 -0.1858589E+00
  0.1082360E+02  0.1082360E+02 -0.2568960E-01  0.1913225E+00  0.1911420E+01  0.6391611E-01 -0.1803304E+00
  0.9710590E+01  0.1183240E+02 -0.2568960E-01  0.1848229E+00  0.1894543E+01  0.5879607E-01 -0.1752214E+00
  0.8504060E+01  0.1272720E+02 -0.2568960E-01  0.1743824E+00  0.1882754E+01  0.5352186E-01 -0.1659658E+00
  0.7215620E+01  0.1349950E+02 -0.2568960E-01  0.1638974E+00  0.1867113E+01  0.4785794E-01 -0.1567546E+00
  0.5857700E+01  0.1414170E+02 -0.2568960E-01  0.1496475E+00  0.1856457E+01  0.4216937E-01 -0.1435831E+00
  0.4443360E+01  0.1464780E+02 -0.2568960E-01  0.1281389E+00  0.1859585E+01  0.3649289E-01 -0.1228326E+00
  0.2986230E+01  0.1501280E+02 -0.2568960E-01  0.8936574E-01  0.1931714E+01  0.3155803E-01 -0.8360817E-01
  0.1500340E+01  0.1523320E+02 -0.2568960E-01  0.6121822E-01 -0.2143231E+01  0.3316069E-01  0.5145910E-01
 -0.6690860E-06  0.1530690E+02 -0.2568960E-01  0.1318524E+00 -0.1806754E+01  0.3082372E-01  0.1281989E+00
 -0.1500340E+01  0.1523320E+02 -0.2568960E-01  0.1937960E+00 -0.1706082E+01  0.2613797E-01  0.1920252E+00
 -0.2986230E+01  0.1501280E+02 -0.2568960E-01  0.2689266E+00 -0.1633374E+01  0.1681776E-01  0.2684002E+00
 -0.4443360E+01  0.1464780E+02 -0.2568960E-01  0.2839576E+00 -0.1589665E+01  0.5357657E-02  0.2839071E+00
 -0.5857700E+01  0.1414170E+02 -0.2568960E-01  0.2922977E+00 -0.1555478E+01 -0.4477408E-02  0.2922634E+00
 -0.7215620E+01  0.1349950E+02 -0.2568960E-01  0.2963766E+00 -0.1525778E+01 -0.1333787E-01  0.2960763E+00
 -0.8504060E+01  0.1272720E+02 -0.2568960E-01  0.2990675E+00 -0.1499215E+01 -0.2138924E-01  0.2983016E+00
 -0.9710590E+01  0.1183240E+02 -0.2568960E-01  0.3028119E+00 -0.1476252E+01 -0.2858639E-01  0.3014596E+00
 -0.1082360E+02  0.1082360E+02 -0.2568960E-01  0.3036401E+00 -0.1454860E+01 -0.3512411E-01  0.3016017E+00
 -0.1183240E+02  0.9710590E+01 -0.2568960E-01  0.3049726E+00 -0.1436042E+01 -0.4097225E-01  0.3022078E+00
 -0.1272720E+02  0.8504060E+01 -0.2568960E-01  0.3064814E+00 -0.1419591E+01 -0.4616512E-01  0.3029846E+00
 -0.1349950E+02  0.7215620E+01 -0.2568960E-01  0.3053544E+00 -0.1403829E+01 -0.5074754E-01  0.3011079E+00
 -0.1414170E+02  0.5857690E+01 -0.2568960E-01  0.3032627E+00 -0.1389685E+01 -0.5462447E-01  0.2983026E+00
 -0.1464780E+02  0.4443360E+01 -0.2568960E-01  0.3024061E+00 -0.1378383E+01 -0.5782855E-01  0.2968254E+00
 -0.1501280E+02  0.2986230E+01 -0.2568960E-01  0.3023765E+00 -0.1369797E+01 -0.6036904E-01  0.2962889E+00
 -0.1523320E+02  0.1500340E+01 -0.2568960E-01  0.3019395E+00 -0.1363222E+01 -0.6222587E-01  0.2954579E+00
 -0.1530690E+02 -0.1338170E-05 -0.2568960E-01  0.3008416E+00 -0.1358416E+01 -0.6341361E-01  0.2940823E+00
 -0.1523320E+02 -0.1500340E+01 -0.2568960E-01  0.2989679E+00 -0.1355310E+01 -0.6392609E-01  0.2920536E+00
 -0.1501280E+02 -0.2986230E+01 -0.2568960E-01  0.2963348E+00 -0.1353909E+01 -0.6376852E-01  0.2893923E+00
 -0.1464780E+02 -0.4443360E+01 -0.2568960E-01  0.2932078E+00 -0.1354182E+01 -0.6301738E-01  0.2863557E+00
 -0.1414170E+02 -0.5857700E+01 -0.2568960E-01  0.2912437E+00 -0.1356192E+01 -0.6202346E-01  0.2845628E+00
 -0.1349950E+02 -0.7215620E+01 -0.2568960E-01  0.2905759E+00 -0.1359726E+01 -0.6087753E-01  0.2841272E+00
 -0.1272720E+02 -0.8504060E+01 -0.2568960E-01  0.2884723E+00 -0.1364520E+01 -0.5908380E-01  0.2823568E+00
 -0.1183240E+02 -0.9710600E+01 -0.2568960E-01  0.2826795E+00 -0.1371040E+01 -0.5609223E-01  0.2770585E+00
 -0.1082360E+02 -0.1082360E+02 -0.2568960E-01  0.2764934E+00 -0.1379172E+01 -0.5265915E-01  0.2714325E+00
 -0.9710600E+01 -0.1183240E+02 -0.2568960E-01  0.2706915E+00 -0.1388710E+01 -0.4901740E-01  0.2662164E+00
 -0.8504050E+01 -0.1272720E+02 -0.2568960E-01  0.2606019E+00 -0.1400441E+01 -0.4418055E-01  0.2568296E+00
 -0.7215620E+01 -0.1349950E+02 -0.2568960E-01  0.2505846E+00 -0.1412935E+01 -0.3939343E-01  0.2474688E+00
 -0.5857690E+01 -0.1414170E+02 -0.2568960E-01  0.2364939E+00 -0.1428275E+01 -0.3359144E-01  0.2340961E+00
 -0.4443360E+01 -0.1464780E+02 -0.2568960E-01  0.2146707E+00 -0.1448952E+01 -0.2609182E-01  0.2130792E+00
 -0.2986230E+01 -0.1501280E+02 -0.2568960E-01  0.1739908E+00 -0.1486992E+01 -0.1456414E-01  0.1733802E+00
 -0.1500340E+01 -0.1523320E+02 -0.2568960E-01  0.4339544E-01 -0.2105389E+01  0.2210958E-01  0.3734073E-01
  0.1825330E-06 -0.1530690E+02 -0.2568960E-01  0.6062328E-01  0.2430733E+01  0.4594039E-01 -0.3955581E-01
  0.1500340E+01 -0.1523320E+02 -0.2568960E-01  0.1228603E+00  0.2146080E+01  0.6684493E-01 -0.1030844E+00
  0.2986230E+01 -0.1501280E+02 -0.2568960E-01  0.1998206E+00  0.2038862E+01  0.9015116E-01 -0.1783285E+00
  0.4443360E+01 -0.1464780E+02 -0.2568960E-01  0.2148043E+00  0.2022232E+01  0.9371003E-01 -0.1932856E+00
  0.5857700E+01 -0.1414170E+02 -0.2568960E-01  0.2229454E+00  0.2014908E+01  0.9578986E-01 -0.2013180E+00
  0.7215620E+01 -0.1349950E+02 -0.2568960E-01  0.2267146E+00  0.2013197E+01  0.9705886E-01 -0.2048880E+00
  0.8504060E+01 -0.1272720E+02 -0.2568960E-01  0.2289586E+00  0.2012995E+01  0.9797764E-01 -0.2069357E+00
  0.9710600E+01 -0.1183240E+02 -0.2568960E-01  0.2322338E+00  0.2012398E+01  0.9925384E-01 -0.2099552E+00
  0.1082360E+02 -0.1082360E+02 -0.2568960E-01  0.2324717E+00  0.2014109E+01  0.9971504E-01 -0.2100001E+00
  0.1183240E+02 -0.9710590E+01 -0.2568960E-01  0.2331582E+00  0.2015006E+01  0.1001984E+00 -0.2105303E+00
  0.1272720E+02 -0.8504060E+01 -0.2568960E-01  0.2339309E+00  0.2014802E+01  0.1004874E+00 -0.2112486E+00
  0.1349950E+02 -0.7215620E+01 -0.2568960E-01  0.2319232E+00  0.2015820E+01  0.9983818E-01 -0.2093339E+00
  0.1414170E+02 -0.5857700E+01 -0.2568960E-01  0.2288956E+00  0.2016721E+01  0.9872084E-01 -0.2065125E+00
  0.1464780E+02 -0.4443350E+01 -0.2568960E-01  0.2270854E+00  0.2015100E+01  0.9760787E-01 -0.2050378E+00
  0.1501280E+02 -0.2986230E+01 -0.2568960E-01  0.2261087E+00  0.2011374E+01  0.9642673E-01 -0.2045166E+00
  0.1523320E+02 -0.1500330E+01 -0.2568960E-01  0.2247454E+00  0.2006826E+01  0.9491986E-01 -0.2037173E+00
  0.1530690E+02  0.0000000E+00 -0.1027320E+00  0.2222016E+00  0.2001530E+01  0.9277753E-01 -0.2019056E+00
  0.1523320E+02  0.1500340E+01 -0.1027320E+00  0.2194655E+00  0.1995791E+01  0.9048907E-01 -0.1999421E+00
  0.1501280E+02  0.2986230E+01 -0.1027320E+00  0.2160248E+00  0.1989502E+01  0.8783097E-01 -0.1973637E+00
  0.1464780E+02  0.4443360E+01 -0.1027320E+00  0.2121070E+00  0.1982071E+01  0.8479575E-01 -0.1944198E+00
  0.1414170E+02  0.5857700E+01 -0.1027320E+00  0.2091425E+00  0.1970209E+01  0.8133069E-01 -0.1926808E+00
  0.1349950E+02  0.7215620E+01 -0.1027320E+00  0.2072649E+00  0.1953672E+01  0.7743203E-01 -0.1922576E+00
  0.1272720E+02  0.8504060E+01 -0.1027320E+00  0.2040798E+00  0.1937172E+01  0.7310836E-01 -0.1905354E+00
  0.1183240E+02  0.9710600E+01 -0.1027320E+00  0.1976517E+00  0.1925006E+01  0.6855534E-01 -0.1853817E+00
  0.1082360E+02  0.1082360E+02 -0.1027320E+00  0.1908486E+00  0.1911368E+01  0.6374840E-01 -0.1798870E+00
  0.9710590E+01  0.1183240E+02 -0.1027320E+00  0.1843312E+00  0.1894566E+01  0.5864353E-01 -0.1747539E+00
  0.8504060E+01  0.1272720E+02 -0.1027320E+00  0.1739778E+00  0.1882654E+01  0.5338112E-01 -0.1655860E+00
  0.7215620E+01  0.1349950E+02 -0.1027320E+00  0.1634859E+00  0.1867111E+01  0.4773744E-01 -0.1563610E+00
  0.5857700E+01  0.1414170E+02 -0.1027320E+00  0.1492809E+00  0.1856445E+01  0.4206438E-01 -0.1432319E+00
  0.4443360E+01  0.1464780E+02 -0.1027320E+00  0.1278765E+00  0.1859457E+01  0.3640245E-01 -0.1225858E+00
  0.2986230E+01  0.1501280E+02 -0.1027320E+00  0.8916230E-01  0.1931714E+01  0.3148618E-01 -0.8341785E-01
  0.1500340E+01  0.1523320E+02 -0.1027320E+00  0.6097908E-01 -0.2144246E+01  0.3308317E-01  0.5122452E-01
 -0.6690860E-06  0.1530690E+02 -0.1027320E+00  0.1315292E+00 -0.1806843E+01  0.3075949E-01  0.1278819E+00
 -0.1500340E+01  0.1523320E+02 -0.1027320E+00  0.1934115E+00 -0.1706118E+01  0.2609287E-01  0.1916433E+00
 -0.2986230E+01  0.1501280E+02 -0.1027320E+00  0.2682698E+00 -0.1633440E+01  0.1679450E-01  0.2677436E+00
 -0.4443360E+01  0.1464780E+02 -0.1027320E+00  0.2832834E+00 -0.1589721E+01  0.5360785E-02  0.2832327E+00
 -0.5857700E+01  0.1414170E+02 -0.1027320E+00  0.2915401E+00 -0.1555521E+01 -0.4453216E-02  0.2915061E+00
 -0.7215620E+01  0.1349950E+02 -0.1027320E+00  0.2956105E+00 -0.1525820E+01 -0.1329109E-01  0.2953115E+00
 -0.8504060E+01  0.1272720E+02 -0.1027320E+00  0.2983224E+00 -0.1499264E+01 -0.2132142E-01  0.2975595E+00
 -0.9710590E+01  0.1183240E+02 -0.1027320E+00  0.3020011E+00 -0.1476276E+01 -0.2850275E-01  0.3006530E+00
 -0.1082360E+02  0.1082360E+02 -0.1027320E+00  0.3028542E+00 -0.1454897E+01 -0.3502218E-01  0.3008223E+00
 -0.1183240E+02  0.9710590E+01 -0.1027320E+00  0.3041713E+00 -0.1436072E+01 -0.4085540E-01  0.3014151E+00
 -0.1272720E+02  0.8504060E+01 -0.1027320E+00  0.3056392E+00 -0.1419599E+01 -0.4603587E-01  0.3021523E+00
 -0.1349950E+02  0.7215620E+01 -0.1027320E+00  0.3045371E+00 -0.1403852E+01 -0.5060504E-01  0.3003032E+00
 -0.1414170E+02  0.5857690E+01 -0.1027320E+00  0.3024979E+00 -0.1389732E+01 -0.5447278E-01  0.2975528E+00
 -0.1464780E+02  0.4443360E+01 -0.1027320E+00  0.3016618E+00 -0.1378446E+01 -0.5766755E-01  0.2960984E+00
 -0.1501280E+02  0.2986230E+01 -0.1027320E+00  0.3016285E+00 -0.1369852E+01 -0.6020343E-01  0.2955593E+00
 -0.1523320E+02  0.1500340E+01 -0.1027320E+00  0.3011883E+00 -0.1363271E+01 -0.6205657E-01  0.2947260E+00
 -0.1530690E+02 -0.1338170E-05 -0.1027320E+00  0.3000918E+00 -0.1358459E+01 -0.6324288E-01  0.2933521E+00
 -0.1523320E+02 -0.1500340E+01 -0.1027320E+00  0.2982282E+00 -0.1355348E+01 -0.6375676E-01  0.2913333E+00
 -0.1501280E+02 -0.2986230E+01 -0.1027320E+00  0.2956097E+00 -0.1353940E+01 -0.6360366E-01  0.2886861E+00
 -0.1464780E+02 -0.4443360E+01 -0.1027320E+00  0.2924985E+00 -0.1354209E+01 -0.6285720E-01  0.2856648E+00
 -0.1414170E+02 -0.5857700E+01 -0.1027320E+00  0.2905164E+00 -0.1356213E+01 -0.6186253E-01  0.2838535E+00
 -0.1349950E+02 -0.7215620E+01 -0.1027320E+00  0.2897951E+00 -0.1359742E+01 -0.6070941E-01  0.2833647E+00
 -0.1272720E+02 -0.8504060E+01 -0.1027320E+00  0.2876695E+00 -0.1364547E+01 -0.5891188E-01  0.2815726E+00
 -0.1183240E+02 -0.9710600E+01 -0.1027320E+00  0.2819387E+00 -0.1371065E+01 -0.5593840E-01  0.2763337E+00
 -0.1082360E+02 -0.1082360E+02 -0.1027320E+00  0.2757874E+00 -0.1379197E+01 -0.5251790E-01  0.2707407E+00
 -0.9710600E+01 -0.1183240E+02 -0.1027320E+00  0.2699622E+00 -0.1388743E+01 -0.4887637E-01  0.2655008E+00
 -0.8504050E+01 -0.1272720E+02 -0.1027320E+00  0.2599658E+00 -0.1400452E+01 -0.4406973E-01  0.2562032E+00
 -0.7215620E+01 -0.1349950E+02 -0.1027320E+00  0.2499338E+00 -0.1412972E+01 -0.3928212E-01  0.2468275E+00
 -0.5857690E+01 -0.1414170E+02 -0.1027320E+00  0.2358892E+00 -0.1428300E+01 -0.3349965E-01  0.2334984E+00
 -0.4443360E+01 -0.1464780E+02 -0.1027320E+00  0.2141734E+00 -0.1448946E+01 -0.2603246E-01  0.2125854E+00
 -0.2986230E+01 -0.1501280E+02 -0.1027320E+00  0.1735518E+00 -0.1487020E+01 -0.1452245E-01  0.1729431E+00
 -0.1500340E+01 -0.1523320E+02 -0.1027320E+00  0.4334971E-01 -0.2104009E+01  0.2203477E-01  0.3733183E-01
  0.1825330E-06 -0.1530690E+02 -0.1027320E+00  0.6049476E-01  0.2430531E+01  0.4583503E-01 -0.3948121E-01
  0.1500340E+01 -0.1523320E+02 -0.1027320E+00  0.1226728E+00  0.2145802E+01  0.6671436E-01 -0.1029456E+00
  0.2986230E+01 -0.1501280E+02 -0.1027320E+00  0.1993594E+00  0.2038840E+01  0.8993915E-01 -0.1779188E+00
  0.4443360E+01 -0.1464780E+02 -0.1027320E+00  0.2143248E+00  0.2022184E+01  0.9349158E-01 -0.1928586E+00
  0.5857700E+01 -0.1414170E+02 -0.1027320E+00  0.2223812E+00  0.2014911E+01  0.9554810E-01 -0.2008083E+00
  0.7215620E+01 -0.1349950E+02 -0.1027320E+00  0.2261422E+00  0.2013186E+01  0.9681157E-01 -0.2043718E+00
  0.8504060E+01 -0.1272720E+02 -0.1027320E+00  0.2284081E+00  0.2012957E+01  0.9773436E-01 -0.2064419E+00
  0.9710600E+01 -0.1183240E+02 -0.1027320E+00  0.2316179E+00  0.2012404E+01  0.9899191E-01 -0.2093978E+00
  0.1082360E+02 -0.1082360E+02 -0.1027320E+00  0.2318836E+00  0.2014091E+01  0.9945898E-01 -0.2094706E+00
  0.1183240E+02 -0.9710590E+01 -0.1027320E+00  0.2325550E+00  0.2014992E+01  0.9993617E-01 -0.2099871E+00
  0.1272720E+02 -0.8504060E+01 -0.1027320E+00  0.2332860E+00  0.2014810E+01  0.1002121E+00 -0.2106654E+00
