 VARIABLES="X" "Y" "Z" "abs(eta) (m)" "angle(phi) (rad)" "PRE1" "PRE2"
ZONE N=   3200 ,E =    3136 ,F=FEPOINT,ET=QUADRILATERAL
  0.1672760E+02  0.0000000E+00  0.0000000E+00  0.1002348E+00  0.2112107E+01  0.5164696E-01 -0.8590462E-01
  0.1664710E+02  0.1639590E+01  0.0000000E+00  0.9672298E-01  0.2106499E+01  0.4937184E-01 -0.8317304E-01
  0.1640620E+02  0.3263390E+01  0.0000000E+00  0.9266520E-01  0.2103015E+01  0.4702266E-01 -0.7984803E-01
  0.1600730E+02  0.4855770E+01  0.0000000E+00  0.8804195E-01  0.2102794E+01  0.4465977E-01 -0.7587417E-01
  0.1545430E+02  0.6401380E+01  0.0000000E+00  0.8336331E-01  0.2100605E+01  0.4212919E-01 -0.7193451E-01
  0.1475240E+02  0.7885340E+01  0.0000000E+00  0.7871011E-01  0.2094393E+01  0.3935488E-01 -0.6816505E-01
  0.1390850E+02  0.9293360E+01  0.0000000E+00  0.7433516E-01  0.2082702E+01  0.3641227E-01 -0.6480634E-01
  0.1293060E+02  0.1061190E+02  0.0000000E+00  0.6967286E-01  0.2071680E+01  0.3345694E-01 -0.6111416E-01
  0.1182820E+02  0.1182820E+02  0.0000000E+00  0.6265761E-01  0.2086865E+01  0.3091934E-01 -0.5449744E-01
  0.1061190E+02  0.1293060E+02  0.0000000E+00  0.5533058E-01  0.2107105E+01  0.2827205E-01 -0.4756222E-01
  0.9293360E+01  0.1390850E+02  0.0000000E+00  0.4704544E-01  0.2150330E+01  0.2576367E-01 -0.3936378E-01
  0.7885330E+01  0.1475240E+02  0.0000000E+00  0.3636429E-01  0.2288207E+01  0.2390720E-01 -0.2740087E-01
  0.6401380E+01  0.1545430E+02  0.0000000E+00  0.2601119E-01  0.2629611E+01  0.2267592E-01 -0.1274303E-01
  0.4855770E+01  0.1600730E+02  0.0000000E+00  0.2469237E-01 -0.2767150E+01  0.2298148E-01  0.9031332E-02
  0.3263390E+01  0.1640620E+02  0.0000000E+00  0.5232741E-01 -0.2104385E+01  0.2661509E-01  0.4505324E-01
  0.1639590E+01  0.1664710E+02  0.0000000E+00  0.9978807E-01 -0.1907395E+01  0.3295789E-01  0.9418830E-01
 -0.7311870E-06  0.1672760E+02  0.0000000E+00  0.1390798E+00 -0.1827808E+01  0.3535287E-01  0.1345115E+00
 -0.1639590E+01  0.1664710E+02  0.0000000E+00  0.1647047E+00 -0.1764020E+01  0.3162721E-01  0.1616396E+00
 -0.3263390E+01  0.1640620E+02  0.0000000E+00  0.1792152E+00 -0.1697468E+01  0.2264077E-01  0.1777793E+00
 -0.4855770E+01  0.1600730E+02  0.0000000E+00  0.1854516E+00 -0.1640657E+01  0.1294525E-01  0.1849992E+00
 -0.6401380E+01  0.1545430E+02  0.0000000E+00  0.1877500E+00 -0.1595707E+01  0.4676584E-02  0.1876917E+00
 -0.7885340E+01  0.1475240E+02  0.0000000E+00  0.1880764E+00 -0.1557012E+01 -0.2592475E-02  0.1880586E+00
 -0.9293360E+01  0.1390850E+02  0.0000000E+00  0.1891345E+00 -0.1524898E+01 -0.8677880E-02  0.1889353E+00
 -0.1061190E+02  0.1293060E+02  0.0000000E+00  0.1887838E+00 -0.1496202E+01 -0.1406920E-01  0.1882588E+00
 -0.1182820E+02  0.1182820E+02  0.0000000E+00  0.1881456E+00 -0.1470535E+01 -0.1883216E-01  0.1872008E+00
 -0.1293060E+02  0.1061190E+02  0.0000000E+00  0.1874089E+00 -0.1447593E+01 -0.2303104E-01  0.1859884E+00
 -0.1390850E+02  0.9293360E+01  0.0000000E+00  0.1850597E+00 -0.1426074E+01 -0.2668891E-01  0.1831251E+00
 -0.1475240E+02  0.7885330E+01  0.0000000E+00  0.1833612E+00 -0.1408130E+01 -0.2969531E-01  0.1809407E+00
 -0.1545430E+02  0.6401370E+01  0.0000000E+00  0.1824291E+00 -0.1393404E+01 -0.3219200E-01  0.1795663E+00
 -0.1600730E+02  0.4855770E+01  0.0000000E+00  0.1815278E+00 -0.1380885E+01 -0.3426735E-01  0.1782641E+00
 -0.1640620E+02  0.3263390E+01  0.0000000E+00  0.1805613E+00 -0.1370827E+01 -0.3586664E-01  0.1769631E+00
 -0.1664710E+02  0.1639590E+01  0.0000000E+00  0.1791442E+00 -0.1363275E+01 -0.3691006E-01  0.1753006E+00
 -0.1672760E+02 -0.1462370E-05  0.0000000E+00  0.1771376E+00 -0.1357957E+01 -0.3741775E-01  0.1731405E+00
 -0.1664710E+02 -0.1639590E+01  0.0000000E+00  0.1744119E+00 -0.1354883E+01 -0.3736587E-01  0.1703623E+00
 -0.1640620E+02 -0.3263400E+01  0.0000000E+00  0.1709739E+00 -0.1354248E+01 -0.3673539E-01  0.1669808E+00
 -0.1600730E+02 -0.4855770E+01  0.0000000E+00  0.1667607E+00 -0.1356291E+01 -0.3549742E-01  0.1629389E+00
 -0.1545430E+02 -0.6401380E+01  0.0000000E+00  0.1625175E+00 -0.1360429E+01 -0.3393681E-01  0.1589347E+00
 -0.1475240E+02 -0.7885340E+01  0.0000000E+00  0.1584172E+00 -0.1366236E+01 -0.3218037E-01  0.1551142E+00
 -0.1390850E+02 -0.9293360E+01  0.0000000E+00  0.1547090E+00 -0.1373827E+01 -0.3027626E-01  0.1517176E+00
 -0.1293060E+02 -0.1061190E+02  0.0000000E+00  0.1506161E+00 -0.1383784E+01 -0.2800321E-01  0.1479900E+00
 -0.1182820E+02 -0.1182820E+02  0.0000000E+00  0.1434152E+00 -0.1399484E+01 -0.2444880E-01  0.1413159E+00
 -0.1061190E+02 -0.1293060E+02  0.0000000E+00  0.1358986E+00 -0.1418017E+01 -0.2068185E-01  0.1343156E+00
 -0.9293350E+01 -0.1390850E+02  0.0000000E+00  0.1270916E+00 -0.1441780E+01 -0.1635148E-01  0.1260353E+00
 -0.7885340E+01 -0.1475240E+02  0.0000000E+00  0.1144489E+00 -0.1478426E+01 -0.1055667E-01  0.1139610E+00
 -0.6401370E+01 -0.1545430E+02  0.0000000E+00  0.9921901E-01 -0.1533228E+01 -0.3726658E-02  0.9914900E-01
 -0.4855760E+01 -0.1600730E+02  0.0000000E+00  0.7738129E-01 -0.1646630E+01  0.5862502E-02  0.7715890E-01
 -0.3263390E+01 -0.1640620E+02  0.0000000E+00  0.4595257E-01 -0.2048266E+01  0.2111675E-01  0.4081326E-01
 -0.1639590E+01 -0.1664710E+02  0.0000000E+00  0.4254780E-01  0.2936451E+01  0.4165566E-01 -0.8667234E-02
  0.1994750E-06 -0.1672760E+02  0.0000000E+00  0.7600866E-01  0.2439513E+01  0.5803267E-01 -0.4908692E-01
  0.1639600E+01 -0.1664710E+02  0.0000000E+00  0.1017162E+00  0.2297849E+01  0.6760775E-01 -0.7599593E-01
  0.3263390E+01 -0.1640620E+02  0.0000000E+00  0.1159687E+00  0.2229940E+01  0.7102394E-01 -0.9167524E-01
  0.4855770E+01 -0.1600730E+02  0.0000000E+00  0.1213766E+00  0.2195086E+01  0.7094723E-01 -0.9848238E-01
  0.6401380E+01 -0.1545430E+02  0.0000000E+00  0.1227787E+00  0.2177147E+01  0.6996822E-01 -0.1008913E+00
  0.7885340E+01 -0.1475240E+02  0.0000000E+00  0.1221415E+00  0.2167221E+01  0.6860540E-01 -0.1010537E+00
  0.9293360E+01 -0.1390850E+02  0.0000000E+00  0.1223050E+00  0.2158457E+01  0.6780778E-01 -0.1017871E+00
  0.1061190E+02 -0.1293060E+02  0.0000000E+00  0.1210318E+00  0.2154177E+01  0.6667025E-01 -0.1010138E+00
  0.1182820E+02 -0.1182820E+02  0.0000000E+00  0.1194473E+00  0.2151130E+01  0.6549329E-01 -0.9989141E-01
  0.1293060E+02 -0.1061190E+02  0.0000000E+00  0.1177563E+00  0.2148602E+01  0.6431697E-01 -0.9864015E-01
  0.1390850E+02 -0.9293360E+01  0.0000000E+00  0.1144353E+00  0.2149986E+01  0.6263564E-01 -0.9577163E-01
  0.1475240E+02 -0.7885330E+01  0.0000000E+00  0.1117401E+00  0.2148590E+01  0.6102987E-01 -0.9360126E-01
  0.1545430E+02 -0.6401380E+01  0.0000000E+00  0.1097344E+00  0.2143200E+01  0.5943814E-01 -0.9224292E-01
  0.1600730E+02 -0.4855760E+01  0.0000000E+00  0.1076998E+00  0.2135980E+01  0.5768085E-01 -0.9095145E-01
  0.1640620E+02 -0.3263390E+01  0.0000000E+00  0.1056125E+00  0.2127516E+01  0.5580606E-01 -0.8966425E-01
  0.1664710E+02 -0.1639590E+01  0.0000000E+00  0.1031668E+00  0.2119384E+01  0.5379966E-01 -0.8802832E-01
  0.1672760E+02  0.0000000E+00 -0.2568960E-01  0.1001444E+00  0.2112119E+01  0.5160137E-01 -0.8582652E-01
  0.1664710E+02  0.1639590E+01 -0.2568960E-01  0.9663641E-01  0.2106502E+01  0.4932785E-01 -0.8309850E-01
  0.1640620E+02  0.3263390E+01 -0.2568960E-01  0.9258460E-01  0.2103004E+01  0.4698087E-01 -0.7977911E-01
  0.1600730E+02  0.4855770E+01 -0.2568960E-01  0.8796973E-01  0.2102748E+01  0.4461971E-01 -0.7581395E-01
  0.1545430E+02  0.6401380E+01 -0.2568960E-01  0.8329658E-01  0.2100532E+01  0.4209021E-01 -0.7188001E-01
  0.1475240E+02  0.7885340E+01 -0.2568960E-01  0.7864647E-01  0.2094342E+01  0.3931959E-01 -0.6811195E-01
  0.1390850E+02  0.9293360E+01 -0.2568960E-01  0.7427017E-01  0.2082701E+01  0.3638044E-01 -0.6474969E-01
  0.1293060E+02  0.1061190E+02 -0.2568960E-01  0.6960613E-01  0.2071755E+01  0.3342951E-01 -0.6105309E-01
  0.1182820E+02  0.1182820E+02 -0.2568960E-01  0.6260515E-01  0.2086835E+01  0.3089177E-01 -0.5445276E-01
  0.1061190E+02  0.1293060E+02 -0.2568960E-01  0.5528460E-01  0.2107087E+01  0.2824771E-01 -0.4752320E-01
  0.9293360E+01  0.1390850E+02 -0.2568960E-01  0.4700278E-01  0.2150412E+01  0.2574352E-01 -0.3932597E-01
  0.7885330E+01  0.1475240E+02 -0.2568960E-01  0.3633986E-01  0.2288087E+01  0.2388784E-01 -0.2738534E-01
  0.6401380E+01  0.1545430E+02 -0.2568960E-01  0.2599232E-01  0.2629492E+01  0.2265795E-01 -0.1273649E-01
  0.4855770E+01  0.1600730E+02 -0.2568960E-01  0.2467439E-01 -0.2767177E+01  0.2296499E-01  0.9024125E-02
  0.3263390E+01  0.1640620E+02 -0.2568960E-01  0.5227684E-01 -0.2104507E+01  0.2659488E-01  0.4500645E-01
  0.1639590E+01  0.1664710E+02 -0.2568960E-01  0.9969173E-01 -0.1907462E+01  0.3293234E-01  0.9409517E-01
 -0.7311870E-06  0.1672760E+02 -0.2568960E-01  0.1389581E+00 -0.1827844E+01  0.3532682E-01  0.1343926E+00
 -0.1639590E+01  0.1664710E+02 -0.2568960E-01  0.1645691E+00 -0.1764049E+01  0.3160577E-01  0.1615056E+00
 -0.3263390E+01  0.1640620E+02 -0.2568960E-01  0.1790615E+00 -0.1697496E+01  0.2262635E-01  0.1776262E+00
 -0.4855770E+01  0.1600730E+02 -0.2568960E-01  0.1852866E+00 -0.1640682E+01  0.1293826E-01  0.1848343E+00
 -0.6401380E+01  0.1545430E+02 -0.2568960E-01  0.1875824E+00 -0.1595724E+01  0.4675589E-02  0.1875241E+00
 -0.7885340E+01  0.1475240E+02 -0.2568960E-01  0.1879158E+00 -0.1557039E+01 -0.2585059E-02  0.1878981E+00
 -0.9293360E+01  0.1390850E+02 -0.2568960E-01  0.1889624E+00 -0.1524916E+01 -0.8666703E-02  0.1887635E+00
 -0.1061190E+02  0.1293060E+02 -0.2568960E-01  0.1886137E+00 -0.1496215E+01 -0.1405395E-01  0.1880894E+00
 -0.1182820E+02  0.1182820E+02 -0.2568960E-01  0.1879758E+00 -0.1470547E+01 -0.1881298E-01  0.1870320E+00
 -0.1293060E+02  0.1061190E+02 -0.2568960E-01  0.1872352E+00 -0.1447604E+01 -0.2300772E-01  0.1858162E+00
 -0.1390850E+02  0.9293360E+01 -0.2568960E-01  0.1848960E+00 -0.1426089E+01 -0.2666252E-01  0.1829635E+00
 -0.1475240E+02  0.7885330E+01 -0.2568960E-01  0.1832036E+00 -0.1408152E+01 -0.2966586E-01  0.1807857E+00
 -0.1545430E+02  0.6401370E+01 -0.2568960E-01  0.1822713E+00 -0.1393424E+01 -0.3216065E-01  0.1794115E+00
 -0.1600730E+02  0.4855770E+01 -0.2568960E-01  0.1813686E+00 -0.1380899E+01 -0.3423473E-01  0.1781083E+00
 -0.1640620E+02  0.3263390E+01 -0.2568960E-01  0.1803996E+00 -0.1370845E+01 -0.3583130E-01  0.1768054E+00
 -0.1664710E+02  0.1639590E+01 -0.2568960E-01  0.1789819E+00 -0.1363288E+01 -0.3687424E-01  0.1751422E+00
 -0.1672760E+02 -0.1462370E-05 -0.2568960E-01  0.1769760E+00 -0.1357972E+01 -0.3738115E-01  0.1729831E+00
 -0.1664710E+02 -0.1639590E+01 -0.2568960E-01  0.1742538E+00 -0.1354898E+01 -0.3732952E-01  0.1702084E+00
 -0.1640620E+02 -0.3263400E+01 -0.2568960E-01  0.1708221E+00 -0.1354258E+01 -0.3670116E-01  0.1668329E+00
 -0.1600730E+02 -0.4855770E+01 -0.2568960E-01  0.1666176E+00 -0.1356299E+01 -0.3546558E-01  0.1627993E+00
 -0.1545430E+02 -0.6401380E+01 -0.2568960E-01  0.1623807E+00 -0.1360429E+01 -0.3390823E-01  0.1588009E+00
 -0.1475240E+02 -0.7885340E+01 -0.2568960E-01  0.1582825E+00 -0.1366243E+01 -0.3215183E-01  0.1549826E+00
 -0.1390850E+02 -0.9293360E+01 -0.2568960E-01  0.1545703E+00 -0.1373845E+01 -0.3024644E-01  0.1515821E+00
 -0.1293060E+02 -0.1061190E+02 -0.2568960E-01  0.1504732E+00 -0.1383803E+01 -0.2797383E-01  0.1478501E+00
 -0.1182820E+02 -0.1182820E+02 -0.2568960E-01  0.1432896E+00 -0.1399488E+01 -0.2442678E-01  0.1411922E+00
 -0.1061190E+02 -0.1293060E+02 -0.2568960E-01  0.1357790E+00 -0.1418030E+01 -0.2066191E-01  0.1341977E+00
 -0.9293350E+01 -0.1390850E+02 -0.2568960E-01  0.1269736E+00 -0.1441810E+01 -0.1633247E-01  0.1259188E+00
 -0.7885340E+01 -0.1475240E+02 -0.2568960E-01  0.1143544E+00 -0.1478433E+01 -0.1054711E-01  0.1138670E+00
 -0.6401370E+01 -0.1545430E+02 -0.2568960E-01  0.9913366E-01 -0.1533251E+01 -0.3721110E-02  0.9906380E-01
 -0.4855760E+01 -0.1600730E+02 -0.2568960E-01  0.7731011E-01 -0.1646688E+01  0.5861526E-02  0.7708758E-01
 -0.3263390E+01 -0.1640620E+02 -0.2568960E-01  0.4591683E-01 -0.2048263E+01  0.2110018E-01  0.4078158E-01
 -0.1639590E+01 -0.1664710E+02 -0.2568960E-01  0.4250934E-01  0.2936632E+01  0.4161958E-01 -0.8651873E-02
  0.1994750E-06 -0.1672760E+02 -0.2568960E-01  0.7594678E-01  0.2439529E+01  0.5798620E-01 -0.4904604E-01
  0.1639600E+01 -0.1664710E+02 -0.2568960E-01  0.1016398E+00  0.2297827E+01  0.6755534E-01 -0.7594027E-01
  0.3263390E+01 -0.1640620E+02 -0.2568960E-01  0.1158744E+00  0.2229949E+01  0.7096701E-01 -0.9160001E-01
  0.4855770E+01 -0.1600730E+02 -0.2568960E-01  0.1212720E+00  0.2195099E+01  0.7088728E-01 -0.9839658E-01
  0.6401380E+01 -0.1545430E+02 -0.2568960E-01  0.1226717E+00  0.2177162E+01  0.6990875E-01 -0.1008024E+00
  0.7885340E+01 -0.1475240E+02 -0.2568960E-01  0.1220425E+00  0.2167215E+01  0.6854921E-01 -0.1009721E+00
  0.9293360E+01 -0.1390850E+02 -0.2568960E-01  0.1221955E+00  0.2158472E+01  0.6774861E-01 -0.1016950E+00
  0.1061190E+02 -0.1293060E+02 -0.2568960E-01  0.1209253E+00  0.2154192E+01  0.6661306E-01 -0.1009239E+00
  0.1182820E+02 -0.1182820E+02 -0.2568960E-01  0.1193413E+00  0.2151140E+01  0.6543622E-01 -0.9980199E-01
  0.1293060E+02 -0.1061190E+02 -0.2568960E-01  0.1176464E+00  0.2148617E+01  0.6425841E-01 -0.9854715E-01
  0.1390850E+02 -0.9293360E+01 -0.2568960E-01  0.1143365E+00  0.2149979E+01  0.6258096E-01 -0.9568942E-01
  0.1475240E+02 -0.7885330E+01 -0.2568960E-01  0.1116479E+00  0.2148573E+01  0.6097793E-01 -0.9352505E-01
  0.1545430E+02 -0.6401380E+01 -0.2568960E-01  0.1096436E+00  0.2143184E+01  0.5938742E-01 -0.9216750E-01
  0.1600730E+02 -0.4855760E+01 -0.2568960E-01  0.1076088E+00  0.2135976E+01  0.5763177E-01 -0.9087481E-01
  0.1640620E+02 -0.3263390E+01 -0.2568960E-01  0.1055204E+00  0.2127522E+01  0.5575794E-01 -0.8958574E-01
  0.1664710E+02 -0.1639590E+01 -0.2568960E-01  0.1030751E+00  0.2119400E+01  0.5375330E-01 -0.8794916E-01
  0.1672760E+02  0.0000000E+00 -0.1027320E+00  0.9988422E-01  0.2112115E+01  0.5146703E-01 -0.8560375E-01
  0.1664710E+02  0.1639590E+01 -0.1027320E+00  0.9638781E-01  0.2106479E+01  0.4919910E-01 -0.8288582E-01
  0.1640620E+02  0.3263390E+01 -0.1027320E+00  0.9235299E-01  0.2102916E+01  0.4685628E-01 -0.7958370E-01
  0.1600730E+02  0.4855770E+01 -0.1027320E+00  0.8776107E-01  0.2102546E+01  0.4449854E-01 -0.7564314E-01
  0.1545430E+02  0.6401380E+01 -0.1027320E+00  0.8310497E-01  0.2100270E+01  0.4197460E-01 -0.7172564E-01
  0.1475240E+02  0.7885340E+01 -0.1027320E+00  0.7846422E-01  0.2094111E+01  0.3921278E-01 -0.6796317E-01
  0.1390850E+02  0.9293360E+01 -0.1027320E+00  0.7408337E-01  0.2082664E+01  0.3628648E-01 -0.6458821E-01
  0.1293060E+02  0.1061190E+02 -0.1027320E+00  0.6941240E-01  0.2071911E+01  0.3334595E-01 -0.6087798E-01
  0.1182820E+02  0.1182820E+02 -0.1027320E+00  0.6245247E-01  0.2086709E+01  0.3080958E-01 -0.5432384E-01
  0.1061190E+02  0.1293060E+02 -0.1027320E+00  0.5514979E-01  0.2107015E+01  0.2817544E-01 -0.4740932E-01
  0.9293360E+01  0.1390850E+02 -0.1027320E+00  0.4687745E-01  0.2150626E+01  0.2568328E-01 -0.3921561E-01
  0.7885330E+01  0.1475240E+02 -0.1027320E+00  0.3626630E-01  0.2287659E+01  0.2382778E-01 -0.2734011E-01
  0.6401380E+01  0.1545430E+02 -0.1027320E+00  0.2593566E-01  0.2629148E+01  0.2260417E-01 -0.1271651E-01
  0.4855770E+01  0.1600730E+02 -0.1027320E+00  0.2462112E-01 -0.2767207E+01  0.2291567E-01  0.9003961E-02
  0.3263390E+01  0.1640620E+02 -0.1027320E+00  0.5211574E-01 -0.2104893E+01  0.2653024E-01  0.4485752E-01
  0.1639590E+01  0.1664710E+02 -0.1027320E+00  0.9940945E-01 -0.1907647E+01  0.3285646E-01  0.9382266E-01
 -0.7311870E-06  0.1672760E+02 -0.1027320E+00  0.1385985E+00 -0.1827950E+01  0.3524960E-01  0.1340411E+00
 -0.1639590E+01  0.1664710E+02 -0.1027320E+00  0.1641660E+00 -0.1764133E+01  0.3154194E-01  0.1611074E+00
 -0.3263390E+01  0.1640620E+02 -0.1027320E+00  0.1786070E+00 -0.1697567E+01  0.2258159E-01  0.1771737E+00
 -0.4855770E+01  0.1600730E+02 -0.1027320E+00  0.1847925E+00 -0.1640750E+01  0.1291644E-01  0.1843406E+00
 -0.6401380E+01  0.1545430E+02 -0.1027320E+00  0.1870831E+00 -0.1595773E+01  0.4672161E-02  0.1870248E+00
 -0.7885340E+01  0.1475240E+02 -0.1027320E+00  0.1874385E+00 -0.1557114E+01 -0.2564559E-02  0.1874210E+00
 -0.9293360E+01  0.1390850E+02 -0.1027320E+00  0.1884542E+00 -0.1524966E+01 -0.8633876E-02  0.1882563E+00
 -0.1061190E+02  0.1293060E+02 -0.1027320E+00  0.1881127E+00 -0.1496257E+01 -0.1400889E-01  0.1875904E+00
 -0.1182820E+02  0.1182820E+02 -0.1027320E+00  0.1874759E+00 -0.1470579E+01 -0.1875693E-01  0.1865353E+00
 -0.1293060E+02  0.1061190E+02 -0.1027320E+00  0.1867250E+00 -0.1447626E+01 -0.2294092E-01  0.1853104E+00
 -0.1390850E+02  0.9293360E+01 -0.1027320E+00  0.1844166E+00 -0.1426138E+01 -0.2658441E-01  0.1824904E+00
 -0.1475240E+02  0.7885330E+01 -0.1027320E+00  0.1827425E+00 -0.1408208E+01 -0.2958105E-01  0.1803324E+00
 -0.1545430E+02  0.6401370E+01 -0.1027320E+00  0.1818105E+00 -0.1393479E+01 -0.3206944E-01  0.1789598E+00
 -0.1600730E+02  0.4855770E+01 -0.1027320E+00  0.1809039E+00 -0.1380953E+01 -0.3413748E-01  0.1776538E+00
 -0.1640620E+02  0.3263390E+01 -0.1027320E+00  0.1799277E+00 -0.1370902E+01 -0.3572755E-01  0.1763449E+00
 -0.1664710E+02  0.1639590E+01 -0.1027320E+00  0.1785064E+00 -0.1363336E+01 -0.3676785E-01  0.1746788E+00
 -0.1672760E+02 -0.1462370E-05 -0.1027320E+00  0.1765034E+00 -0.1358015E+01 -0.3727385E-01  0.1725228E+00
 -0.1664710E+02 -0.1639590E+01 -0.1027320E+00  0.1737922E+00 -0.1354932E+01 -0.3722487E-01  0.1697587E+00
 -0.1640620E+02 -0.3263400E+01 -0.1027320E+00  0.1703789E+00 -0.1354284E+01 -0.3660154E-01  0.1664010E+00
 -0.1600730E+02 -0.4855770E+01 -0.1027320E+00  0.1662001E+00 -0.1356314E+01 -0.3537428E-01  0.1623919E+00
 -0.1545430E+02 -0.6401380E+01 -0.1027320E+00  0.1619815E+00 -0.1360435E+01 -0.3382391E-01  0.1584107E+00
 -0.1475240E+02 -0.7885340E+01 -0.1027320E+00  0.1578888E+00 -0.1366252E+01 -0.3207053E-01  0.1545974E+00
 -0.1390850E+02 -0.9293360E+01 -0.1027320E+00  0.1541641E+00 -0.1373874E+01 -0.3016259E-01  0.1511846E+00
 -0.1293060E+02 -0.1061190E+02 -0.1027320E+00  0.1500528E+00 -0.1383859E+01 -0.2788739E-01  0.1474386E+00
 -0.1182820E+02 -0.1182820E+02 -0.1027320E+00  0.1429190E+00 -0.1399509E+01 -0.2436064E-01  0.1408275E+00
 -0.1061190E+02 -0.1293060E+02 -0.1027320E+00  0.1354250E+00 -0.1418060E+01 -0.2060397E-01  0.1338485E+00
 -0.9293350E+01 -0.1390850E+02 -0.1027320E+00  0.1266234E+00 -0.1441879E+01 -0.1627875E-01  0.1255727E+00
 -0.7885340E+01 -0.1475240E+02 -0.1027320E+00  0.1140721E+00 -0.1478440E+01 -0.1052028E-01  0.1135859E+00
 -0.6401370E+01 -0.1545430E+02 -0.1027320E+00  0.9887848E-01 -0.1533301E+01 -0.3706570E-02  0.9880898E-01
 -0.4855760E+01 -0.1600730E+02 -0.1027320E+00  0.7709624E-01 -0.1646859E+01  0.5858460E-02  0.7687332E-01
 -0.3263390E+01 -0.1640620E+02 -0.1027320E+00  0.4581517E-01 -0.2048019E+01  0.2104355E-01  0.4069642E-01
 -0.1639590E+01 -0.1664710E+02 -0.1027320E+00  0.4239793E-01  0.2937010E+01  0.4151376E-01 -0.8613488E-02
  0.1994750E-06 -0.1672760E+02 -0.1027320E+00  0.7576422E-01  0.2439534E+01  0.5784706E-01 -0.4892785E-01
  0.1639600E+01 -0.1664710E+02 -0.1027320E+00  0.1014141E+00  0.2297764E+01  0.6740052E-01 -0.7577595E-01
  0.3263390E+01 -0.1640620E+02 -0.1027320E+00  0.1155977E+00  0.2229936E+01  0.7079633E-01 -0.9138217E-01
  0.4855770E+01 -0.1600730E+02 -0.1027320E+00  0.1209582E+00  0.2195150E+01  0.7070891E-01 -0.9813838E-01
  0.6401380E+01 -0.1545430E+02 -0.1027320E+00  0.1223533E+00  0.2177180E+01  0.6972913E-01 -0.1005395E+00
  0.7885340E+01 -0.1475240E+02 -0.1027320E+00  0.1217500E+00  0.2167195E+01  0.6838283E-01 -0.1007315E+00
  0.9293360E+01 -0.1390850E+02 -0.1027320E+00  0.1218727E+00  0.2158499E+01  0.6757246E-01 -0.1014245E+00
  0.1061190E+02 -0.1293060E+02 -0.1027320E+00  0.1206115E+00  0.2154190E+01  0.6644001E-01 -0.1006622E+00
  0.1182820E+02 -0.1182820E+02 -0.1027320E+00  0.1190299E+00  0.2151134E+01  0.6526484E-01 -0.9954209E-01
  0.1293060E+02 -0.1061190E+02 -0.1027320E+00  0.1173274E+00  0.2148629E+01  0.6408541E-01 -0.9827912E-01
  0.1390850E+02 -0.9293360E+01 -0.1027320E+00  0.1140504E+00  0.2149917E+01  0.6241846E-01 -0.9545385E-01
