 VARIABLES="X" "Y" "Z" "abs(eta) (m)" "angle(phi) (rad)" "PRE1" "PRE2"
ZONE N=   3200 ,E =    3136 ,F=FEPOINT,ET=QUADRILATERAL
  0.1530690E+02  0.0000000E+00  0.0000000E+00  0.5084791E+00 -0.1186489E+01 -0.1906373E+00  0.4713899E+00
  0.1523320E+02  0.1500340E+01  0.0000000E+00  0.5080423E+00 -0.1189036E+01 -0.1892733E+00  0.4714686E+00
  0.1501280E+02  0.2986230E+01  0.0000000E+00  0.5061401E+00 -0.1193648E+01 -0.1863966E+00  0.4705678E+00
  0.1464780E+02  0.4443360E+01  0.0000000E+00  0.5029915E+00 -0.1200426E+01 -0.1820632E+00  0.4688853E+00
  0.1414170E+02  0.5857700E+01  0.0000000E+00  0.4982850E+00 -0.1209130E+01 -0.1763098E+00  0.4660502E+00
  0.1349950E+02  0.7215620E+01  0.0000000E+00  0.4926427E+00 -0.1220115E+01 -0.1692415E+00  0.4626598E+00
  0.1272720E+02  0.8504060E+01  0.0000000E+00  0.4877529E+00 -0.1234394E+01 -0.1610040E+00  0.4604135E+00
  0.1183240E+02  0.9710600E+01  0.0000000E+00  0.4824776E+00 -0.1251421E+01 -0.1514851E+00  0.4580795E+00
  0.1082360E+02  0.1082360E+02  0.0000000E+00  0.4766220E+00 -0.1270849E+01 -0.1408276E+00  0.4553418E+00
  0.9710590E+01  0.1183240E+02  0.0000000E+00  0.4682330E+00 -0.1292043E+01 -0.1288376E+00  0.4501588E+00
  0.8504060E+01  0.1272720E+02  0.0000000E+00  0.4601595E+00 -0.1316569E+01 -0.1157291E+00  0.4453690E+00
  0.7215620E+01  0.1349950E+02  0.0000000E+00  0.4453437E+00 -0.1342590E+01 -0.1007503E+00  0.4337976E+00
  0.5857700E+01  0.1414170E+02  0.0000000E+00  0.4281896E+00 -0.1372165E+01 -0.8449367E-01  0.4197704E+00
  0.4443360E+01  0.1464780E+02  0.0000000E+00  0.4051975E+00 -0.1405203E+01 -0.6679183E-01  0.3996547E+00
  0.2986230E+01  0.1501280E+02  0.0000000E+00  0.3599183E+00 -0.1443575E+01 -0.4566595E-01  0.3570095E+00
  0.1500340E+01  0.1523320E+02  0.0000000E+00  0.2001723E+00 -0.1502141E+01 -0.1373205E-01  0.1997007E+00
 -0.6690860E-06  0.1530690E+02  0.0000000E+00  0.8989012E-01 -0.1734972E+01  0.1469155E-01  0.8868141E-01
 -0.1500340E+01  0.1523320E+02  0.0000000E+00  0.5300573E-01  0.2623049E+01  0.4603770E-01 -0.2627046E-01
 -0.2986230E+01  0.1501280E+02  0.0000000E+00  0.2217841E+00  0.1996385E+01  0.9156512E-01 -0.2020001E+00
 -0.4443360E+01  0.1464780E+02  0.0000000E+00  0.2755508E+00  0.1993256E+01  0.1129773E+00 -0.2513252E+00
 -0.5857700E+01  0.1414170E+02  0.0000000E+00  0.3039006E+00  0.2009621E+01  0.1291200E+00 -0.2751066E+00
 -0.7215620E+01  0.1349950E+02  0.0000000E+00  0.3247930E+00  0.2027385E+01  0.1431976E+00 -0.2915218E+00
 -0.8504060E+01  0.1272720E+02  0.0000000E+00  0.3427032E+00  0.2043917E+01  0.1561584E+00 -0.3050575E+00
 -0.9710590E+01  0.1183240E+02  0.0000000E+00  0.3534899E+00  0.2063803E+01  0.1672985E+00 -0.3113941E+00
 -0.1082360E+02  0.1082360E+02  0.0000000E+00  0.3644900E+00  0.2080702E+01  0.1779058E+00 -0.3181234E+00
 -0.1183240E+02  0.9710590E+01  0.0000000E+00  0.3724768E+00  0.2097152E+01  0.1871268E+00 -0.3220598E+00
 -0.1272720E+02  0.8504060E+01  0.0000000E+00  0.3794666E+00  0.2111136E+01  0.1952080E+00 -0.3254055E+00
 -0.1349950E+02  0.7215620E+01  0.0000000E+00  0.3860150E+00  0.2122749E+01  0.2024073E+00 -0.3286926E+00
 -0.1414170E+02  0.5857690E+01  0.0000000E+00  0.3932944E+00  0.2130744E+01  0.2088950E+00 -0.3332317E+00
 -0.1464780E+02  0.4443360E+01  0.0000000E+00  0.3994894E+00  0.2137045E+01  0.2143140E+00 -0.3371369E+00
 -0.1501280E+02  0.2986230E+01  0.0000000E+00  0.4040388E+00  0.2142275E+01  0.2185350E+00 -0.3398379E+00
 -0.1523320E+02  0.1500340E+01  0.0000000E+00  0.4072225E+00  0.2146224E+01  0.2216078E+00 -0.3416433E+00
 -0.1530690E+02 -0.1338170E-05  0.0000000E+00  0.4088604E+00  0.2148987E+01  0.2234460E+00 -0.3424014E+00
 -0.1523320E+02 -0.1500340E+01  0.0000000E+00  0.4092201E+00  0.2150115E+01  0.2240290E+00 -0.3424501E+00
 -0.1501280E+02 -0.2986230E+01  0.0000000E+00  0.4080541E+00  0.2149815E+01  0.2232883E+00 -0.3415413E+00
 -0.1464780E+02 -0.4443360E+01  0.0000000E+00  0.4055341E+00  0.2147829E+01  0.2212349E+00 -0.3398721E+00
 -0.1414170E+02 -0.5857700E+01  0.0000000E+00  0.4013676E+00  0.2144619E+01  0.2178809E+00 -0.3370814E+00
 -0.1349950E+02 -0.7215620E+01  0.0000000E+00  0.3961660E+00  0.2139668E+01  0.2134074E+00 -0.3337735E+00
 -0.1272720E+02 -0.8504060E+01  0.0000000E+00  0.3916629E+00  0.2131755E+01  0.2083639E+00 -0.3316388E+00
 -0.1183240E+02 -0.9710600E+01  0.0000000E+00  0.3867244E+00  0.2121986E+01  0.2025279E+00 -0.3294513E+00
 -0.1082360E+02 -0.1082360E+02  0.0000000E+00  0.3809536E+00  0.2109966E+01  0.1955906E+00 -0.3269098E+00
 -0.9710600E+01 -0.1183240E+02  0.0000000E+00  0.3724225E+00  0.2097265E+01  0.1871362E+00 -0.3219915E+00
 -0.8504050E+01 -0.1272720E+02  0.0000000E+00  0.3641821E+00  0.2082593E+01  0.1783562E+00 -0.3175180E+00
 -0.7215620E+01 -0.1349950E+02  0.0000000E+00  0.3490569E+00  0.2070649E+01  0.1673018E+00 -0.3063508E+00
 -0.5857690E+01 -0.1414170E+02  0.0000000E+00  0.3314394E+00  0.2058323E+01  0.1552601E+00 -0.2928248E+00
 -0.4443360E+01 -0.1464780E+02  0.0000000E+00  0.3076026E+00  0.2046844E+01  0.1409650E+00 -0.2734012E+00
 -0.2986230E+01 -0.1501280E+02  0.0000000E+00  0.2610264E+00  0.2048021E+01  0.1198936E+00 -0.2318627E+00
 -0.1500340E+01 -0.1523320E+02  0.0000000E+00  0.9899703E-01  0.2252400E+01  0.6237204E-01 -0.7687743E-01
  0.1825330E-06 -0.1530690E+02  0.0000000E+00  0.4008038E-01 -0.2147862E+01  0.2186655E-01  0.3359004E-01
  0.1500340E+01 -0.1523320E+02  0.0000000E+00  0.1497951E+00 -0.1463890E+01 -0.1598359E-01  0.1489399E+00
  0.2986230E+01 -0.1501280E+02  0.0000000E+00  0.3324738E+00 -0.1386131E+01 -0.6104806E-01  0.3268210E+00
  0.4443360E+01 -0.1464780E+02  0.0000000E+00  0.3860862E+00 -0.1355478E+01 -0.8249063E-01  0.3771709E+00
  0.5857700E+01 -0.1414170E+02  0.0000000E+00  0.4135945E+00 -0.1329203E+01 -0.9895239E-01  0.4015830E+00
  0.7215620E+01 -0.1349950E+02  0.0000000E+00  0.4336547E+00 -0.1305223E+01 -0.1138180E+00  0.4184517E+00
  0.8504060E+01 -0.1272720E+02  0.0000000E+00  0.4507952E+00 -0.1283799E+01 -0.1276082E+00  0.4323569E+00
  0.9710600E+01 -0.1183240E+02  0.0000000E+00  0.4605154E+00 -0.1263858E+01 -0.1391406E+00  0.4389924E+00
  0.1082360E+02 -0.1082360E+02  0.0000000E+00  0.4704839E+00 -0.1246657E+01 -0.1498456E+00  0.4459836E+00
  0.1183240E+02 -0.9710590E+01  0.0000000E+00  0.4774418E+00 -0.1230954E+01 -0.1591497E+00  0.4501355E+00
  0.1272720E+02 -0.8504060E+01  0.0000000E+00  0.4835782E+00 -0.1217292E+01 -0.1674086E+00  0.4536764E+00
  0.1349950E+02 -0.7215620E+01  0.0000000E+00  0.4893212E+00 -0.1206096E+01 -0.1745257E+00  0.4571389E+00
  0.1414170E+02 -0.5857700E+01  0.0000000E+00  0.4959224E+00 -0.1197919E+01 -0.1806626E+00  0.4618442E+00
  0.1464780E+02 -0.4443350E+01  0.0000000E+00  0.5014462E+00 -0.1191936E+01 -0.1854658E+00  0.4658871E+00
  0.1501280E+02 -0.2986230E+01  0.0000000E+00  0.5052844E+00 -0.1187911E+01 -0.1887733E+00  0.4686970E+00
  0.1523320E+02 -0.1500330E+01  0.0000000E+00  0.5076773E+00 -0.1186145E+01 -0.1904989E+00  0.4705809E+00
  0.1530690E+02  0.0000000E+00 -0.2568960E-01  0.5078997E+00 -0.1186489E+01 -0.1904202E+00  0.4708527E+00
  0.1523320E+02  0.1500340E+01 -0.2568960E-01  0.5074648E+00 -0.1189037E+01 -0.1890579E+00  0.4709327E+00
  0.1501280E+02  0.2986230E+01 -0.2568960E-01  0.5055716E+00 -0.1193652E+01 -0.1861852E+00  0.4700401E+00
  0.1464780E+02  0.4443360E+01 -0.2568960E-01  0.5024372E+00 -0.1200436E+01 -0.1818577E+00  0.4683705E+00
  0.1414170E+02  0.5857700E+01 -0.2568960E-01  0.4977515E+00 -0.1209143E+01 -0.1761150E+00  0.4655535E+00
  0.1349950E+02  0.7215620E+01 -0.2568960E-01  0.4921280E+00 -0.1220130E+01 -0.1690575E+00  0.4621791E+00
  0.1272720E+02  0.8504060E+01 -0.2568960E-01  0.4872417E+00 -0.1234414E+01 -0.1608259E+00  0.4599342E+00
  0.1183240E+02  0.9710600E+01 -0.2568960E-01  0.4819641E+00 -0.1251432E+01 -0.1513188E+00  0.4575937E+00
  0.1082360E+02  0.1082360E+02 -0.2568960E-01  0.4761142E+00 -0.1270859E+01 -0.1406727E+00  0.4548581E+00
  0.9710590E+01  0.1183240E+02 -0.2568960E-01  0.4677443E+00 -0.1292062E+01 -0.1286948E+00  0.4496914E+00
  0.8504060E+01  0.1272720E+02 -0.2568960E-01  0.4596555E+00 -0.1316576E+01 -0.1155992E+00  0.4448820E+00
  0.7215620E+01  0.1349950E+02 -0.2568960E-01  0.4449014E+00 -0.1342606E+01 -0.1006433E+00  0.4333684E+00
  0.5857700E+01  0.1414170E+02 -0.2568960E-01  0.4277461E+00 -0.1372174E+01 -0.8440223E-01  0.4193364E+00
  0.4443360E+01  0.1464780E+02 -0.2568960E-01  0.4047885E+00 -0.1405212E+01 -0.6672076E-01  0.3992518E+00
  0.2986230E+01  0.1501280E+02 -0.2568960E-01  0.3595329E+00 -0.1443572E+01 -0.4561800E-01  0.3566271E+00
  0.1500340E+01  0.1523320E+02 -0.2568960E-01  0.2000648E+00 -0.1502130E+01 -0.1372691E-01  0.1995933E+00
 -0.6690860E-06  0.1530690E+02 -0.2568960E-01  0.8979463E-01 -0.1734979E+01  0.1467660E-01  0.8858709E-01
 -0.1500340E+01  0.1523320E+02 -0.2568960E-01  0.5303647E-01  0.2621144E+01  0.4601422E-01 -0.2637344E-01
 -0.2986230E+01  0.1501280E+02 -0.2568960E-01  0.2215473E+00  0.1996381E+01  0.9146659E-01 -0.2017847E+00
 -0.4443360E+01  0.1464780E+02 -0.2568960E-01  0.2752889E+00  0.1993222E+01  0.1128612E+00 -0.2510902E+00
 -0.5857700E+01  0.1414170E+02 -0.2568960E-01  0.3035976E+00  0.2009590E+01  0.1289829E+00 -0.2748362E+00
 -0.7215620E+01  0.1349950E+02 -0.2568960E-01  0.3244890E+00  0.2027339E+01  0.1430503E+00 -0.2912554E+00
 -0.8504060E+01  0.1272720E+02 -0.2568960E-01  0.3423333E+00  0.2043910E+01  0.1559877E+00 -0.3047292E+00
 -0.9710590E+01  0.1183240E+02 -0.2568960E-01  0.3531324E+00  0.2063770E+01  0.1671190E+00 -0.3110847E+00
 -0.1082360E+02  0.1082360E+02 -0.2568960E-01  0.3641071E+00  0.2080683E+01  0.1777127E+00 -0.3177927E+00
 -0.1183240E+02  0.9710590E+01 -0.2568960E-01  0.3720864E+00  0.2097122E+01  0.1869213E+00 -0.3217277E+00
 -0.1272720E+02  0.8504060E+01 -0.2568960E-01  0.3790786E+00  0.2111101E+01  0.1949970E+00 -0.3250796E+00
 -0.1349950E+02  0.7215620E+01 -0.2568960E-01  0.3856209E+00  0.2122713E+01  0.2021887E+00 -0.3283645E+00
 -0.1414170E+02  0.5857690E+01 -0.2568960E-01  0.3928790E+00  0.2130718E+01  0.2086659E+00 -0.3328850E+00
 -0.1464780E+02  0.4443360E+01 -0.2568960E-01  0.3990538E+00  0.2137037E+01  0.2140777E+00 -0.3367709E+00
 -0.1501280E+02  0.2986230E+01 -0.2568960E-01  0.4035890E+00  0.2142284E+01  0.2182948E+00 -0.3394575E+00
 -0.1523320E+02  0.1500340E+01 -0.2568960E-01  0.4067619E+00  0.2146234E+01  0.2213606E+00 -0.3412546E+00
 -0.1530690E+02 -0.1338170E-05 -0.2568960E-01  0.4083955E+00  0.2148997E+01  0.2231953E+00 -0.3420098E+00
 -0.1523320E+02 -0.1500340E+01 -0.2568960E-01  0.4087571E+00  0.2150123E+01  0.2237785E+00 -0.3420607E+00
 -0.1501280E+02 -0.2986230E+01 -0.2568960E-01  0.4075975E+00  0.2149811E+01  0.2230370E+00 -0.3411600E+00
 -0.1464780E+02 -0.4443360E+01 -0.2568960E-01  0.4050913E+00  0.2147819E+01  0.2209900E+00 -0.3395032E+00
 -0.1414170E+02 -0.5857700E+01 -0.2568960E-01  0.4009449E+00  0.2144599E+01  0.2176448E+00 -0.3367307E+00
 -0.1349950E+02 -0.7215620E+01 -0.2568960E-01  0.3957610E+00  0.2139636E+01  0.2131786E+00 -0.3334391E+00
 -0.1272720E+02 -0.8504060E+01 -0.2568960E-01  0.3912623E+00  0.2131730E+01  0.2081424E+00 -0.3313048E+00
 -0.1183240E+02 -0.9710600E+01 -0.2568960E-01  0.3863197E+00  0.2121961E+01  0.2023078E+00 -0.3291117E+00
 -0.1082360E+02 -0.1082360E+02 -0.2568960E-01  0.3805550E+00  0.2109950E+01  0.1953807E+00 -0.3265708E+00
 -0.9710600E+01 -0.1183240E+02 -0.2568960E-01  0.3720437E+00  0.2097241E+01  0.1869379E+00 -0.3216687E+00
 -0.8504050E+01 -0.1272720E+02 -0.2568960E-01  0.3637874E+00  0.2082582E+01  0.1781595E+00 -0.3171757E+00
 -0.7215620E+01 -0.1349950E+02 -0.2568960E-01  0.3487271E+00  0.2070615E+01  0.1671333E+00 -0.3060670E+00
 -0.5857690E+01 -0.1414170E+02 -0.2568960E-01  0.3311073E+00  0.2058296E+01  0.1550968E+00 -0.2925355E+00
 -0.4443360E+01 -0.1464780E+02 -0.2568960E-01  0.3073054E+00  0.2046821E+01  0.1408224E+00 -0.2731403E+00
 -0.2986230E+01 -0.1501280E+02 -0.2568960E-01  0.2607546E+00  0.2048001E+01  0.1197641E+00 -0.2316237E+00
 -0.1500340E+01 -0.1523320E+02 -0.2568960E-01  0.9900288E-01  0.2251984E+01  0.6234369E-01 -0.7690796E-01
  0.1825330E-06 -0.1530690E+02 -0.2568960E-01  0.4003098E-01 -0.2147964E+01  0.2184300E-01  0.3354642E-01
  0.1500340E+01 -0.1523320E+02 -0.2568960E-01  0.1497602E+00 -0.1463857E+01 -0.1598480E-01  0.1489047E+00
  0.2986230E+01 -0.1501280E+02 -0.2568960E-01  0.3321089E+00 -0.1386128E+01 -0.6098201E-01  0.3264621E+00
  0.4443360E+01 -0.1464780E+02 -0.2568960E-01  0.3856995E+00 -0.1355482E+01 -0.8240643E-01  0.3767934E+00
  0.5857700E+01 -0.1414170E+02 -0.2568960E-01  0.4131672E+00 -0.1329206E+01 -0.9884888E-01  0.4011683E+00
  0.7215620E+01 -0.1349950E+02 -0.2568960E-01  0.4332275E+00 -0.1305231E+01 -0.1137027E+00  0.4180404E+00
  0.8504060E+01 -0.1272720E+02 -0.2568960E-01  0.4503013E+00 -0.1283809E+01 -0.1274639E+00  0.4318844E+00
  0.9710600E+01 -0.1183240E+02 -0.2568960E-01  0.4600375E+00 -0.1263870E+01 -0.1389911E+00  0.4385384E+00
  0.1082360E+02 -0.1082360E+02 -0.2568960E-01  0.4699824E+00 -0.1246662E+01 -0.1496840E+00  0.4455089E+00
  0.1183240E+02 -0.9710590E+01 -0.2568960E-01  0.4769345E+00 -0.1230965E+01 -0.1589755E+00  0.4496591E+00
  0.1272720E+02 -0.8504060E+01 -0.2568960E-01  0.4830731E+00 -0.1217308E+01 -0.1672264E+00  0.4532051E+00
  0.1349950E+02 -0.7215620E+01 -0.2568960E-01  0.4888121E+00 -0.1206115E+01 -0.1743357E+00  0.4566666E+00
  0.1414170E+02 -0.5857700E+01 -0.2568960E-01  0.4953915E+00 -0.1197935E+01 -0.1804621E+00  0.4613526E+00
  0.1464780E+02 -0.4443350E+01 -0.2568960E-01  0.5008937E+00 -0.1191941E+01 -0.1852590E+00  0.4653746E+00
  0.1501280E+02 -0.2986230E+01 -0.2568960E-01  0.5047169E+00 -0.1187916E+01 -0.1885593E+00  0.4681715E+00
  0.1523320E+02 -0.1500330E+01 -0.2568960E-01  0.5070997E+00 -0.1186147E+01 -0.1902812E+00  0.4700460E+00
  0.1530690E+02  0.0000000E+00 -0.1027320E+00  0.5061457E+00 -0.1186487E+01 -0.1897636E+00  0.4692263E+00
  0.1523320E+02  0.1500340E+01 -0.1027320E+00  0.5057198E+00 -0.1189033E+01 -0.1884096E+00  0.4693126E+00
  0.1501280E+02  0.2986230E+01 -0.1027320E+00  0.5038536E+00 -0.1193658E+01 -0.1855500E+00  0.4684438E+00
  0.1464780E+02  0.4443360E+01 -0.1027320E+00  0.5007618E+00 -0.1200454E+01 -0.1812432E+00  0.4668118E+00
  0.1414170E+02  0.5857700E+01 -0.1027320E+00  0.4961334E+00 -0.1209180E+01 -0.1755252E+00  0.4640466E+00
  0.1349950E+02  0.7215620E+01 -0.1027320E+00  0.4905665E+00 -0.1220184E+01 -0.1684962E+00  0.4607218E+00
  0.1272720E+02  0.8504060E+01 -0.1027320E+00  0.4856940E+00 -0.1234458E+01 -0.1602950E+00  0.4584803E+00
  0.1183240E+02  0.9710600E+01 -0.1027320E+00  0.4804096E+00 -0.1251461E+01 -0.1508175E+00  0.4561222E+00
  0.1082360E+02  0.1082360E+02 -0.1027320E+00  0.4745713E+00 -0.1270882E+01 -0.1402065E+00  0.4533873E+00
  0.9710590E+01  0.1183240E+02 -0.1027320E+00  0.4662682E+00 -0.1292103E+01 -0.1282701E+00  0.4482776E+00
  0.8504060E+01  0.1272720E+02 -0.1027320E+00  0.4581341E+00 -0.1316595E+01 -0.1152081E+00  0.4434117E+00
  0.7215620E+01  0.1349950E+02 -0.1027320E+00  0.4435352E+00 -0.1342652E+01 -0.1003143E+00  0.4320423E+00
  0.5857700E+01  0.1414170E+02 -0.1027320E+00  0.4264180E+00 -0.1372205E+01 -0.8412742E-01  0.4180369E+00
  0.4443360E+01  0.1464780E+02 -0.1027320E+00  0.4035425E+00 -0.1405250E+01 -0.6650040E-01  0.3980254E+00
  0.2986230E+01  0.1501280E+02 -0.1027320E+00  0.3584701E+00 -0.1443594E+01 -0.4547547E-01  0.3555739E+00
  0.1500340E+01  0.1523320E+02 -0.1027320E+00  0.1995565E+00 -0.1502168E+01 -0.1368440E-01  0.1990867E+00
 -0.6690860E-06  0.1530690E+02 -0.1027320E+00  0.8950147E-01 -0.1735037E+01  0.1463382E-01  0.8829702E-01
 -0.1500340E+01  0.1523320E+02 -0.1027320E+00  0.5297872E-01  0.2618700E+01  0.4589960E-01 -0.2645698E-01
 -0.2986230E+01  0.1501280E+02 -0.1027320E+00  0.2209331E+00  0.1996238E+01  0.9118421E-01 -0.2012384E+00
 -0.4443360E+01  0.1464780E+02 -0.1027320E+00  0.2744910E+00  0.1993149E+01  0.1125160E+00 -0.2503707E+00
 -0.5857700E+01  0.1414170E+02 -0.1027320E+00  0.3026856E+00  0.2009511E+01  0.1285738E+00 -0.2740208E+00
 -0.7215620E+01  0.1349950E+02 -0.1027320E+00  0.3235328E+00  0.2027237E+01  0.1425991E+00 -0.2904117E+00
 -0.8504060E+01  0.1272720E+02 -0.1027320E+00  0.3412123E+00  0.2043909E+01  0.1554766E+00 -0.3037316E+00
 -0.9710590E+01  0.1183240E+02 -0.1027320E+00  0.3520495E+00  0.2063696E+01  0.1665837E+00 -0.3101431E+00
 -0.1082360E+02  0.1082360E+02 -0.1027320E+00  0.3629448E+00  0.2080640E+01  0.1771318E+00 -0.3167858E+00
 -0.1183240E+02  0.9710590E+01 -0.1027320E+00  0.3709035E+00  0.2097070E+01  0.1863101E+00 -0.3207148E+00
 -0.1272720E+02  0.8504060E+01 -0.1027320E+00  0.3778990E+00  0.2111019E+01  0.1943638E+00 -0.3240839E+00
 -0.1349950E+02  0.7215620E+01 -0.1027320E+00  0.3844253E+00  0.2122631E+01  0.2015352E+00 -0.3273628E+00
 -0.1414170E+02  0.5857690E+01 -0.1027320E+00  0.3916209E+00  0.2130675E+01  0.2079833E+00 -0.3318280E+00
 -0.1464780E+02  0.4443360E+01 -0.1027320E+00  0.3977341E+00  0.2137040E+01  0.2133706E+00 -0.3356566E+00
 -0.1501280E+02  0.2986230E+01 -0.1027320E+00  0.4022229E+00  0.2142314E+01  0.2175663E+00 -0.3383020E+00
 -0.1523320E+02  0.1500340E+01 -0.1027320E+00  0.4053666E+00  0.2146286E+01  0.2206190E+00 -0.3400725E+00
 -0.1530690E+02 -0.1338170E-05 -0.1027320E+00  0.4069895E+00  0.2149046E+01  0.2224439E+00 -0.3408213E+00
 -0.1523320E+02 -0.1500340E+01 -0.1027320E+00  0.4073541E+00  0.2150164E+01  0.2230244E+00 -0.3408775E+00
 -0.1501280E+02 -0.2986230E+01 -0.1027320E+00  0.4062193E+00  0.2149832E+01  0.2222903E+00 -0.3400016E+00
 -0.1464780E+02 -0.4443360E+01 -0.1027320E+00  0.4037520E+00  0.2147815E+01  0.2202579E+00 -0.3383816E+00
 -0.1414170E+02 -0.5857700E+01 -0.1027320E+00  0.3996599E+00  0.2144556E+01  0.2169328E+00 -0.3356609E+00
 -0.1349950E+02 -0.7215620E+01 -0.1027320E+00  0.3945317E+00  0.2139568E+01  0.2124937E+00 -0.3324180E+00
 -0.1272720E+02 -0.8504060E+01 -0.1027320E+00  0.3900432E+00  0.2131658E+01  0.2074701E+00 -0.3302875E+00
 -0.1183240E+02 -0.9710600E+01 -0.1027320E+00  0.3850925E+00  0.2121913E+01  0.2016496E+00 -0.3280757E+00
 -0.1082360E+02 -0.1082360E+02 -0.1027320E+00  0.3793384E+00  0.2109900E+01  0.1947399E+00 -0.3255365E+00
 -0.9710600E+01 -0.1183240E+02 -0.1027320E+00  0.3708982E+00  0.2097181E+01  0.1863434E+00 -0.3206893E+00
 -0.8504050E+01 -0.1272720E+02 -0.1027320E+00  0.3625963E+00  0.2082576E+01  0.1775742E+00 -0.3161384E+00
 -0.7215620E+01 -0.1349950E+02 -0.1027320E+00  0.3476928E+00  0.2070538E+01  0.1666141E+00 -0.3051722E+00
 -0.5857690E+01 -0.1414170E+02 -0.1027320E+00  0.3301091E+00  0.2058216E+01  0.1546057E+00 -0.2916660E+00
 -0.4443360E+01 -0.1464780E+02 -0.1027320E+00  0.3063986E+00  0.2046757E+01  0.1403894E+00 -0.2723433E+00
 -0.2986230E+01 -0.1501280E+02 -0.1027320E+00  0.2600305E+00  0.2047862E+01  0.1193994E+00 -0.2309970E+00
 -0.1500340E+01 -0.1523320E+02 -0.1027320E+00  0.9883833E-01  0.2251365E+01  0.6219254E-01 -0.7681864E-01
  0.1825330E-06 -0.1530690E+02 -0.1027320E+00  0.3988606E-01 -0.2148278E+01  0.2177443E-01  0.3341814E-01
  0.1500340E+01 -0.1523320E+02 -0.1027320E+00  0.1494261E+00 -0.1463824E+01 -0.1595399E-01  0.1485720E+00
  0.2986230E+01 -0.1501280E+02 -0.1027320E+00  0.3311197E+00 -0.1386119E+01 -0.6080343E-01  0.3254892E+00
  0.4443360E+01 -0.1464780E+02 -0.1027320E+00  0.3845250E+00 -0.1355511E+01 -0.8214469E-01  0.3756484E+00
  0.5857700E+01 -0.1414170E+02 -0.1027320E+00  0.4118837E+00 -0.1329227E+01 -0.9853370E-01  0.3999242E+00
  0.7215620E+01 -0.1349950E+02 -0.1027320E+00  0.4319021E+00 -0.1305271E+01 -0.1133382E+00  0.4167660E+00
  0.8504060E+01 -0.1272720E+02 -0.1027320E+00  0.4488083E+00 -0.1283829E+01 -0.1270329E+00  0.4304550E+00
  0.9710600E+01 -0.1183240E+02 -0.1027320E+00  0.4585900E+00 -0.1263906E+01 -0.1385380E+00  0.4371636E+00
  0.1082360E+02 -0.1082360E+02 -0.1027320E+00  0.4684593E+00 -0.1246682E+01 -0.1491901E+00  0.4440681E+00
  0.1183240E+02 -0.9710590E+01 -0.1027320E+00  0.4753962E+00 -0.1230991E+01 -0.1584512E+00  0.4482128E+00
  0.1272720E+02 -0.8504060E+01 -0.1027320E+00  0.4815417E+00 -0.1217347E+01 -0.1666789E+00  0.4517748E+00
