 VARIABLES="X" "Y" "Z" "abs(eta) (m)" "angle(phi) (rad)" "PRE1" "PRE2"
ZONE N=   3200 ,E =    3136 ,F=FEPOINT,ET=QUADRILATERAL
  0.1530690E+02  0.0000000E+00  0.0000000E+00  0.1889363E+00 -0.1240066E+01 -0.6135400E-01  0.1786970E+00
  0.1523320E+02  0.1500340E+01  0.0000000E+00  0.1861763E+00 -0.1236660E+01 -0.6105715E-01  0.1758796E+00
  0.1501280E+02  0.2986230E+01  0.0000000E+00  0.1826653E+00 -0.1235751E+01 -0.6006259E-01  0.1725083E+00
  0.1464780E+02  0.4443360E+01  0.0000000E+00  0.1783367E+00 -0.1237615E+01 -0.5832515E-01  0.1685294E+00
  0.1414170E+02  0.5857700E+01  0.0000000E+00  0.1731845E+00 -0.1243260E+01 -0.5571545E-01  0.1639776E+00
  0.1349950E+02  0.7215620E+01  0.0000000E+00  0.1673352E+00 -0.1252814E+01 -0.5231749E-01  0.1589464E+00
  0.1272720E+02  0.8504060E+01  0.0000000E+00  0.1619368E+00 -0.1264817E+01 -0.4877982E-01  0.1544152E+00
  0.1183240E+02  0.9710600E+01  0.0000000E+00  0.1563769E+00 -0.1279579E+01 -0.4489867E-01  0.1497927E+00
  0.1082360E+02  0.1082360E+02  0.0000000E+00  0.1499664E+00 -0.1298619E+01 -0.4031533E-01  0.1444458E+00
  0.9710590E+01  0.1183240E+02  0.0000000E+00  0.1415658E+00 -0.1324613E+01 -0.3450018E-01  0.1372975E+00
  0.8504060E+01  0.1272720E+02  0.0000000E+00  0.1330605E+00 -0.1354758E+01 -0.2852312E-01  0.1299674E+00
  0.7215620E+01  0.1349950E+02  0.0000000E+00  0.1210501E+00 -0.1399127E+01 -0.2067861E-01  0.1192708E+00
  0.5857700E+01  0.1414170E+02  0.0000000E+00  0.1069603E+00 -0.1460845E+01 -0.1173671E-01  0.1063145E+00
  0.4443360E+01  0.1464780E+02  0.0000000E+00  0.8760441E-01 -0.1575603E+01  0.4210802E-03  0.8760340E-01
  0.2986230E+01  0.1501280E+02  0.0000000E+00  0.5737921E-01 -0.1953014E+01  0.2140125E-01  0.5323871E-01
  0.1500340E+01  0.1523320E+02  0.0000000E+00  0.9357221E-01  0.2634508E+01  0.8179747E-01 -0.4544154E-01
 -0.6690860E-06  0.1530690E+02  0.0000000E+00  0.1394843E+00  0.2456012E+01  0.1079681E+00 -0.8831063E-01
 -0.1500340E+01  0.1523320E+02  0.0000000E+00  0.1619149E+00  0.2396633E+01  0.1190261E+00 -0.1097690E+00
 -0.2986230E+01  0.1501280E+02  0.0000000E+00  0.1528591E+00  0.2359530E+01  0.1084477E+00 -0.1077266E+00
 -0.4443360E+01  0.1464780E+02  0.0000000E+00  0.1427849E+00  0.2349316E+01  0.1002673E+00 -0.1016563E+00
 -0.5857700E+01  0.1414170E+02  0.0000000E+00  0.1356800E+00  0.2346142E+01  0.9497103E-01 -0.9689983E-01
 -0.7215620E+01  0.1349950E+02  0.0000000E+00  0.1309491E+00  0.2343892E+01  0.9144888E-01 -0.9372706E-01
 -0.8504060E+01  0.1272720E+02  0.0000000E+00  0.1270507E+00  0.2342828E+01  0.8862957E-01 -0.9103122E-01
 -0.9710590E+01  0.1183240E+02  0.0000000E+00  0.1224895E+00  0.2345429E+01  0.8567571E-01 -0.8754060E-01
 -0.1082360E+02  0.1082360E+02  0.0000000E+00  0.1182748E+00  0.2347600E+01  0.8291110E-01 -0.8434860E-01
 -0.1183240E+02  0.9710590E+01  0.0000000E+00  0.1143623E+00  0.2349804E+01  0.8034796E-01 -0.8138146E-01
 -0.1272720E+02  0.8504060E+01  0.0000000E+00  0.1108353E+00  0.2350800E+01  0.7794851E-01 -0.7879402E-01
 -0.1349950E+02  0.7215620E+01  0.0000000E+00  0.1072607E+00  0.2351478E+01  0.7548618E-01 -0.7620161E-01
 -0.1414170E+02  0.5857690E+01  0.0000000E+00  0.1037545E+00  0.2350635E+01  0.7295653E-01 -0.7377222E-01
 -0.1464780E+02  0.4443360E+01  0.0000000E+00  0.1003417E+00  0.2348919E+01  0.7043426E-01 -0.7146664E-01
 -0.1501280E+02  0.2986230E+01  0.0000000E+00  0.9676312E-01  0.2347291E+01  0.6780993E-01 -0.6902836E-01
 -0.1523320E+02  0.1500340E+01  0.0000000E+00  0.9298900E-01  0.2342462E+01  0.6484402E-01 -0.6664988E-01
 -0.1530690E+02 -0.1338170E-05  0.0000000E+00  0.8893629E-01  0.2335781E+01  0.6159071E-01 -0.6415799E-01
 -0.1523320E+02 -0.1500340E+01  0.0000000E+00  0.8457537E-01  0.2329040E+01  0.5815804E-01 -0.6140549E-01
 -0.1501280E+02 -0.2986230E+01  0.0000000E+00  0.7974461E-01  0.2325574E+01  0.5463519E-01 -0.5808786E-01
 -0.1464780E+02 -0.4443360E+01  0.0000000E+00  0.7447344E-01  0.2327387E+01  0.5112202E-01 -0.5415563E-01
 -0.1414170E+02 -0.5857700E+01  0.0000000E+00  0.6890015E-01  0.2336468E+01  0.4774930E-01 -0.4967126E-01
 -0.1349950E+02 -0.7215620E+01  0.0000000E+00  0.6312563E-01  0.2354159E+01  0.4454561E-01 -0.4472733E-01
 -0.1272720E+02 -0.8504060E+01  0.0000000E+00  0.5753884E-01  0.2366464E+01  0.4110179E-01 -0.4026613E-01
 -0.1183240E+02 -0.9710600E+01  0.0000000E+00  0.5181062E-01  0.2381275E+01  0.3754285E-01 -0.3570539E-01
 -0.1082360E+02 -0.1082360E+02  0.0000000E+00  0.4576660E-01  0.2414350E+01  0.3418812E-01 -0.3042621E-01
 -0.9710600E+01 -0.1183240E+02  0.0000000E+00  0.3914734E-01  0.2501345E+01  0.3139413E-01 -0.2338639E-01
 -0.8504050E+01 -0.1272720E+02  0.0000000E+00  0.3283997E-01  0.2625946E+01  0.2856991E-01 -0.1619332E-01
 -0.7215620E+01 -0.1349950E+02  0.0000000E+00  0.2718595E-01  0.2930651E+01  0.2658335E-01 -0.5692217E-02
 -0.5857690E+01 -0.1414170E+02  0.0000000E+00  0.2619263E-01 -0.2871088E+01  0.2524017E-01  0.6999147E-02
 -0.4443360E+01 -0.1464780E+02  0.0000000E+00  0.3635325E-01 -0.2372424E+01  0.2611941E-01  0.2528508E-01
 -0.2986230E+01 -0.1501280E+02  0.0000000E+00  0.6733485E-01 -0.2076865E+01  0.3264009E-01  0.5889488E-01
 -0.1500340E+01 -0.1523320E+02  0.0000000E+00  0.1682211E+00 -0.1955518E+01  0.6313355E-01  0.1559247E+00
  0.1825330E-06 -0.1530690E+02  0.0000000E+00  0.2099027E+00 -0.1901047E+01  0.6806730E-01  0.1985598E+00
  0.1500340E+01 -0.1523320E+02  0.0000000E+00  0.2283819E+00 -0.1833686E+01  0.5934999E-01  0.2205354E+00
  0.2986230E+01 -0.1501280E+02  0.0000000E+00  0.2218978E+00 -0.1684681E+01  0.2521609E-01  0.2204604E+00
  0.4443360E+01 -0.1464780E+02  0.0000000E+00  0.2153835E+00 -0.1599775E+01  0.6240742E-02  0.2152930E+00
  0.5857700E+01 -0.1414170E+02  0.0000000E+00  0.2111903E+00 -0.1537849E+01 -0.6956912E-02  0.2110756E+00
  0.7215620E+01 -0.1349950E+02  0.0000000E+00  0.2089665E+00 -0.1488437E+01 -0.1719088E-01  0.2082582E+00
  0.8504060E+01 -0.1272720E+02  0.0000000E+00  0.2074381E+00 -0.1445846E+01 -0.2585201E-01  0.2058209E+00
  0.9710600E+01 -0.1183240E+02  0.0000000E+00  0.2052090E+00 -0.1408114E+01 -0.3323689E-01  0.2024995E+00
  0.1082360E+02 -0.1082360E+02  0.0000000E+00  0.2033513E+00 -0.1373839E+01 -0.3979317E-01  0.1994198E+00
  0.1183240E+02 -0.9710590E+01  0.0000000E+00  0.2016020E+00 -0.1344966E+01 -0.4514176E-01  0.1964830E+00
  0.1272720E+02 -0.8504060E+01  0.0000000E+00  0.2000944E+00 -0.1320747E+01 -0.4951370E-01  0.1938715E+00
  0.1349950E+02 -0.7215620E+01  0.0000000E+00  0.1984876E+00 -0.1299496E+01 -0.5319162E-01  0.1912275E+00
  0.1414170E+02 -0.5857700E+01  0.0000000E+00  0.1969490E+00 -0.1280922E+01 -0.5629431E-01  0.1887323E+00
  0.1464780E+02 -0.4443350E+01  0.0000000E+00  0.1953132E+00 -0.1266223E+01 -0.5857176E-01  0.1863239E+00
  0.1501280E+02 -0.2986230E+01  0.0000000E+00  0.1933248E+00 -0.1254839E+01 -0.6007106E-01  0.1837551E+00
  0.1523320E+02 -0.1500330E+01  0.0000000E+00  0.1912641E+00 -0.1246123E+01 -0.6101314E-01  0.1812715E+00
  0.1530690E+02  0.0000000E+00 -0.2568960E-01  0.1887210E+00 -0.1240070E+01 -0.6128336E-01  0.1784936E+00
  0.1523320E+02  0.1500340E+01 -0.2568960E-01  0.1859631E+00 -0.1236661E+01 -0.6098702E-01  0.1756783E+00
  0.1501280E+02  0.2986230E+01 -0.2568960E-01  0.1824578E+00 -0.1235756E+01 -0.5999351E-01  0.1723126E+00
  0.1464780E+02  0.4443360E+01 -0.2568960E-01  0.1781379E+00 -0.1237624E+01 -0.5825861E-01  0.1683421E+00
  0.1414170E+02  0.5857700E+01 -0.2568960E-01  0.1729973E+00 -0.1243265E+01 -0.5565445E-01  0.1638007E+00
  0.1349950E+02  0.7215620E+01 -0.2568960E-01  0.1671612E+00 -0.1252813E+01 -0.5226314E-01  0.1587811E+00
  0.1272720E+02  0.8504060E+01 -0.2568960E-01  0.1617676E+00 -0.1264818E+01 -0.4872869E-01  0.1542539E+00
  0.1183240E+02  0.9710600E+01 -0.2568960E-01  0.1562083E+00 -0.1279588E+01 -0.4484889E-01  0.1496316E+00
  0.1082360E+02  0.1082360E+02 -0.2568960E-01  0.1498032E+00 -0.1298631E+01 -0.4026969E-01  0.1442891E+00
  0.9710590E+01  0.1183240E+02 -0.2568960E-01  0.1414196E+00 -0.1324605E+01 -0.3446562E-01  0.1371555E+00
  0.8504060E+01  0.1272720E+02 -0.2568960E-01  0.1329124E+00 -0.1354780E+01 -0.2848848E-01  0.1298233E+00
  0.7215620E+01  0.1349950E+02 -0.2568960E-01  0.1209335E+00 -0.1399098E+01 -0.2066218E-01  0.1191553E+00
  0.5857700E+01  0.1414170E+02 -0.2568960E-01  0.1068467E+00 -0.1460856E+01 -0.1172308E-01  0.1062016E+00
  0.4443360E+01  0.1464780E+02 -0.2568960E-01  0.8752096E-01 -0.1575541E+01  0.4152806E-03  0.8751997E-01
  0.2986230E+01  0.1501280E+02 -0.2568960E-01  0.5730207E-01 -0.1953427E+01  0.2139444E-01  0.5315831E-01
  0.1500340E+01  0.1523320E+02 -0.2568960E-01  0.9339713E-01  0.2634961E+01  0.8166496E-01 -0.4531951E-01
 -0.6690860E-06  0.1530690E+02 -0.2568960E-01  0.1393604E+00  0.2455964E+01  0.1078679E+00 -0.8823738E-01
 -0.1500340E+01  0.1523320E+02 -0.2568960E-01  0.1617304E+00  0.2396611E+01  0.1188881E+00 -0.1096465E+00
 -0.2986230E+01  0.1501280E+02 -0.2568960E-01  0.1527235E+00  0.2359499E+01  0.1083480E+00 -0.1076344E+00
 -0.4443360E+01  0.1464780E+02 -0.2568960E-01  0.1426381E+00  0.2349293E+01  0.1001620E+00 -0.1015540E+00
 -0.5857700E+01  0.1414170E+02 -0.2568960E-01  0.1355460E+00  0.2346115E+01  0.9487463E-01 -0.9680670E-01
 -0.7215620E+01  0.1349950E+02 -0.2568960E-01  0.1308202E+00  0.2343859E+01  0.9135576E-01 -0.9363788E-01
 -0.8504060E+01  0.1272720E+02 -0.2568960E-01  0.1269155E+00  0.2342815E+01  0.8853412E-01 -0.9093541E-01
 -0.9710590E+01  0.1183240E+02 -0.2568960E-01  0.1223640E+00  0.2345403E+01  0.8558573E-01 -0.8745307E-01
 -0.1082360E+02  0.1082360E+02 -0.2568960E-01  0.1181543E+00  0.2347578E+01  0.8282474E-01 -0.8426443E-01
 -0.1183240E+02  0.9710590E+01 -0.2568960E-01  0.1142457E+00  0.2349778E+01  0.8026387E-01 -0.8130056E-01
 -0.1272720E+02  0.8504060E+01 -0.2568960E-01  0.1107223E+00  0.2350769E+01  0.7786657E-01 -0.7871611E-01
 -0.1349950E+02  0.7215620E+01 -0.2568960E-01  0.1071512E+00  0.2351440E+01  0.7540623E-01 -0.7612670E-01
 -0.1414170E+02  0.5857690E+01 -0.2568960E-01  0.1036471E+00  0.2350601E+01  0.7287847E-01 -0.7369836E-01
 -0.1464780E+02  0.4443360E+01 -0.2568960E-01  0.1002345E+00  0.2348893E+01  0.7035714E-01 -0.7139208E-01
 -0.1501280E+02  0.2986230E+01 -0.2568960E-01  0.9665712E-01  0.2347275E+01  0.6773454E-01 -0.6895383E-01
 -0.1523320E+02  0.1500340E+01 -0.2568960E-01  0.9288508E-01  0.2342466E+01  0.6477182E-01 -0.6657515E-01
 -0.1530690E+02 -0.1338170E-05 -0.2568960E-01  0.8883517E-01  0.2335797E+01  0.6152171E-01 -0.6408406E-01
 -0.1523320E+02 -0.1500340E+01 -0.2568960E-01  0.8447903E-01  0.2329071E+01  0.5809365E-01 -0.6133379E-01
 -0.1501280E+02 -0.2986230E+01 -0.2568960E-01  0.7965587E-01  0.2325605E+01  0.5457618E-01 -0.5802153E-01
 -0.1464780E+02 -0.4443360E+01 -0.2568960E-01  0.7439386E-01  0.2327387E+01  0.5106738E-01 -0.5409778E-01
 -0.1414170E+02 -0.5857700E+01 -0.2568960E-01  0.6883024E-01  0.2336401E+01  0.4769747E-01 -0.4962411E-01
 -0.1349950E+02 -0.7215620E+01 -0.2568960E-01  0.6306542E-01  0.2354004E+01  0.4449618E-01 -0.4469158E-01
 -0.1272720E+02 -0.8504060E+01 -0.2568960E-01  0.5748485E-01  0.2366321E+01  0.4105745E-01 -0.4023425E-01
 -0.1183240E+02 -0.9710600E+01 -0.2568960E-01  0.5175985E-01  0.2381187E+01  0.3750293E-01 -0.3567369E-01
 -0.1082360E+02 -0.1082360E+02 -0.2568960E-01  0.4572212E-01  0.2414284E+01  0.3415288E-01 -0.3039889E-01
 -0.9710600E+01 -0.1183240E+02 -0.2568960E-01  0.3911233E-01  0.2501092E+01  0.3136015E-01 -0.2337340E-01
 -0.8504050E+01 -0.1272720E+02 -0.2568960E-01  0.3280777E-01  0.2625913E+01  0.2854137E-01 -0.1617838E-01
 -0.7215620E+01 -0.1349950E+02 -0.2568960E-01  0.2715904E-01  0.2929940E+01  0.2655299E-01 -0.5705454E-02
 -0.5857690E+01 -0.1414170E+02 -0.2568960E-01  0.2616521E-01 -0.2871432E+01  0.2521615E-01  0.6983139E-02
 -0.4443360E+01 -0.1464780E+02 -0.2568960E-01  0.3630145E-01 -0.2372758E+01  0.2609064E-01  0.2524032E-01
 -0.2986230E+01 -0.1501280E+02 -0.2568960E-01  0.6728391E-01 -0.2076976E+01  0.3262189E-01  0.5884673E-01
 -0.1500340E+01 -0.1523320E+02 -0.2568960E-01  0.1679570E+00 -0.1955544E+01  0.6303844E-01  0.1556782E+00
  0.1825330E-06 -0.1530690E+02 -0.2568960E-01  0.2096955E+00 -0.1901098E+01  0.6801024E-01  0.1983603E+00
  0.1500340E+01 -0.1523320E+02 -0.2568960E-01  0.2281215E+00 -0.1833613E+01  0.5926642E-01  0.2202883E+00
  0.2986230E+01 -0.1501280E+02 -0.2568960E-01  0.2216770E+00 -0.1684753E+01  0.2520693E-01  0.2202392E+00
  0.4443360E+01 -0.1464780E+02 -0.2568960E-01  0.2151521E+00 -0.1599786E+01  0.6236317E-02  0.2150617E+00
  0.5857700E+01 -0.1414170E+02 -0.2568960E-01  0.2109669E+00 -0.1537879E+01 -0.6943255E-02  0.2108526E+00
  0.7215620E+01 -0.1349950E+02 -0.2568960E-01  0.2087462E+00 -0.1488455E+01 -0.1716910E-01  0.2080390E+00
  0.8504060E+01 -0.1272720E+02 -0.2568960E-01  0.2072097E+00 -0.1445862E+01 -0.2582038E-01  0.2055947E+00
  0.9710600E+01 -0.1183240E+02 -0.2568960E-01  0.2049880E+00 -0.1408130E+01 -0.3319787E-01  0.2022819E+00
  0.1082360E+02 -0.1082360E+02 -0.2568960E-01  0.2031310E+00 -0.1373865E+01 -0.3974487E-01  0.1992048E+00
  0.1183240E+02 -0.9710590E+01 -0.2568960E-01  0.2013840E+00 -0.1344989E+01 -0.4508846E-01  0.1962716E+00
  0.1272720E+02 -0.8504060E+01 -0.2568960E-01  0.1998786E+00 -0.1320765E+01 -0.4945691E-01  0.1936633E+00
  0.1349950E+02 -0.7215620E+01 -0.2568960E-01  0.1982738E+00 -0.1299508E+01 -0.5313196E-01  0.1910222E+00
  0.1414170E+02 -0.5857700E+01 -0.2568960E-01  0.1967351E+00 -0.1280935E+01 -0.5623074E-01  0.1885280E+00
  0.1464780E+02 -0.4443350E+01 -0.2568960E-01  0.1950982E+00 -0.1266233E+01 -0.5850543E-01  0.1861194E+00
  0.1501280E+02 -0.2986230E+01 -0.2568960E-01  0.1931092E+00 -0.1254845E+01 -0.6000312E-01  0.1835505E+00
  0.1523320E+02 -0.1500330E+01 -0.2568960E-01  0.1910480E+00 -0.1246127E+01 -0.6094342E-01  0.1810669E+00
  0.1530690E+02  0.0000000E+00 -0.1027320E+00  0.1880707E+00 -0.1240075E+01 -0.6107126E-01  0.1778789E+00
  0.1523320E+02  0.1500340E+01 -0.1027320E+00  0.1853184E+00 -0.1236678E+01 -0.6077262E-01  0.1750703E+00
  0.1501280E+02  0.2986230E+01 -0.1027320E+00  0.1818294E+00 -0.1235783E+01 -0.5978225E-01  0.1717207E+00
  0.1464780E+02  0.4443360E+01 -0.1027320E+00  0.1775358E+00 -0.1237658E+01 -0.5805609E-01  0.1677750E+00
  0.1414170E+02  0.5857700E+01 -0.1027320E+00  0.1724300E+00 -0.1243295E+01 -0.5546692E-01  0.1632652E+00
  0.1349950E+02  0.7215620E+01 -0.1027320E+00  0.1666329E+00 -0.1252828E+01 -0.5209573E-01  0.1582800E+00
  0.1272720E+02  0.8504060E+01 -0.1027320E+00  0.1612534E+00 -0.1264835E+01 -0.4857115E-01  0.1537645E+00
  0.1183240E+02  0.9710600E+01 -0.1027320E+00  0.1556960E+00 -0.1279630E+01 -0.4469566E-01  0.1491427E+00
  0.1082360E+02  0.1082360E+02 -0.1027320E+00  0.1493074E+00 -0.1298685E+01 -0.4012871E-01  0.1438137E+00
  0.9710590E+01  0.1183240E+02 -0.1027320E+00  0.1409761E+00 -0.1324607E+01 -0.3435726E-01  0.1367254E+00
  0.8504060E+01  0.1272720E+02 -0.1027320E+00  0.1324644E+00 -0.1354839E+01 -0.2838484E-01  0.1293875E+00
  0.7215620E+01  0.1349950E+02 -0.1027320E+00  0.1205659E+00 -0.1399045E+01 -0.2060567E-01  0.1187920E+00
  0.5857700E+01  0.1414170E+02 -0.1027320E+00  0.1065035E+00 -0.1460887E+01 -0.1168216E-01  0.1058609E+00
  0.4443360E+01  0.1464780E+02 -0.1027320E+00  0.8726593E-01 -0.1575375E+01  0.3995253E-03  0.8726501E-01
  0.2986230E+01  0.1501280E+02 -0.1027320E+00  0.5710322E-01 -0.1953888E+01  0.2134461E-01  0.5296401E-01
  0.1500340E+01  0.1523320E+02 -0.1027320E+00  0.9304191E-01  0.2635309E+01  0.8137004E-01 -0.4511888E-01
 -0.6690860E-06  0.1530690E+02 -0.1027320E+00  0.1389673E+00  0.2455846E+01  0.1075532E+00 -0.8800120E-01
 -0.1500340E+01  0.1523320E+02 -0.1027320E+00  0.1612417E+00  0.2396531E+01  0.1185201E+00 -0.1093246E+00
 -0.2986230E+01  0.1501280E+02 -0.1027320E+00  0.1523220E+00  0.2359366E+01  0.1080489E+00 -0.1073658E+00
 -0.4443360E+01  0.1464780E+02 -0.1027320E+00  0.1421944E+00  0.2349243E+01  0.9984526E-01 -0.1012432E+00
 -0.5857700E+01  0.1414170E+02 -0.1027320E+00  0.1351453E+00  0.2346032E+01  0.9458604E-01 -0.9652837E-01
 -0.7215620E+01  0.1349950E+02 -0.1027320E+00  0.1304248E+00  0.2343781E+01  0.9107238E-01 -0.9336188E-01
 -0.8504060E+01  0.1272720E+02 -0.1027320E+00  0.1265081E+00  0.2342801E+01  0.8824860E-01 -0.9064484E-01
 -0.9710590E+01  0.1183240E+02 -0.1027320E+00  0.1219848E+00  0.2345340E+01  0.8531501E-01 -0.8718743E-01
 -0.1082360E+02  0.1082360E+02 -0.1027320E+00  0.1177876E+00  0.2347525E+01  0.8256323E-01 -0.8400730E-01
 -0.1183240E+02  0.9710590E+01 -0.1027320E+00  0.1138913E+00  0.2349720E+01  0.8001020E-01 -0.8105307E-01
 -0.1272720E+02  0.8504060E+01 -0.1027320E+00  0.1103794E+00  0.2350695E+01  0.7761959E-01 -0.7847805E-01
 -0.1349950E+02  0.7215620E+01 -0.1027320E+00  0.1068184E+00  0.2351353E+01  0.7516544E-01 -0.7589681E-01
 -0.1414170E+02  0.5857690E+01 -0.1027320E+00  0.1033208E+00  0.2350533E+01  0.7264401E-01 -0.7347133E-01
 -0.1464780E+02  0.4443360E+01 -0.1027320E+00  0.9991041E-01  0.2348858E+01  0.7012711E-01 -0.7116374E-01
 -0.1501280E+02  0.2986230E+01 -0.1027320E+00  0.9633590E-01  0.2347262E+01  0.6750855E-01 -0.6872554E-01
 -0.1523320E+02  0.1500340E+01 -0.1027320E+00  0.9256955E-01  0.2342504E+01  0.6455431E-01 -0.6634653E-01
 -0.1530690E+02 -0.1338170E-05 -0.1027320E+00  0.8853041E-01  0.2335904E+01  0.6131744E-01 -0.6385769E-01
 -0.1523320E+02 -0.1500340E+01 -0.1027320E+00  0.8418825E-01  0.2329219E+01  0.5790278E-01 -0.6111406E-01
 -0.1501280E+02 -0.2986230E+01 -0.1027320E+00  0.7938600E-01  0.2325744E+01  0.5439930E-01 -0.5781741E-01
 -0.1464780E+02 -0.4443360E+01 -0.1027320E+00  0.7415161E-01  0.2327439E+01  0.5090391E-01 -0.5391895E-01
 -0.1414170E+02 -0.5857700E+01 -0.1027320E+00  0.6861777E-01  0.2336285E+01  0.4754452E-01 -0.4947643E-01
 -0.1349950E+02 -0.7215620E+01 -0.1027320E+00  0.6288111E-01  0.2353631E+01  0.4434955E-01 -0.4457748E-01
 -0.1272720E+02 -0.8504060E+01 -0.1027320E+00  0.5731717E-01  0.2365957E+01  0.4092311E-01 -0.4013175E-01
 -0.1183240E+02 -0.9710600E+01 -0.1027320E+00  0.5160565E-01  0.2381071E+01  0.3738708E-01 -0.3557174E-01
 -0.1082360E+02 -0.1082360E+02 -0.1027320E+00  0.4558641E-01  0.2414220E+01  0.3404957E-01 -0.3031085E-01
 -0.9710600E+01 -0.1183240E+02 -0.1027320E+00  0.3900464E-01  0.2500432E+01  0.3125840E-01 -0.2332969E-01
 -0.8504050E+01 -0.1272720E+02 -0.1027320E+00  0.3270975E-01  0.2625952E+01  0.2845673E-01 -0.1612893E-01
 -0.7215620E+01 -0.1349950E+02 -0.1027320E+00  0.2707982E-01  0.2928454E+01  0.2646705E-01 -0.5728161E-02
 -0.5857690E+01 -0.1414170E+02 -0.1027320E+00  0.2608492E-01 -0.2872347E+01  0.2514512E-01  0.6938713E-02
 -0.4443360E+01 -0.1464780E+02 -0.1027320E+00  0.3614897E-01 -0.2373617E+01  0.2600263E-01  0.2511197E-01
 -0.2986230E+01 -0.1501280E+02 -0.1027320E+00  0.6708267E-01 -0.2077368E+01  0.3254731E-01  0.5865797E-01
 -0.1500340E+01 -0.1523320E+02 -0.1027320E+00  0.1673433E+00 -0.1955656E+01  0.6282556E-01  0.1551023E+00
  0.1825330E-06 -0.1530690E+02 -0.1027320E+00  0.2090565E+00 -0.1901222E+01  0.6782751E-01  0.1977474E+00
  0.1500340E+01 -0.1523320E+02 -0.1027320E+00  0.2273988E+00 -0.1833618E+01  0.5907959E-01  0.2195901E+00
  0.2986230E+01 -0.1501280E+02 -0.1027320E+00  0.2210239E+00 -0.1684915E+01  0.2516824E-01  0.2195863E+00
  0.4443360E+01 -0.1464780E+02 -0.1027320E+00  0.2144555E+00 -0.1599804E+01  0.6220079E-02  0.2143653E+00
  0.5857700E+01 -0.1414170E+02 -0.1027320E+00  0.2102999E+00 -0.1537962E+01 -0.6903859E-02  0.2101866E+00
  0.7215620E+01 -0.1349950E+02 -0.1027320E+00  0.2080786E+00 -0.1488509E+01 -0.1710284E-01  0.2073745E+00
  0.8504060E+01 -0.1272720E+02 -0.1027320E+00  0.2065229E+00 -0.1445912E+01 -0.2572440E-01  0.2049145E+00
  0.9710600E+01 -0.1183240E+02 -0.1027320E+00  0.2043216E+00 -0.1408172E+01 -0.3308135E-01  0.2016257E+00
  0.1082360E+02 -0.1082360E+02 -0.1027320E+00  0.2024680E+00 -0.1373932E+01 -0.3960184E-01  0.1985573E+00
  0.1183240E+02 -0.9710590E+01 -0.1027320E+00  0.2007265E+00 -0.1345053E+01 -0.4492885E-01  0.1956336E+00
  0.1272720E+02 -0.8504060E+01 -0.1027320E+00  0.1992280E+00 -0.1320811E+01 -0.4928697E-01  0.1930352E+00
