 VARIABLES="X" "Y" "Z" "abs(eta) (m)" "angle(phi) (rad)" "PRE1" "PRE2"
ZONE N=   3200 ,E =    3136 ,F=FEPOINT,ET=QUADRILATERAL
  0.1530690E+02  0.0000000E+00  0.0000000E+00  0.3365961E-01 -0.1896560E+01  0.1077217E-01  0.3188934E-01
  0.1523320E+02  0.1500340E+01  0.0000000E+00  0.3164221E-01 -0.1936154E+01  0.1130523E-01  0.2955369E-01
  0.1501280E+02  0.2986230E+01  0.0000000E+00  0.2976775E-01 -0.1982558E+01  0.1191378E-01  0.2727968E-01
  0.1464780E+02  0.4443360E+01  0.0000000E+00  0.2801275E-01 -0.2039931E+01  0.1266497E-01  0.2498626E-01
  0.1414170E+02  0.5857700E+01  0.0000000E+00  0.2630887E-01 -0.2113776E+01  0.1359352E-01  0.2252494E-01
  0.1349950E+02  0.7215620E+01  0.0000000E+00  0.2468425E-01 -0.2209718E+01  0.1471995E-01  0.1981502E-01
  0.1272720E+02  0.8504060E+01  0.0000000E+00  0.2325614E-01 -0.2331738E+01  0.1603753E-01  0.1684179E-01
  0.1183240E+02  0.9710600E+01  0.0000000E+00  0.2227086E-01 -0.2465968E+01  0.1737831E-01  0.1392786E-01
  0.1082360E+02  0.1082360E+02  0.0000000E+00  0.2173846E-01 -0.2617230E+01  0.1881775E-01  0.1088361E-01
  0.9710590E+01  0.1183240E+02  0.0000000E+00  0.2182144E-01 -0.2811001E+01  0.2063982E-01  0.7083291E-02
  0.8504060E+01  0.1272720E+02  0.0000000E+00  0.2286750E-01 -0.3018420E+01  0.2269425E-01  0.2809547E-02
  0.7215620E+01  0.1349950E+02  0.0000000E+00  0.2528749E-01  0.3047946E+01  0.2517669E-01 -0.2364628E-02
  0.5857700E+01  0.1414170E+02  0.0000000E+00  0.2940311E-01  0.2846535E+01  0.2813247E-01 -0.8550278E-02
  0.4443360E+01  0.1464780E+02  0.0000000E+00  0.3697382E-01  0.2643106E+01  0.3247437E-01 -0.1767707E-01
  0.2986230E+01  0.1501280E+02  0.0000000E+00  0.5256910E-01  0.2440729E+01  0.4017781E-01 -0.3390065E-01
  0.1500340E+01  0.1523320E+02  0.0000000E+00  0.9412957E-01  0.2248155E+01  0.5899447E-01 -0.7334868E-01
 -0.6690860E-06  0.1530690E+02  0.0000000E+00  0.1035845E+00  0.2226642E+01  0.6316891E-01 -0.8209411E-01
 -0.1500340E+01  0.1523320E+02  0.0000000E+00  0.9412993E-01  0.2248154E+01  0.5899461E-01 -0.7334903E-01
 -0.2986230E+01  0.1501280E+02  0.0000000E+00  0.5256919E-01  0.2440729E+01  0.4017787E-01 -0.3390071E-01
 -0.4443360E+01  0.1464780E+02  0.0000000E+00  0.3697389E-01  0.2643107E+01  0.3247445E-01 -0.1767706E-01
 -0.5857700E+01  0.1414170E+02  0.0000000E+00  0.2940323E-01  0.2846533E+01  0.2813256E-01 -0.8550381E-02
 -0.7215620E+01  0.1349950E+02  0.0000000E+00  0.2528758E-01  0.3047944E+01  0.2517677E-01 -0.2364686E-02
 -0.8504060E+01  0.1272720E+02  0.0000000E+00  0.2286755E-01 -0.3018422E+01  0.2269431E-01  0.2809487E-02
 -0.9710590E+01  0.1183240E+02  0.0000000E+00  0.2182136E-01 -0.2811005E+01  0.2063977E-01  0.7083188E-02
 -0.1082360E+02  0.1082360E+02  0.0000000E+00  0.2173847E-01 -0.2617236E+01  0.1881782E-01  0.1088351E-01
 -0.1183240E+02  0.9710590E+01  0.0000000E+00  0.2227081E-01 -0.2465966E+01  0.1737826E-01  0.1392785E-01
 -0.1272720E+02  0.8504060E+01  0.0000000E+00  0.2325612E-01 -0.2331742E+01  0.1603758E-01  0.1684171E-01
 -0.1349950E+02  0.7215620E+01  0.0000000E+00  0.2468428E-01 -0.2209717E+01  0.1471997E-01  0.1981506E-01
 -0.1414170E+02  0.5857690E+01  0.0000000E+00  0.2630890E-01 -0.2113778E+01  0.1359358E-01  0.2252494E-01
 -0.1464780E+02  0.4443360E+01  0.0000000E+00  0.2801277E-01 -0.2039933E+01  0.1266505E-01  0.2498624E-01
 -0.1501280E+02  0.2986230E+01  0.0000000E+00  0.2976780E-01 -0.1982559E+01  0.1191382E-01  0.2727972E-01
 -0.1523320E+02  0.1500340E+01  0.0000000E+00  0.3164219E-01 -0.1936156E+01  0.1130530E-01  0.2955365E-01
 -0.1530690E+02 -0.1338170E-05  0.0000000E+00  0.3365957E-01 -0.1896562E+01  0.1077221E-01  0.3188928E-01
 -0.1523320E+02 -0.1500340E+01  0.0000000E+00  0.3571415E-01 -0.1860213E+01  0.1019256E-01  0.3422882E-01
 -0.1501280E+02 -0.2986230E+01  0.0000000E+00  0.3777256E-01 -0.1830395E+01  0.9695936E-02  0.3650692E-01
 -0.1464780E+02 -0.4443360E+01  0.0000000E+00  0.3991335E-01 -0.1807477E+01  0.9358753E-02  0.3880063E-01
 -0.1414170E+02 -0.5857700E+01  0.0000000E+00  0.4227444E-01 -0.1790794E+01  0.9225454E-02  0.4125553E-01
 -0.1349950E+02 -0.7215620E+01  0.0000000E+00  0.4492949E-01 -0.1779847E+01  0.9324256E-02  0.4395131E-01
 -0.1272720E+02 -0.8504060E+01  0.0000000E+00  0.4788619E-01 -0.1773855E+01  0.9657034E-02  0.4690233E-01
 -0.1183240E+02 -0.9710600E+01  0.0000000E+00  0.5079827E-01 -0.1770354E+01  0.1007003E-01  0.4979015E-01
 -0.1082360E+02 -0.1082360E+02  0.0000000E+00  0.5386395E-01 -0.1769696E+01  0.1064302E-01  0.5280200E-01
 -0.9710600E+01 -0.1183240E+02  0.0000000E+00  0.5774553E-01 -0.1773998E+01  0.1165343E-01  0.5655744E-01
 -0.8504050E+01 -0.1272720E+02  0.0000000E+00  0.6214214E-01 -0.1780996E+01  0.1296631E-01  0.6077434E-01
 -0.7215620E+01 -0.1349950E+02  0.0000000E+00  0.6750940E-01 -0.1791397E+01  0.1477215E-01  0.6587338E-01
 -0.5857690E+01 -0.1414170E+02  0.0000000E+00  0.7397242E-01 -0.1804343E+01  0.1711938E-01  0.7196420E-01
 -0.4443360E+01 -0.1464780E+02  0.0000000E+00  0.8360215E-01 -0.1823205E+01  0.2087853E-01  0.8095311E-01
 -0.2986230E+01 -0.1501280E+02  0.0000000E+00  0.1008861E+00 -0.1851276E+01  0.2792693E-01  0.9694371E-01
 -0.1500340E+01 -0.1523320E+02  0.0000000E+00  0.1433581E+00 -0.1894649E+01  0.4561956E-01  0.1359059E+00
  0.1825330E-06 -0.1530690E+02  0.0000000E+00  0.1527940E+00 -0.1900899E+01  0.4952665E-01  0.1445445E+00
  0.1500340E+01 -0.1523320E+02  0.0000000E+00  0.1433581E+00 -0.1894648E+01  0.4561951E-01  0.1359059E+00
  0.2986230E+01 -0.1501280E+02  0.0000000E+00  0.1008861E+00 -0.1851275E+01  0.2792688E-01  0.9694373E-01
  0.4443360E+01 -0.1464780E+02  0.0000000E+00  0.8360223E-01 -0.1823204E+01  0.2087849E-01  0.8095321E-01
  0.5857700E+01 -0.1414170E+02  0.0000000E+00  0.7397246E-01 -0.1804343E+01  0.1711936E-01  0.7196425E-01
  0.7215620E+01 -0.1349950E+02  0.0000000E+00  0.6750941E-01 -0.1791398E+01  0.1477218E-01  0.6587338E-01
  0.8504060E+01 -0.1272720E+02  0.0000000E+00  0.6214212E-01 -0.1780996E+01  0.1296625E-01  0.6077433E-01
  0.9710600E+01 -0.1183240E+02  0.0000000E+00  0.5774555E-01 -0.1773998E+01  0.1165340E-01  0.5655747E-01
  0.1082360E+02 -0.1082360E+02  0.0000000E+00  0.5386396E-01 -0.1769696E+01  0.1064301E-01  0.5280201E-01
  0.1183240E+02 -0.9710590E+01  0.0000000E+00  0.5079826E-01 -0.1770354E+01  0.1007005E-01  0.4979013E-01
  0.1272720E+02 -0.8504060E+01  0.0000000E+00  0.4788621E-01 -0.1773855E+01  0.9657028E-02  0.4690235E-01
  0.1349950E+02 -0.7215620E+01  0.0000000E+00  0.4492950E-01 -0.1779846E+01  0.9324216E-02  0.4395133E-01
  0.1414170E+02 -0.5857700E+01  0.0000000E+00  0.4227445E-01 -0.1790793E+01  0.9225387E-02  0.4125556E-01
  0.1464780E+02 -0.4443350E+01  0.0000000E+00  0.3991331E-01 -0.1807476E+01  0.9358703E-02  0.3880061E-01
  0.1501280E+02 -0.2986230E+01  0.0000000E+00  0.3777261E-01 -0.1830393E+01  0.9695896E-02  0.3650698E-01
  0.1523320E+02 -0.1500330E+01  0.0000000E+00  0.3571421E-01 -0.1860212E+01  0.1019257E-01  0.3422888E-01
  0.1530690E+02  0.0000000E+00 -0.2568960E-01  0.3363507E-01 -0.1896559E+01  0.1076430E-01  0.3186609E-01
  0.1523320E+02  0.1500340E+01 -0.2568960E-01  0.3161938E-01 -0.1936161E+01  0.1129729E-01  0.2953229E-01
  0.1501280E+02  0.2986230E+01 -0.2568960E-01  0.2974642E-01 -0.1982585E+01  0.1190597E-01  0.2725981E-01
  0.1464780E+02  0.4443360E+01 -0.2568960E-01  0.2799262E-01 -0.2039979E+01  0.1265708E-01  0.2496768E-01
  0.1414170E+02  0.5857700E+01 -0.2568960E-01  0.2629022E-01 -0.2113831E+01  0.1358512E-01  0.2250823E-01
  0.1349950E+02  0.7215620E+01 -0.2568960E-01  0.2466745E-01 -0.2209744E+01  0.1471045E-01  0.1980115E-01
  0.1272720E+02  0.8504060E+01 -0.2568960E-01  0.2324097E-01 -0.2331702E+01  0.1602645E-01  0.1683139E-01
  0.1183240E+02  0.9710600E+01 -0.2568960E-01  0.2225602E-01 -0.2465952E+01  0.1736652E-01  0.1391885E-01
  0.1082360E+02  0.1082360E+02 -0.2568960E-01  0.2172379E-01 -0.2617315E+01  0.1880597E-01  0.1087467E-01
  0.9710590E+01  0.1183240E+02 -0.2568960E-01  0.2180659E-01 -0.2810983E+01  0.2062565E-01  0.7078849E-02
  0.8504060E+01  0.1272720E+02 -0.2568960E-01  0.2285205E-01 -0.3018432E+01  0.2267896E-01  0.2807361E-02
  0.7215620E+01  0.1349950E+02 -0.2568960E-01  0.2526904E-01  0.3048024E+01  0.2515851E-01 -0.2360933E-02
  0.5857700E+01  0.1414170E+02 -0.2568960E-01  0.2938651E-01  0.2846403E+01  0.2811545E-01 -0.8549163E-02
  0.4443360E+01  0.1464780E+02 -0.2568960E-01  0.3694994E-01  0.2643076E+01  0.3245286E-01 -0.1766664E-01
  0.2986230E+01  0.1501280E+02 -0.2568960E-01  0.5254642E-01  0.2440613E+01  0.4015653E-01 -0.3389069E-01
  0.1500340E+01  0.1523320E+02 -0.2568960E-01  0.9405931E-01  0.2248168E+01  0.5895136E-01 -0.7329318E-01
 -0.6690860E-06  0.1530690E+02 -0.2568960E-01  0.1035092E+00  0.2226649E+01  0.6312355E-01 -0.8203395E-01
 -0.1500340E+01  0.1523320E+02 -0.2568960E-01  0.9405947E-01  0.2248167E+01  0.5895142E-01 -0.7329334E-01
 -0.2986230E+01  0.1501280E+02 -0.2568960E-01  0.5254661E-01  0.2440609E+01  0.4015653E-01 -0.3389100E-01
 -0.4443360E+01  0.1464780E+02 -0.2568960E-01  0.3695020E-01  0.2643074E+01  0.3245306E-01 -0.1766682E-01
 -0.5857700E+01  0.1414170E+02 -0.2568960E-01  0.2938664E-01  0.2846400E+01  0.2811555E-01 -0.8549289E-02
 -0.7215620E+01  0.1349950E+02 -0.2568960E-01  0.2526915E-01  0.3048025E+01  0.2515862E-01 -0.2360916E-02
 -0.8504060E+01  0.1272720E+02 -0.2568960E-01  0.2285222E-01 -0.3018435E+01  0.2267913E-01  0.2807320E-02
 -0.9710590E+01  0.1183240E+02 -0.2568960E-01  0.2180673E-01 -0.2810989E+01  0.2062582E-01  0.7078765E-02
 -0.1082360E+02  0.1082360E+02 -0.2568960E-01  0.2172376E-01 -0.2617316E+01  0.1880596E-01  0.1087463E-01
 -0.1183240E+02  0.9710590E+01 -0.2568960E-01  0.2225594E-01 -0.2465954E+01  0.1736648E-01  0.1391878E-01
 -0.1272720E+02  0.8504060E+01 -0.2568960E-01  0.2324096E-01 -0.2331700E+01  0.1602641E-01  0.1683142E-01
 -0.1349950E+02  0.7215620E+01 -0.2568960E-01  0.2466743E-01 -0.2209743E+01  0.1471043E-01  0.1980114E-01
 -0.1414170E+02  0.5857690E+01 -0.2568960E-01  0.2629019E-01 -0.2113831E+01  0.1358510E-01  0.2250821E-01
 -0.1464780E+02  0.4443360E+01 -0.2568960E-01  0.2799261E-01 -0.2039983E+01  0.1265716E-01  0.2496763E-01
 -0.1501280E+02  0.2986230E+01 -0.2568960E-01  0.2974640E-01 -0.1982587E+01  0.1190603E-01  0.2725977E-01
 -0.1523320E+02  0.1500340E+01 -0.2568960E-01  0.3161940E-01 -0.1936163E+01  0.1129734E-01  0.2953230E-01
 -0.1530690E+02 -0.1338170E-05 -0.2568960E-01  0.3363503E-01 -0.1896562E+01  0.1076436E-01  0.3186603E-01
 -0.1523320E+02 -0.1500340E+01 -0.2568960E-01  0.3568799E-01 -0.1860223E+01  0.1018546E-01  0.3420364E-01
 -0.1501280E+02 -0.2986230E+01 -0.2568960E-01  0.3774529E-01 -0.1830417E+01  0.9689748E-02  0.3648035E-01
 -0.1464780E+02 -0.4443360E+01 -0.2568960E-01  0.3988487E-01 -0.1807507E+01  0.9353270E-02  0.3877266E-01
 -0.1414170E+02 -0.5857700E+01 -0.2568960E-01  0.4224418E-01 -0.1790825E+01  0.9220116E-02  0.4122572E-01
 -0.1349950E+02 -0.7215620E+01 -0.2568960E-01  0.4489645E-01 -0.1779875E+01  0.9318638E-02  0.4391872E-01
 -0.1272720E+02 -0.8504060E+01 -0.2568960E-01  0.4784947E-01 -0.1773874E+01  0.9650487E-02  0.4686619E-01
 -0.1183240E+02 -0.9710600E+01 -0.2568960E-01  0.5076028E-01 -0.1770376E+01  0.1006362E-01  0.4975268E-01
 -0.1082360E+02 -0.1082360E+02 -0.2568960E-01  0.5382594E-01 -0.1769725E+01  0.1063703E-01  0.5276443E-01
 -0.9710600E+01 -0.1183240E+02 -0.2568960E-01  0.5770292E-01 -0.1774016E+01  0.1164585E-01  0.5651550E-01
 -0.8504050E+01 -0.1272720E+02 -0.2568960E-01  0.6209713E-01 -0.1781015E+01  0.1295806E-01  0.6073008E-01
 -0.7215620E+01 -0.1349950E+02 -0.2568960E-01  0.6745819E-01 -0.1791406E+01  0.1476153E-01  0.6582329E-01
 -0.5857690E+01 -0.1414170E+02 -0.2568960E-01  0.7392423E-01 -0.1804370E+01  0.1711016E-01  0.7191686E-01
 -0.4443360E+01 -0.1464780E+02 -0.2568960E-01  0.8354406E-01 -0.1823220E+01  0.2086524E-01  0.8089655E-01
 -0.2986230E+01 -0.1501280E+02 -0.2568960E-01  0.1008286E+00 -0.1851306E+01  0.2791394E-01  0.9688762E-01
 -0.1500340E+01 -0.1523320E+02 -0.2568960E-01  0.1432515E+00 -0.1894651E+01  0.4558595E-01  0.1358047E+00
  0.1825330E-06 -0.1530690E+02 -0.2568960E-01  0.1526825E+00 -0.1900903E+01  0.4949104E-01  0.1444388E+00
  0.1500340E+01 -0.1523320E+02 -0.2568960E-01  0.1432515E+00 -0.1894651E+01  0.4558592E-01  0.1358047E+00
  0.2986230E+01 -0.1501280E+02 -0.2568960E-01  0.1008285E+00 -0.1851306E+01  0.2791392E-01  0.9688760E-01
  0.4443360E+01 -0.1464780E+02 -0.2568960E-01  0.8354400E-01 -0.1823220E+01  0.2086522E-01  0.8089650E-01
  0.5857700E+01 -0.1414170E+02 -0.2568960E-01  0.7392411E-01 -0.1804369E+01  0.1711011E-01  0.7191674E-01
  0.7215620E+01 -0.1349950E+02 -0.2568960E-01  0.6745823E-01 -0.1791405E+01  0.1476148E-01  0.6582334E-01
  0.8504060E+01 -0.1272720E+02 -0.2568960E-01  0.6209715E-01 -0.1781014E+01  0.1295799E-01  0.6073012E-01
  0.9710600E+01 -0.1183240E+02 -0.2568960E-01  0.5770287E-01 -0.1774016E+01  0.1164582E-01  0.5651545E-01
  0.1082360E+02 -0.1082360E+02 -0.2568960E-01  0.5382597E-01 -0.1769724E+01  0.1063700E-01  0.5276447E-01
  0.1183240E+02 -0.9710590E+01 -0.2568960E-01  0.5076022E-01 -0.1770375E+01  0.1006357E-01  0.4975264E-01
  0.1272720E+02 -0.8504060E+01 -0.2568960E-01  0.4784942E-01 -0.1773874E+01  0.9650479E-02  0.4686614E-01
  0.1349950E+02 -0.7215620E+01 -0.2568960E-01  0.4489642E-01 -0.1779873E+01  0.9318547E-02  0.4391871E-01
  0.1414170E+02 -0.5857700E+01 -0.2568960E-01  0.4224419E-01 -0.1790825E+01  0.9220137E-02  0.4122573E-01
  0.1464780E+02 -0.4443350E+01 -0.2568960E-01  0.3988483E-01 -0.1807506E+01  0.9353222E-02  0.3877263E-01
  0.1501280E+02 -0.2986230E+01 -0.2568960E-01  0.3774531E-01 -0.1830417E+01  0.9689730E-02  0.3648037E-01
  0.1523320E+02 -0.1500330E+01 -0.2568960E-01  0.3568806E-01 -0.1860224E+01  0.1018550E-01  0.3420370E-01
  0.1530690E+02  0.0000000E+00 -0.1027320E+00  0.3356121E-01 -0.1896525E+01  0.1073958E-01  0.3179649E-01
  0.1523320E+02  0.1500340E+01 -0.1027320E+00  0.3155071E-01 -0.1936157E+01  0.1127265E-01  0.2946820E-01
  0.1501280E+02  0.2986230E+01 -0.1027320E+00  0.2968184E-01 -0.1982643E+01  0.1188172E-01  0.2719993E-01
  0.1464780E+02  0.4443360E+01 -0.1027320E+00  0.2793142E-01 -0.2040108E+01  0.1263262E-01  0.2491147E-01
  0.1414170E+02  0.5857700E+01 -0.1027320E+00  0.2623328E-01 -0.2113981E+01  0.1355906E-01  0.2245744E-01
  0.1349950E+02  0.7215620E+01 -0.1027320E+00  0.2461577E-01 -0.2209816E+01  0.1468106E-01  0.1975861E-01
  0.1272720E+02  0.8504060E+01 -0.1027320E+00  0.2319439E-01 -0.2331588E+01  0.1599241E-01  0.1679948E-01
  0.1183240E+02  0.9710600E+01 -0.1027320E+00  0.2221050E-01 -0.2465932E+01  0.1733072E-01  0.1389073E-01
  0.1082360E+02  0.1082360E+02 -0.1027320E+00  0.2167869E-01 -0.2617589E+01  0.1876990E-01  0.1084695E-01
  0.9710590E+01  0.1183240E+02 -0.1027320E+00  0.2176170E-01 -0.2810977E+01  0.2058315E-01  0.7064397E-02
  0.8504060E+01  0.1272720E+02 -0.1027320E+00  0.2280534E-01 -0.3018517E+01  0.2263284E-01  0.2799697E-02
  0.7215620E+01  0.1349950E+02 -0.1027320E+00  0.2521513E-01  0.3048104E+01  0.2510502E-01 -0.2353895E-02
  0.5857700E+01  0.1414170E+02 -0.1027320E+00  0.2933743E-01  0.2845930E+01  0.2806446E-01 -0.8548160E-02
  0.4443360E+01  0.1464780E+02 -0.1027320E+00  0.3687810E-01  0.2642950E+01  0.3238754E-01 -0.1763637E-01
  0.2986230E+01  0.1501280E+02 -0.1027320E+00  0.5247865E-01  0.2440234E+01  0.4009191E-01 -0.3386218E-01
  0.1500340E+01  0.1523320E+02 -0.1027320E+00  0.9382891E-01  0.2248242E+01  0.5881239E-01 -0.7310928E-01
 -0.6690860E-06  0.1530690E+02 -0.1027320E+00  0.1032998E+00  0.2226623E+01  0.6299374E-01 -0.8186968E-01
 -0.1500340E+01  0.1523320E+02 -0.1027320E+00  0.9382909E-01  0.2248242E+01  0.5881249E-01 -0.7310943E-01
 -0.2986230E+01  0.1501280E+02 -0.1027320E+00  0.5247876E-01  0.2440230E+01  0.4009188E-01 -0.3386240E-01
 -0.4443360E+01  0.1464780E+02 -0.1027320E+00  0.3687828E-01  0.2642949E+01  0.3238770E-01 -0.1763647E-01
 -0.5857700E+01  0.1414170E+02 -0.1027320E+00  0.2933758E-01  0.2845926E+01  0.2806456E-01 -0.8548330E-02
 -0.7215620E+01  0.1349950E+02 -0.1027320E+00  0.2521525E-01  0.3048105E+01  0.2510514E-01 -0.2353888E-02
 -0.8504060E+01  0.1272720E+02 -0.1027320E+00  0.2280537E-01 -0.3018520E+01  0.2263288E-01  0.2799643E-02
 -0.9710590E+01  0.1183240E+02 -0.1027320E+00  0.2176153E-01 -0.2810980E+01  0.2058301E-01  0.7064293E-02
 -0.1082360E+02  0.1082360E+02 -0.1027320E+00  0.2167872E-01 -0.2617592E+01  0.1876997E-01  0.1084690E-01
 -0.1183240E+02  0.9710590E+01 -0.1027320E+00  0.2221059E-01 -0.2465934E+01  0.1733082E-01  0.1389075E-01
 -0.1272720E+02  0.8504060E+01 -0.1027320E+00  0.2319434E-01 -0.2331587E+01  0.1599236E-01  0.1679946E-01
 -0.1349950E+02  0.7215620E+01 -0.1027320E+00  0.2461578E-01 -0.2209816E+01  0.1468107E-01  0.1975861E-01
 -0.1414170E+02  0.5857690E+01 -0.1027320E+00  0.2623327E-01 -0.2113981E+01  0.1355906E-01  0.2245743E-01
 -0.1464780E+02  0.4443360E+01 -0.1027320E+00  0.2793142E-01 -0.2040110E+01  0.1263267E-01  0.2491144E-01
 -0.1501280E+02  0.2986230E+01 -0.1027320E+00  0.2968181E-01 -0.1982646E+01  0.1188178E-01  0.2719988E-01
 -0.1523320E+02  0.1500340E+01 -0.1027320E+00  0.3155073E-01 -0.1936157E+01  0.1127265E-01  0.2946822E-01
 -0.1530690E+02 -0.1338170E-05 -0.1027320E+00  0.3356116E-01 -0.1896525E+01  0.1073955E-01  0.3179644E-01
 -0.1523320E+02 -0.1500340E+01 -0.1027320E+00  0.3560964E-01 -0.1860225E+01  0.1016316E-01  0.3412853E-01
 -0.1501280E+02 -0.2986230E+01 -0.1027320E+00  0.3766359E-01 -0.1830457E+01  0.9670229E-02  0.3640100E-01
 -0.1464780E+02 -0.4443360E+01 -0.1027320E+00  0.3979998E-01 -0.1807570E+01  0.9335783E-02  0.3868955E-01
 -0.1414170E+02 -0.5857700E+01 -0.1027320E+00  0.4215410E-01 -0.1790897E+01  0.9203422E-02  0.4113716E-01
 -0.1349950E+02 -0.7215620E+01 -0.1027320E+00  0.4479801E-01 -0.1779937E+01  0.9300915E-02  0.4382185E-01
 -0.1272720E+02 -0.8504060E+01 -0.1027320E+00  0.4774029E-01 -0.1773914E+01  0.9630338E-02  0.4675887E-01
 -0.1183240E+02 -0.9710600E+01 -0.1027320E+00  0.5064739E-01 -0.1770424E+01  0.1004361E-01  0.4964155E-01
 -0.1082360E+02 -0.1082360E+02 -0.1027320E+00  0.5371306E-01 -0.1769795E+01  0.1061842E-01  0.5265303E-01
 -0.9710600E+01 -0.1183240E+02 -0.1027320E+00  0.5757618E-01 -0.1774058E+01  0.1162261E-01  0.5639088E-01
 -0.8504050E+01 -0.1272720E+02 -0.1027320E+00  0.6196347E-01 -0.1781058E+01  0.1293275E-01  0.6059881E-01
 -0.7215620E+01 -0.1349950E+02 -0.1027320E+00  0.6730917E-01 -0.1791429E+01  0.1473043E-01  0.6567754E-01
 -0.5857690E+01 -0.1414170E+02 -0.1027320E+00  0.7378184E-01 -0.1804443E+01  0.1708248E-01  0.7177708E-01
 -0.4443360E+01 -0.1464780E+02 -0.1027320E+00  0.8337059E-01 -0.1823254E+01  0.2082471E-01  0.8072785E-01
 -0.2986230E+01 -0.1501280E+02 -0.1027320E+00  0.1006574E+00 -0.1851389E+01  0.2787461E-01  0.9672085E-01
 -0.1500340E+01 -0.1523320E+02 -0.1027320E+00  0.1429130E+00 -0.1894638E+01  0.4547644E-01  0.1354844E+00
  0.1825330E-06 -0.1530690E+02 -0.1027320E+00  0.1523651E+00 -0.1900918E+01  0.4939042E-01  0.1441379E+00
  0.1500340E+01 -0.1523320E+02 -0.1027320E+00  0.1429129E+00 -0.1894638E+01  0.4547642E-01  0.1354842E+00
  0.2986230E+01 -0.1501280E+02 -0.1027320E+00  0.1006575E+00 -0.1851389E+01  0.2787456E-01  0.9672092E-01
  0.4443360E+01 -0.1464780E+02 -0.1027320E+00  0.8337064E-01 -0.1823254E+01  0.2082470E-01  0.8072791E-01
  0.5857700E+01 -0.1414170E+02 -0.1027320E+00  0.7378187E-01 -0.1804442E+01  0.1708242E-01  0.7177712E-01
  0.7215620E+01 -0.1349950E+02 -0.1027320E+00  0.6730919E-01 -0.1791429E+01  0.1473039E-01  0.6567756E-01
  0.8504060E+01 -0.1272720E+02 -0.1027320E+00  0.6196351E-01 -0.1781057E+01  0.1293268E-01  0.6059886E-01
  0.9710600E+01 -0.1183240E+02 -0.1027320E+00  0.5757626E-01 -0.1774056E+01  0.1162253E-01  0.5639098E-01
  0.1082360E+02 -0.1082360E+02 -0.1027320E+00  0.5371305E-01 -0.1769796E+01  0.1061847E-01  0.5265301E-01
  0.1183240E+02 -0.9710590E+01 -0.1027320E+00  0.5064740E-01 -0.1770423E+01  0.1004355E-01  0.4964158E-01
  0.1272720E+02 -0.8504060E+01 -0.1027320E+00  0.4774029E-01 -0.1773912E+01  0.9630279E-02  0.4675888E-01
