 VARIABLES="X" "Y" "Z" "abs(eta) (m)" "angle(phi) (rad)" "PRE1" "PRE2"
ZONE N=   3200 ,E =    3136 ,F=FEPOINT,ET=QUADRILATERAL
  0.1530690E+02  0.0000000E+00  0.0000000E+00  0.3900875E+00  0.2150161E+01  0.2135699E+00 -0.3264294E+00
  0.1523320E+02  0.1500340E+01  0.0000000E+00  0.3914127E+00  0.2153203E+01  0.2152910E+00 -0.3268848E+00
  0.1501280E+02  0.2986230E+01  0.0000000E+00  0.3912885E+00  0.2154702E+01  0.2157123E+00 -0.3264581E+00
  0.1464780E+02  0.4443360E+01  0.0000000E+00  0.3898793E+00  0.2154334E+01  0.2148156E+00 -0.3253615E+00
  0.1414170E+02  0.5857700E+01  0.0000000E+00  0.3869081E+00  0.2152701E+01  0.2126510E+00 -0.3232297E+00
  0.1349950E+02  0.7215620E+01  0.0000000E+00  0.3829896E+00  0.2149350E+01  0.2094240E+00 -0.3206597E+00
  0.1272720E+02  0.8504060E+01  0.0000000E+00  0.3797157E+00  0.2143316E+01  0.2057116E+00 -0.3191657E+00
  0.1183240E+02  0.9710600E+01  0.0000000E+00  0.3760297E+00  0.2135658E+01  0.2012882E+00 -0.3176184E+00
  0.1082360E+02  0.1082360E+02  0.0000000E+00  0.3716436E+00  0.2125913E+01  0.1958719E+00 -0.3158373E+00
  0.9710590E+01  0.1183240E+02  0.0000000E+00  0.3647619E+00  0.2115494E+01  0.1890049E+00 -0.3119750E+00
  0.8504060E+01  0.1272720E+02  0.0000000E+00  0.3581972E+00  0.2103557E+01  0.1819331E+00 -0.3085540E+00
  0.7215620E+01  0.1349950E+02  0.0000000E+00  0.3451832E+00  0.2094249E+01  0.1725479E+00 -0.2989626E+00
  0.5857700E+01  0.1414170E+02  0.0000000E+00  0.3300327E+00  0.2085094E+01  0.1623508E+00 -0.2873392E+00
  0.4443360E+01  0.1464780E+02  0.0000000E+00  0.3096026E+00  0.2077085E+01  0.1501371E+00 -0.2707630E+00
  0.2986230E+01  0.1501280E+02  0.0000000E+00  0.2688724E+00  0.2080761E+01  0.1312492E+00 -0.2346615E+00
  0.1500340E+01  0.1523320E+02  0.0000000E+00  0.1214319E+00  0.2222914E+01  0.7369345E-01 -0.9651419E-01
 -0.6690860E-06  0.1530690E+02  0.0000000E+00  0.3200418E-01 -0.2925169E+01  0.3125757E-01  0.6872509E-02
 -0.1500340E+01  0.1523320E+02  0.0000000E+00  0.1197062E+00 -0.1486084E+01 -0.1012847E-01  0.1192769E+00
 -0.2986230E+01  0.1501280E+02  0.0000000E+00  0.3062048E+00 -0.1364492E+01 -0.6272408E-01  0.2997116E+00
 -0.4443360E+01  0.1464780E+02  0.0000000E+00  0.3619869E+00 -0.1334884E+01 -0.8460734E-01  0.3519604E+00
 -0.5857700E+01  0.1414170E+02  0.0000000E+00  0.3907714E+00 -0.1310833E+01 -0.1004458E+00  0.3776412E+00
 -0.7215620E+01  0.1349950E+02  0.0000000E+00  0.4115760E+00 -0.1289008E+01 -0.1144486E+00  0.3953433E+00
 -0.8504060E+01  0.1272720E+02  0.0000000E+00  0.4292785E+00 -0.1269385E+01 -0.1274391E+00  0.4099259E+00
 -0.9710590E+01  0.1183240E+02  0.0000000E+00  0.4395168E+00 -0.1251403E+01 -0.1380040E+00  0.4172888E+00
 -0.1082360E+02  0.1082360E+02  0.0000000E+00  0.4499556E+00 -0.1235876E+01 -0.1478978E+00  0.4249545E+00
 -0.1183240E+02  0.9710590E+01  0.0000000E+00  0.4572566E+00 -0.1221833E+01 -0.1563471E+00  0.4296966E+00
 -0.1272720E+02  0.8504060E+01  0.0000000E+00  0.4636344E+00 -0.1209719E+01 -0.1637940E+00  0.4337377E+00
 -0.1349950E+02  0.7215620E+01  0.0000000E+00  0.4696314E+00 -0.1199920E+01 -0.1702095E+00  0.4377013E+00
 -0.1414170E+02  0.5857690E+01  0.0000000E+00  0.4764961E+00 -0.1192999E+01 -0.1757671E+00  0.4428933E+00
 -0.1464780E+02  0.4443360E+01  0.0000000E+00  0.4822519E+00 -0.1188255E+01 -0.1800145E+00  0.4473943E+00
 -0.1501280E+02  0.2986230E+01  0.0000000E+00  0.4863188E+00 -0.1185542E+01 -0.1827560E+00  0.4506730E+00
 -0.1523320E+02  0.1500340E+01  0.0000000E+00  0.4888972E+00 -0.1185144E+01 -0.1839053E+00  0.4529893E+00
 -0.1530690E+02 -0.1338170E-05  0.0000000E+00  0.4898826E+00 -0.1186875E+01 -0.1834898E+00  0.4542207E+00
 -0.1523320E+02 -0.1500340E+01  0.0000000E+00  0.4896699E+00 -0.1190814E+01 -0.1816206E+00  0.4547423E+00
 -0.1501280E+02 -0.2986230E+01  0.0000000E+00  0.4881054E+00 -0.1196814E+01 -0.1783172E+00  0.4543675E+00
 -0.1464780E+02 -0.4443360E+01  0.0000000E+00  0.4854381E+00 -0.1204940E+01 -0.1736650E+00  0.4533107E+00
 -0.1414170E+02 -0.5857700E+01  0.0000000E+00  0.4813293E+00 -0.1215014E+01 -0.1676584E+00  0.4511857E+00
 -0.1349950E+02 -0.7215620E+01  0.0000000E+00  0.4763822E+00 -0.1227460E+01 -0.1603649E+00  0.4485790E+00
 -0.1272720E+02 -0.8504060E+01  0.0000000E+00  0.4721071E+00 -0.1243310E+01 -0.1518598E+00  0.4470165E+00
 -0.1183240E+02 -0.9710600E+01  0.0000000E+00  0.4674604E+00 -0.1262036E+01 -0.1420510E+00  0.4453546E+00
 -0.1082360E+02 -0.1082360E+02  0.0000000E+00  0.4623645E+00 -0.1283396E+01 -0.1310621E+00  0.4434001E+00
 -0.9710600E+01 -0.1183240E+02  0.0000000E+00  0.4550538E+00 -0.1306769E+01 -0.1187556E+00  0.4392848E+00
 -0.8504050E+01 -0.1272720E+02  0.0000000E+00  0.4480861E+00 -0.1333727E+01 -0.1052353E+00  0.4355533E+00
 -0.7215620E+01 -0.1349950E+02  0.0000000E+00  0.4349714E+00 -0.1362337E+01 -0.9001856E-01  0.4255546E+00
 -0.5857690E+01 -0.1414170E+02  0.0000000E+00  0.4198881E+00 -0.1395080E+01 -0.7340226E-01  0.4134225E+00
 -0.4443360E+01 -0.1464780E+02  0.0000000E+00  0.3999745E+00 -0.1432245E+01 -0.5523999E-01  0.3961415E+00
 -0.2986230E+01 -0.1501280E+02  0.0000000E+00  0.3605233E+00 -0.1476366E+01 -0.3399377E-01  0.3589171E+00
 -0.1500340E+01 -0.1523320E+02  0.0000000E+00  0.2184963E+00 -0.1541750E+01 -0.6345701E-02  0.2184041E+00
  0.1825330E-06 -0.1530690E+02  0.0000000E+00  0.1156896E+00 -0.1719890E+01  0.1718476E-01  0.1144061E+00
  0.1500340E+01 -0.1523320E+02  0.0000000E+00  0.4234247E-01 -0.3086746E+01  0.4227880E-01  0.2321162E-02
  0.2986230E+01 -0.1501280E+02  0.0000000E+00  0.1922263E+00  0.1983653E+01  0.7712653E-01 -0.1760751E+00
  0.4443360E+01 -0.1464780E+02  0.0000000E+00  0.2470517E+00  0.1972823E+01  0.9666745E-01 -0.2273542E+00
  0.5857700E+01 -0.1414170E+02  0.0000000E+00  0.2763389E+00  0.1989677E+01  0.1123977E+00 -0.2524479E+00
  0.7215620E+01 -0.1349950E+02  0.0000000E+00  0.2979096E+00  0.2009219E+01  0.1264661E+00 -0.2697340E+00
  0.8504060E+01 -0.1272720E+02  0.0000000E+00  0.3163830E+00  0.2027379E+01  0.1394880E+00 -0.2839741E+00
  0.9710600E+01 -0.1183240E+02  0.0000000E+00  0.3279255E+00  0.2049531E+01  0.1510611E+00 -0.2910596E+00
  0.1082360E+02 -0.1082360E+02  0.0000000E+00  0.3396227E+00  0.2068159E+01  0.1620372E+00 -0.2984754E+00
  0.1183240E+02 -0.9710590E+01  0.0000000E+00  0.3483293E+00  0.2086623E+01  0.1718148E+00 -0.3030065E+00
  0.1272720E+02 -0.8504060E+01  0.0000000E+00  0.3560122E+00  0.2102597E+01  0.1805288E+00 -0.3068453E+00
  0.1349950E+02 -0.7215620E+01  0.0000000E+00  0.3632673E+00  0.2115935E+01  0.1883675E+00 -0.3106136E+00
  0.1414170E+02 -0.5857700E+01  0.0000000E+00  0.3712311E+00  0.2125270E+01  0.1954517E+00 -0.3156124E+00
  0.1464780E+02 -0.4443350E+01  0.0000000E+00  0.3781480E+00  0.2133002E+01  0.2015731E+00 -0.3199440E+00
  0.1501280E+02 -0.2986230E+01  0.0000000E+00  0.3835014E+00  0.2139784E+01  0.2066226E+00 -0.3230796E+00
  0.1523320E+02 -0.1500330E+01  0.0000000E+00  0.3875400E+00  0.2145497E+01  0.2106603E+00 -0.3252837E+00
  0.1530690E+02  0.0000000E+00 -0.2568960E-01  0.3896440E+00  0.2150171E+01  0.2133305E+00 -0.3260561E+00
  0.1523320E+02  0.1500340E+01 -0.2568960E-01  0.3909677E+00  0.2153206E+01  0.2150470E+00 -0.3265126E+00
  0.1501280E+02  0.2986230E+01 -0.2568960E-01  0.3908515E+00  0.2154701E+01  0.2154707E+00 -0.3260939E+00
  0.1464780E+02  0.4443360E+01 -0.2568960E-01  0.3894537E+00  0.2154325E+01  0.2145779E+00 -0.3250084E+00
  0.1414170E+02  0.5857700E+01 -0.2568960E-01  0.3865010E+00  0.2152685E+01  0.2124219E+00 -0.3228931E+00
  0.1349950E+02  0.7215620E+01 -0.2568960E-01  0.3825958E+00  0.2149318E+01  0.2091983E+00 -0.3203367E+00
  0.1272720E+02  0.8504060E+01 -0.2568960E-01  0.3793271E+00  0.2143287E+01  0.2054919E+00 -0.3188449E+00
  0.1183240E+02  0.9710600E+01 -0.2568960E-01  0.3756379E+00  0.2135639E+01  0.2010727E+00 -0.3172910E+00
  0.1082360E+02  0.1082360E+02 -0.2568960E-01  0.3712530E+00  0.2125894E+01  0.1956602E+00 -0.3155090E+00
  0.9710590E+01  0.1183240E+02 -0.2568960E-01  0.3643915E+00  0.2115469E+01  0.1888052E+00 -0.3116629E+00
  0.8504060E+01  0.1272720E+02 -0.2568960E-01  0.3578098E+00  0.2103548E+01  0.1817336E+00 -0.3082218E+00
  0.7215620E+01  0.1349950E+02 -0.2568960E-01  0.3448539E+00  0.2094216E+01  0.1723735E+00 -0.2986831E+00
  0.5857700E+01  0.1414170E+02 -0.2568960E-01  0.3297013E+00  0.2085069E+01  0.1621806E+00 -0.2870547E+00
  0.4443360E+01  0.1464780E+02 -0.2568960E-01  0.3093012E+00  0.2077060E+01  0.1499840E+00 -0.2705033E+00
  0.2986230E+01  0.1501280E+02 -0.2568960E-01  0.2685957E+00  0.2080732E+01  0.1311073E+00 -0.2344238E+00
  0.1500340E+01  0.1523320E+02 -0.2568960E-01  0.1214036E+00  0.2222664E+01  0.7365222E-01 -0.9651001E-01
 -0.6690860E-06  0.1530690E+02 -0.2568960E-01  0.3196870E-01 -0.2925528E+01  0.3122538E-01  0.6853705E-02
 -0.1500340E+01  0.1523320E+02 -0.2568960E-01  0.1197073E+00 -0.1485953E+01 -0.1014422E-01  0.1192767E+00
 -0.2986230E+01  0.1501280E+02 -0.2568960E-01  0.3058655E+00 -0.1364486E+01 -0.6265655E-01  0.2993791E+00
 -0.4443360E+01  0.1464780E+02 -0.2568960E-01  0.3616260E+00 -0.1334886E+01 -0.8452209E-01  0.3516097E+00
 -0.5857700E+01  0.1414170E+02 -0.2568960E-01  0.3903677E+00 -0.1310839E+01 -0.1003397E+00  0.3772517E+00
 -0.7215620E+01  0.1349950E+02 -0.2568960E-01  0.4111729E+00 -0.1289012E+01 -0.1143347E+00  0.3949566E+00
 -0.8504060E+01  0.1272720E+02 -0.2568960E-01  0.4288074E+00 -0.1269396E+01 -0.1272948E+00  0.4094775E+00
 -0.9710590E+01  0.1183240E+02 -0.2568960E-01  0.4390608E+00 -0.1251420E+01 -0.1378537E+00  0.4168582E+00
 -0.1082360E+02  0.1082360E+02 -0.2568960E-01  0.4494736E+00 -0.1235886E+01 -0.1477348E+00  0.4245008E+00
 -0.1183240E+02  0.9710590E+01 -0.2568960E-01  0.4567693E+00 -0.1221844E+01 -0.1561755E+00  0.4292405E+00
 -0.1272720E+02  0.8504060E+01 -0.2568960E-01  0.4631518E+00 -0.1209727E+01 -0.1636197E+00  0.4332876E+00
 -0.1349950E+02  0.7215620E+01 -0.2568960E-01  0.4691418E+00 -0.1199938E+01 -0.1700243E+00  0.4372480E+00
 -0.1414170E+02  0.5857690E+01 -0.2568960E-01  0.4759872E+00 -0.1193006E+01 -0.1755760E+00  0.4424216E+00
 -0.1464780E+02  0.4443360E+01 -0.2568960E-01  0.4817200E+00 -0.1188265E+01 -0.1798117E+00  0.4469025E+00
 -0.1501280E+02  0.2986230E+01 -0.2568960E-01  0.4857722E+00 -0.1185547E+01 -0.1825486E+00  0.4501673E+00
 -0.1523320E+02  0.1500340E+01 -0.2568960E-01  0.4883407E+00 -0.1185147E+01 -0.1836948E+00  0.4524741E+00
 -0.1530690E+02 -0.1338170E-05 -0.2568960E-01  0.4893245E+00 -0.1186873E+01 -0.1832821E+00  0.4537027E+00
 -0.1523320E+02 -0.1500340E+01 -0.2568960E-01  0.4891138E+00 -0.1190817E+01 -0.1814129E+00  0.4542264E+00
 -0.1501280E+02 -0.2986230E+01 -0.2568960E-01  0.4875589E+00 -0.1196815E+01 -0.1781174E+00  0.4538589E+00
 -0.1464780E+02 -0.4443360E+01 -0.2568960E-01  0.4849049E+00 -0.1204943E+01 -0.1734729E+00  0.4528134E+00
 -0.1414170E+02 -0.5857700E+01 -0.2568960E-01  0.4808137E+00 -0.1215027E+01 -0.1674732E+00  0.4507045E+00
 -0.1349950E+02 -0.7215620E+01 -0.2568960E-01  0.4758827E+00 -0.1227481E+01 -0.1601871E+00  0.4481120E+00
 -0.1272720E+02 -0.8504060E+01 -0.2568960E-01  0.4716110E+00 -0.1243331E+01 -0.1516908E+00  0.4465499E+00
 -0.1183240E+02 -0.9710600E+01 -0.2568960E-01  0.4669635E+00 -0.1262047E+01 -0.1418948E+00  0.4448829E+00
 -0.1082360E+02 -0.1082360E+02 -0.2568960E-01  0.4618707E+00 -0.1283407E+01 -0.1309169E+00  0.4429281E+00
 -0.9710600E+01 -0.1183240E+02 -0.2568960E-01  0.4545796E+00 -0.1306779E+01 -0.1186273E+00  0.4388281E+00
 -0.8504050E+01 -0.1272720E+02 -0.2568960E-01  0.4475957E+00 -0.1333731E+01 -0.1051182E+00  0.4350771E+00
 -0.7215620E+01 -0.1349950E+02 -0.2568960E-01  0.4345377E+00 -0.1362355E+01 -0.8992101E-01  0.4251320E+00
 -0.5857690E+01 -0.1414170E+02 -0.2568960E-01  0.4194528E+00 -0.1395096E+01 -0.7331952E-01  0.4129951E+00
 -0.4443360E+01 -0.1464780E+02 -0.2568960E-01  0.3995671E+00 -0.1432252E+01 -0.5518068E-01  0.3957385E+00
 -0.2986230E+01 -0.1501280E+02 -0.2568960E-01  0.3601410E+00 -0.1476372E+01 -0.3395556E-01  0.3585367E+00
 -0.1500340E+01 -0.1523320E+02 -0.2568960E-01  0.2183550E+00 -0.1541755E+01 -0.6340447E-02  0.2182629E+00
  0.1825330E-06 -0.1530690E+02 -0.2568960E-01  0.1155683E+00 -0.1719905E+01  0.1716839E-01  0.1142859E+00
  0.1500340E+01 -0.1523320E+02 -0.2568960E-01  0.4230877E-01 -0.3089960E+01  0.4225239E-01  0.2183525E-02
  0.2986230E+01 -0.1501280E+02 -0.2568960E-01  0.1920171E+00  0.1983643E+01  0.7704084E-01 -0.1758842E+00
  0.4443360E+01 -0.1464780E+02 -0.2568960E-01  0.2468207E+00  0.1972776E+01  0.9656627E-01 -0.2271462E+00
  0.5857700E+01 -0.1414170E+02 -0.2568960E-01  0.2760639E+00  0.1989647E+01  0.1122782E+00 -0.2522001E+00
  0.7215620E+01 -0.1349950E+02 -0.2568960E-01  0.2976315E+00  0.2009163E+01  0.1263329E+00 -0.2694894E+00
  0.8504060E+01 -0.1272720E+02 -0.2568960E-01  0.3160430E+00  0.2027383E+01  0.1393392E+00 -0.2836684E+00
  0.9710600E+01 -0.1183240E+02 -0.2568960E-01  0.3275949E+00  0.2049498E+01  0.1508992E+00 -0.2907712E+00
  0.1082360E+02 -0.1082360E+02 -0.2568960E-01  0.3392676E+00  0.2068140E+01  0.1618621E+00 -0.2981664E+00
  0.1183240E+02 -0.9710590E+01 -0.2568960E-01  0.3479659E+00  0.2086599E+01  0.1716284E+00 -0.3026945E+00
  0.1272720E+02 -0.8504060E+01 -0.2568960E-01  0.3556489E+00  0.2102559E+01  0.1803330E+00 -0.3065390E+00
  0.1349950E+02 -0.7215620E+01 -0.2568960E-01  0.3628976E+00  0.2115897E+01  0.1881638E+00 -0.3103048E+00
  0.1414170E+02 -0.5857700E+01 -0.2568960E-01  0.3708405E+00  0.2125250E+01  0.1952398E+00 -0.3152842E+00
  0.1464780E+02 -0.4443350E+01 -0.2568960E-01  0.3777340E+00  0.2132989E+01  0.2013483E+00 -0.3195964E+00
  0.1501280E+02 -0.2986230E+01 -0.2568960E-01  0.3830722E+00  0.2139786E+01  0.2063921E+00 -0.3227176E+00
  0.1523320E+02 -0.1500330E+01 -0.2568960E-01  0.3871014E+00  0.2145509E+01  0.2104259E+00 -0.3249131E+00
  0.1530690E+02  0.0000000E+00 -0.1027320E+00  0.3883021E+00  0.2150228E+01  0.2126143E+00 -0.3249210E+00
  0.1523320E+02  0.1500340E+01 -0.1027320E+00  0.3896272E+00  0.2153246E+01  0.2143227E+00 -0.3253845E+00
  0.1501280E+02  0.2986230E+01 -0.1027320E+00  0.3895314E+00  0.2154724E+01  0.2147506E+00 -0.3249876E+00
  0.1464780E+02  0.4443360E+01 -0.1027320E+00  0.3881683E+00  0.2154324E+01  0.2138694E+00 -0.3239360E+00
  0.1414170E+02  0.5857700E+01 -0.1027320E+00  0.3852630E+00  0.2152642E+01  0.2117276E+00 -0.3218680E+00
  0.1349950E+02  0.7215620E+01 -0.1027320E+00  0.3814074E+00  0.2149254E+01  0.2085280E+00 -0.3193551E+00
  0.1272720E+02  0.8504060E+01 -0.1027320E+00  0.3781451E+00  0.2143227E+01  0.2048323E+00 -0.3178639E+00
  0.1183240E+02  0.9710600E+01 -0.1027320E+00  0.3744425E+00  0.2135580E+01  0.2004139E+00 -0.3162932E+00
  0.1082360E+02  0.1082360E+02 -0.1027320E+00  0.3700683E+00  0.2125846E+01  0.1950207E+00 -0.3145115E+00
  0.9710590E+01  0.1183240E+02 -0.1027320E+00  0.3632672E+00  0.2115413E+01  0.1882053E+00 -0.3107117E+00
  0.8504060E+01  0.1272720E+02 -0.1027320E+00  0.3566394E+00  0.2103543E+01  0.1811376E+00 -0.3072146E+00
  0.7215620E+01  0.1349950E+02 -0.1027320E+00  0.3438286E+00  0.2094149E+01  0.1718409E+00 -0.2978067E+00
  0.5857700E+01  0.1414170E+02 -0.1027320E+00  0.3287096E+00  0.2085000E+01  0.1616729E+00 -0.2862025E+00
  0.4443360E+01  0.1464780E+02 -0.1027320E+00  0.3083823E+00  0.2077008E+01  0.1495245E+00 -0.2697074E+00
  0.2986230E+01  0.1501280E+02 -0.1027320E+00  0.2678520E+00  0.2080610E+01  0.1307158E+00 -0.2337907E+00
  0.1500340E+01  0.1523320E+02 -0.1027320E+00  0.1211619E+00  0.2222289E+01  0.7346941E-01 -0.9634549E-01
 -0.6690860E-06  0.1530690E+02 -0.1027320E+00  0.3186566E-01 -0.2926381E+01  0.3113055E-01  0.6805057E-02
 -0.1500340E+01  0.1523320E+02 -0.1027320E+00  0.1194685E+00 -0.1485798E+01 -0.1014244E-01  0.1190372E+00
 -0.2986230E+01  0.1501280E+02 -0.1027320E+00  0.3049497E+00 -0.1364460E+01 -0.6247680E-01  0.2984811E+00
 -0.4443360E+01  0.1464780E+02 -0.1027320E+00  0.3605289E+00 -0.1334911E+01 -0.8425719E-01  0.3505451E+00
 -0.5857700E+01  0.1414170E+02 -0.1027320E+00  0.3891541E+00 -0.1310854E+01 -0.1000222E+00  0.3760804E+00
 -0.7215620E+01  0.1349950E+02 -0.1027320E+00  0.4099185E+00 -0.1289039E+01 -0.1139756E+00  0.3937547E+00
 -0.8504060E+01  0.1272720E+02 -0.1027320E+00  0.4273849E+00 -0.1269419E+01 -0.1268631E+00  0.4081221E+00
 -0.9710590E+01  0.1183240E+02 -0.1027320E+00  0.4376810E+00 -0.1251451E+01 -0.1374078E+00  0.4155524E+00
 -0.1082360E+02  0.1082360E+02 -0.1027320E+00  0.4480162E+00 -0.1235905E+01 -0.1472480E+00  0.4231271E+00
 -0.1183240E+02  0.9710590E+01 -0.1027320E+00  0.4552962E+00 -0.1221866E+01 -0.1556623E+00  0.4278596E+00
 -0.1272720E+02  0.8504060E+01 -0.1027320E+00  0.4616840E+00 -0.1209769E+01 -0.1630830E+00  0.4319213E+00
 -0.1349950E+02  0.7215620E+01 -0.1027320E+00  0.4676591E+00 -0.1199983E+01 -0.1694674E+00  0.4358737E+00
 -0.1414170E+02  0.5857690E+01 -0.1027320E+00  0.4744407E+00 -0.1193040E+01 -0.1749908E+00  0.4409900E+00
 -0.1464780E+02  0.4443360E+01 -0.1027320E+00  0.4801102E+00 -0.1188286E+01 -0.1792015E+00  0.4454129E+00
 -0.1501280E+02  0.2986230E+01 -0.1027320E+00  0.4841160E+00 -0.1185556E+01 -0.1819219E+00  0.4486344E+00
 -0.1523320E+02  0.1500340E+01 -0.1027320E+00  0.4866569E+00 -0.1185147E+01 -0.1830612E+00  0.4509141E+00
 -0.1530690E+02 -0.1338170E-05 -0.1027320E+00  0.4876350E+00 -0.1186872E+01 -0.1826496E+00  0.4521360E+00
 -0.1523320E+02 -0.1500340E+01 -0.1027320E+00  0.4874327E+00 -0.1190814E+01 -0.1807907E+00  0.4526648E+00
 -0.1501280E+02 -0.2986230E+01 -0.1027320E+00  0.4859027E+00 -0.1196820E+01 -0.1775101E+00  0.4523181E+00
 -0.1464780E+02 -0.4443360E+01 -0.1027320E+00  0.4832882E+00 -0.1204960E+01 -0.1728869E+00  0.4513066E+00
 -0.1414170E+02 -0.5857700E+01 -0.1027320E+00  0.4792493E+00 -0.1215069E+01 -0.1669093E+00  0.4492451E+00
 -0.1349950E+02 -0.7215620E+01 -0.1027320E+00  0.4743696E+00 -0.1227537E+01 -0.1596530E+00  0.4466961E+00
 -0.1272720E+02 -0.8504060E+01 -0.1027320E+00  0.4701102E+00 -0.1243379E+01 -0.1511867E+00  0.4451362E+00
 -0.1183240E+02 -0.9710600E+01 -0.1027320E+00  0.4654564E+00 -0.1262079E+01 -0.1414228E+00  0.4434515E+00
 -0.1082360E+02 -0.1082360E+02 -0.1027320E+00  0.4603746E+00 -0.1283437E+01 -0.1304799E+00  0.4414972E+00
 -0.9710600E+01 -0.1183240E+02 -0.1027320E+00  0.4531408E+00 -0.1306833E+01 -0.1182282E+00  0.4374456E+00
 -0.8504050E+01 -0.1272720E+02 -0.1027320E+00  0.4461135E+00 -0.1333754E+01 -0.1047601E+00  0.4336388E+00
 -0.7215620E+01 -0.1349950E+02 -0.1027320E+00  0.4331983E+00 -0.1362409E+01 -0.8962130E-01  0.4238263E+00
 -0.5857690E+01 -0.1414170E+02 -0.1027320E+00  0.4181493E+00 -0.1395131E+01 -0.7307693E-01  0.4117142E+00
 -0.4443360E+01 -0.1464780E+02 -0.1027320E+00  0.3983326E+00 -0.1432298E+01 -0.5499203E-01  0.3945183E+00
 -0.2986230E+01 -0.1501280E+02 -0.1027320E+00  0.3590785E+00 -0.1476402E+01 -0.3384463E-01  0.3574799E+00
 -0.1500340E+01 -0.1523320E+02 -0.1027320E+00  0.2177769E+00 -0.1541780E+01 -0.6318276E-02  0.2176852E+00
  0.1825330E-06 -0.1530690E+02 -0.1027320E+00  0.1151989E+00 -0.1719938E+01  0.1711737E-01  0.1139201E+00
  0.1500340E+01 -0.1523320E+02 -0.1027320E+00  0.4218923E-01 -0.3093904E+01  0.4214126E-01  0.2011182E-02
  0.2986230E+01 -0.1501280E+02 -0.1027320E+00  0.1914862E+00  0.1983493E+01  0.7680155E-01 -0.1754095E+00
  0.4443360E+01 -0.1464780E+02 -0.1027320E+00  0.2461129E+00  0.1972686E+01  0.9626911E-01 -0.2265034E+00
  0.5857700E+01 -0.1414170E+02 -0.1027320E+00  0.2752379E+00  0.1989564E+01  0.1119214E+00 -0.2514548E+00
  0.7215620E+01 -0.1349950E+02 -0.1027320E+00  0.2967601E+00  0.2009053E+01  0.1259336E+00 -0.2687141E+00
  0.8504060E+01 -0.1272720E+02 -0.1027320E+00  0.3150084E+00  0.2027374E+01  0.1388806E+00 -0.2827410E+00
  0.9710600E+01 -0.1183240E+02 -0.1027320E+00  0.3265929E+00  0.2049416E+01  0.1504138E+00 -0.2898942E+00
  0.1082360E+02 -0.1082360E+02 -0.1027320E+00  0.3381843E+00  0.2068091E+01  0.1613308E+00 -0.2972221E+00
  0.1183240E+02 -0.9710590E+01 -0.1027320E+00  0.3468604E+00  0.2086546E+01  0.1710672E+00 -0.3017419E+00
  0.1272720E+02 -0.8504060E+01 -0.1027320E+00  0.3545445E+00  0.2102472E+01  0.1797464E+00 -0.3056027E+00
