 VARIABLES="X" "Y" "Z" "abs(eta) (m)" "angle(phi) (rad)" "PRE1" "PRE2"
ZONE N=   3200 ,E =    3136 ,F=FEPOINT,ET=QUADRILATERAL
  0.1530690E+02  0.0000000E+00  0.0000000E+00  0.1987609E+02 -0.5493233E+00 -0.1695188E+02  0.1037751E+02
  0.1523320E+02  0.1500340E+01  0.0000000E+00  0.1984194E+02 -0.5512550E+00 -0.1690271E+02  0.1039235E+02
  0.1501280E+02  0.2986230E+01  0.0000000E+00  0.1974420E+02 -0.5571325E+00 -0.1675838E+02  0.1043984E+02
  0.1464780E+02  0.4443360E+01  0.0000000E+00  0.1957545E+02 -0.5663183E+00 -0.1651937E+02  0.1050279E+02
  0.1414170E+02  0.5857700E+01  0.0000000E+00  0.1935519E+02 -0.5794766E+00 -0.1619544E+02  0.1059863E+02
  0.1349950E+02  0.7215620E+01  0.0000000E+00  0.1911070E+02 -0.5976605E+00 -0.1579795E+02  0.1075378E+02
  0.1272720E+02  0.8504060E+01  0.0000000E+00  0.1888572E+02 -0.6224790E+00 -0.1534343E+02  0.1101134E+02
  0.1183240E+02  0.9710600E+01  0.0000000E+00  0.1853942E+02 -0.6497809E+00 -0.1476139E+02  0.1121657E+02
  0.1082360E+02  0.1082360E+02  0.0000000E+00  0.1800137E+02 -0.6774712E+00 -0.1402595E+02  0.1128370E+02
  0.9710590E+01  0.1183240E+02  0.0000000E+00  0.1746916E+02 -0.7109985E+00 -0.1323657E+02  0.1140021E+02
  0.8504060E+01  0.1272720E+02  0.0000000E+00  0.1681359E+02 -0.7475339E+00 -0.1233054E+02  0.1143042E+02
  0.7215620E+01  0.1349950E+02  0.0000000E+00  0.1590227E+02 -0.7850896E+00 -0.1124807E+02  0.1124113E+02
  0.5857700E+01  0.1414170E+02  0.0000000E+00  0.1496944E+02 -0.8301964E+00 -0.1010034E+02  0.1104840E+02
  0.4443360E+01  0.1464780E+02  0.0000000E+00  0.1365908E+02 -0.8777590E+00 -0.8726470E+01  0.1050806E+02
  0.2986230E+01  0.1501280E+02  0.0000000E+00  0.1150194E+02 -0.9256470E+00 -0.6916323E+01  0.9190168E+01
  0.1500340E+01  0.1523320E+02  0.0000000E+00  0.4678178E+01 -0.8857690E+00 -0.2959856E+01  0.3622789E+01
 -0.6690860E-06  0.1530690E+02  0.0000000E+00  0.2635430E-04  0.2375183E+00 -0.2561440E-04 -0.6200937E-05
 -0.1500340E+01  0.1523320E+02  0.0000000E+00  0.4678209E+01  0.2255823E+01  0.2959872E+01 -0.3622816E+01
 -0.2986230E+01  0.1501280E+02  0.0000000E+00  0.1150194E+02  0.2215947E+01  0.6916334E+01 -0.9190161E+01
 -0.4443360E+01  0.1464780E+02  0.0000000E+00  0.1365906E+02  0.2263832E+01  0.8726439E+01 -0.1050805E+02
 -0.5857700E+01  0.1414170E+02  0.0000000E+00  0.1496942E+02  0.2311395E+01  0.1010031E+02 -0.1104841E+02
 -0.7215620E+01  0.1349950E+02  0.0000000E+00  0.1590227E+02  0.2356503E+01  0.1124807E+02 -0.1124114E+02
 -0.8504060E+01  0.1272720E+02  0.0000000E+00  0.1681363E+02  0.2394060E+01  0.1233059E+02 -0.1143043E+02
 -0.9710590E+01  0.1183240E+02  0.0000000E+00  0.1746920E+02  0.2430596E+01  0.1323662E+02 -0.1140021E+02
 -0.1082360E+02  0.1082360E+02  0.0000000E+00  0.1800138E+02  0.2464121E+01  0.1402596E+02 -0.1128371E+02
 -0.1183240E+02  0.9710590E+01  0.0000000E+00  0.1853943E+02  0.2491812E+01  0.1476140E+02 -0.1121657E+02
 -0.1272720E+02  0.8504060E+01  0.0000000E+00  0.1888579E+02  0.2519113E+01  0.1534348E+02 -0.1101138E+02
 -0.1349950E+02  0.7215620E+01  0.0000000E+00  0.1911073E+02  0.2543934E+01  0.1579799E+02 -0.1075378E+02
 -0.1414170E+02  0.5857690E+01  0.0000000E+00  0.1935524E+02  0.2562116E+01  0.1619549E+02 -0.1059866E+02
 -0.1464780E+02  0.4443360E+01  0.0000000E+00  0.1957541E+02  0.2575274E+01  0.1651933E+02 -0.1050278E+02
 -0.1501280E+02  0.2986230E+01  0.0000000E+00  0.1974423E+02  0.2584460E+01  0.1675841E+02 -0.1043985E+02
 -0.1523320E+02  0.1500340E+01  0.0000000E+00  0.1984202E+02  0.2590338E+01  0.1690278E+02 -0.1039237E+02
 -0.1530690E+02 -0.1338170E-05  0.0000000E+00  0.1987605E+02  0.2592269E+01  0.1695184E+02 -0.1037750E+02
 -0.1523320E+02 -0.1500340E+01  0.0000000E+00  0.1984200E+02  0.2590339E+01  0.1690278E+02 -0.1039236E+02
 -0.1501280E+02 -0.2986230E+01  0.0000000E+00  0.1974423E+02  0.2584460E+01  0.1675840E+02 -0.1043985E+02
 -0.1464780E+02 -0.4443360E+01  0.0000000E+00  0.1957541E+02  0.2575274E+01  0.1651934E+02 -0.1050277E+02
 -0.1414170E+02 -0.5857700E+01  0.0000000E+00  0.1935522E+02  0.2562117E+01  0.1619548E+02 -0.1059862E+02
 -0.1349950E+02 -0.7215620E+01  0.0000000E+00  0.1911074E+02  0.2543933E+01  0.1579799E+02 -0.1075379E+02
 -0.1272720E+02 -0.8504060E+01  0.0000000E+00  0.1888574E+02  0.2519113E+01  0.1534344E+02 -0.1101137E+02
 -0.1183240E+02 -0.9710600E+01  0.0000000E+00  0.1853942E+02  0.2491812E+01  0.1476139E+02 -0.1121657E+02
 -0.1082360E+02 -0.1082360E+02  0.0000000E+00  0.1800139E+02  0.2464123E+01  0.1402598E+02 -0.1128370E+02
 -0.9710600E+01 -0.1183240E+02  0.0000000E+00  0.1746917E+02  0.2430598E+01  0.1323661E+02 -0.1140017E+02
 -0.8504050E+01 -0.1272720E+02  0.0000000E+00  0.1681359E+02  0.2394062E+01  0.1233058E+02 -0.1143039E+02
 -0.7215620E+01 -0.1349950E+02  0.0000000E+00  0.1590224E+02  0.2356501E+01  0.1124802E+02 -0.1124114E+02
 -0.5857690E+01 -0.1414170E+02  0.0000000E+00  0.1496944E+02  0.2311394E+01  0.1010033E+02 -0.1104842E+02
 -0.4443360E+01 -0.1464780E+02  0.0000000E+00  0.1365904E+02  0.2263833E+01  0.8726436E+01 -0.1050803E+02
 -0.2986230E+01 -0.1501280E+02  0.0000000E+00  0.1150193E+02  0.2215950E+01  0.6916353E+01 -0.9190132E+01
 -0.1500340E+01 -0.1523320E+02  0.0000000E+00  0.4678201E+01  0.2255826E+01  0.2959877E+01 -0.3622801E+01
  0.1825330E-06 -0.1530690E+02  0.0000000E+00  0.2792453E-04 -0.3358555E+00 -0.2636435E-04  0.9203281E-05
  0.1500340E+01 -0.1523320E+02  0.0000000E+00  0.4678200E+01 -0.8857650E+00 -0.2959884E+01  0.3622794E+01
  0.2986230E+01 -0.1501280E+02  0.0000000E+00  0.1150198E+02 -0.9256468E+00 -0.6916348E+01  0.9190199E+01
  0.4443360E+01 -0.1464780E+02  0.0000000E+00  0.1365911E+02 -0.8777565E+00 -0.8726518E+01  0.1050806E+02
  0.5857700E+01 -0.1414170E+02  0.0000000E+00  0.1496946E+02 -0.8301949E+00 -0.1010037E+02  0.1104840E+02
  0.7215620E+01 -0.1349950E+02  0.0000000E+00  0.1590229E+02 -0.7850893E+00 -0.1124809E+02  0.1124114E+02
  0.8504060E+01 -0.1272720E+02  0.0000000E+00  0.1681358E+02 -0.7475336E+00 -0.1233054E+02  0.1143041E+02
  0.9710600E+01 -0.1183240E+02  0.0000000E+00  0.1746914E+02 -0.7109988E+00 -0.1323655E+02  0.1140020E+02
  0.1082360E+02 -0.1082360E+02  0.0000000E+00  0.1800138E+02 -0.6774709E+00 -0.1402597E+02  0.1128371E+02
  0.1183240E+02 -0.9710590E+01  0.0000000E+00  0.1853941E+02 -0.6497829E+00 -0.1476136E+02  0.1121659E+02
  0.1272720E+02 -0.8504060E+01  0.0000000E+00  0.1888572E+02 -0.6224794E+00 -0.1534342E+02  0.1101134E+02
  0.1349950E+02 -0.7215620E+01  0.0000000E+00  0.1911071E+02 -0.5976605E+00 -0.1579795E+02  0.1075379E+02
  0.1414170E+02 -0.5857700E+01  0.0000000E+00  0.1935518E+02 -0.5794752E+00 -0.1619545E+02  0.1059861E+02
  0.1464780E+02 -0.4443350E+01  0.0000000E+00  0.1957550E+02 -0.5663168E+00 -0.1651943E+02  0.1050279E+02
  0.1501280E+02 -0.2986230E+01  0.0000000E+00  0.1974422E+02 -0.5571319E+00 -0.1675840E+02  0.1043983E+02
  0.1523320E+02 -0.1500330E+01  0.0000000E+00  0.1984196E+02 -0.5512544E+00 -0.1690273E+02  0.1039235E+02
  0.1530690E+02  0.0000000E+00 -0.2568960E-01  0.1984537E+02 -0.5493724E+00 -0.1692517E+02  0.1036230E+02
  0.1523320E+02  0.1500340E+01 -0.2568960E-01  0.1981144E+02 -0.5512999E+00 -0.1687627E+02  0.1037713E+02
  0.1501280E+02  0.2986230E+01 -0.2568960E-01  0.1971390E+02 -0.5571768E+00 -0.1673220E+02  0.1042456E+02
  0.1464780E+02  0.4443360E+01 -0.2568960E-01  0.1954538E+02 -0.5663689E+00 -0.1649346E+02  0.1048749E+02
  0.1414170E+02  0.5857700E+01 -0.2568960E-01  0.1932549E+02 -0.5795283E+00 -0.1617005E+02  0.1058321E+02
  0.1349950E+02  0.7215620E+01 -0.2568960E-01  0.1908114E+02 -0.5977006E+00 -0.1577307E+02  0.1073778E+02
  0.1272720E+02  0.8504060E+01 -0.2568960E-01  0.1885564E+02 -0.6224934E+00 -0.1531884E+02  0.1099402E+02
  0.1183240E+02  0.9710600E+01 -0.2568960E-01  0.1850968E+02 -0.6497882E+00 -0.1473763E+02  0.1119869E+02
  0.1082360E+02  0.1082360E+02 -0.2568960E-01  0.1797325E+02 -0.6774982E+00 -0.1400374E+02  0.1126645E+02
  0.9710590E+01  0.1183240E+02 -0.2568960E-01  0.1744155E+02 -0.7110125E+00 -0.1321549E+02  0.1138238E+02
  0.8504060E+01  0.1272720E+02 -0.2568960E-01  0.1678691E+02 -0.7475404E+00 -0.1231090E+02  0.1141237E+02
  0.7215620E+01  0.1349950E+02 -0.2568960E-01  0.1587879E+02 -0.7851386E+00 -0.1123091E+02  0.1122509E+02
  0.5857700E+01  0.1414170E+02 -0.2568960E-01  0.1494697E+02 -0.8302320E+00 -0.1008479E+02  0.1103218E+02
  0.4443360E+01  0.1464780E+02 -0.2568960E-01  0.1363976E+02 -0.8778077E+00 -0.8713616E+01  0.1049362E+02
  0.2986230E+01  0.1501280E+02 -0.2568960E-01  0.1148517E+02 -0.9256765E+00 -0.6905964E+01  0.9176967E+01
  0.1500340E+01  0.1523320E+02 -0.2568960E-01  0.4672803E+01 -0.8858702E+00 -0.2956089E+01  0.3618926E+01
 -0.6690860E-06  0.1530690E+02 -0.2568960E-01  0.5219302E-05 -0.1380562E+01 -0.9869127E-06  0.5125146E-05
 -0.1500340E+01  0.1523320E+02 -0.2568960E-01  0.4672817E+01  0.2255726E+01  0.2956112E+01 -0.3618925E+01
 -0.2986230E+01  0.1501280E+02 -0.2568960E-01  0.1148519E+02  0.2215921E+01  0.6906025E+01 -0.9176948E+01
 -0.4443360E+01  0.1464780E+02 -0.2568960E-01  0.1363977E+02  0.2263783E+01  0.8713604E+01 -0.1049364E+02
 -0.5857700E+01  0.1414170E+02 -0.2568960E-01  0.1494694E+02  0.2311362E+01  0.1008479E+02 -0.1103214E+02
 -0.7215620E+01  0.1349950E+02 -0.2568960E-01  0.1587880E+02  0.2356457E+01  0.1123096E+02 -0.1122506E+02
 -0.8504060E+01  0.1272720E+02 -0.2568960E-01  0.1678688E+02  0.2394050E+01  0.1231085E+02 -0.1141237E+02
 -0.9710590E+01  0.1183240E+02 -0.2568960E-01  0.1744157E+02  0.2430580E+01  0.1321550E+02 -0.1138239E+02
 -0.1082360E+02  0.1082360E+02 -0.2568960E-01  0.1797327E+02  0.2464096E+01  0.1400377E+02 -0.1126644E+02
 -0.1183240E+02  0.9710590E+01 -0.2568960E-01  0.1850967E+02  0.2491803E+01  0.1473761E+02 -0.1119870E+02
 -0.1272720E+02  0.8504060E+01 -0.2568960E-01  0.1885565E+02  0.2519101E+01  0.1531886E+02 -0.1099401E+02
 -0.1349950E+02  0.7215620E+01 -0.2568960E-01  0.1908121E+02  0.2543893E+01  0.1577314E+02 -0.1073781E+02
 -0.1414170E+02  0.5857690E+01 -0.2568960E-01  0.1932557E+02  0.2562067E+01  0.1617013E+02 -0.1058321E+02
 -0.1464780E+02  0.4443360E+01 -0.2568960E-01  0.1954542E+02  0.2575224E+01  0.1649350E+02 -0.1048752E+02
 -0.1501280E+02  0.2986230E+01 -0.2568960E-01  0.1971387E+02  0.2584414E+01  0.1673215E+02 -0.1042458E+02
 -0.1523320E+02  0.1500340E+01 -0.2568960E-01  0.1981141E+02  0.2590291E+01  0.1687622E+02 -0.1037714E+02
 -0.1530690E+02 -0.1338170E-05 -0.2568960E-01  0.1984544E+02  0.2592221E+01  0.1692525E+02 -0.1036232E+02
 -0.1523320E+02 -0.1500340E+01 -0.2568960E-01  0.1981143E+02  0.2590291E+01  0.1687623E+02 -0.1037716E+02
 -0.1501280E+02 -0.2986230E+01 -0.2568960E-01  0.1971387E+02  0.2584414E+01  0.1673215E+02 -0.1042457E+02
 -0.1464780E+02 -0.4443360E+01 -0.2568960E-01  0.1954542E+02  0.2575223E+01  0.1649349E+02 -0.1048752E+02
 -0.1414170E+02 -0.5857700E+01 -0.2568960E-01  0.1932553E+02  0.2562068E+01  0.1617011E+02 -0.1058318E+02
 -0.1349950E+02 -0.7215620E+01 -0.2568960E-01  0.1908119E+02  0.2543894E+01  0.1577314E+02 -0.1073779E+02
 -0.1272720E+02 -0.8504060E+01 -0.2568960E-01  0.1885567E+02  0.2519101E+01  0.1531887E+02 -0.1099401E+02
 -0.1183240E+02 -0.9710600E+01 -0.2568960E-01  0.1850964E+02  0.2491802E+01  0.1473758E+02 -0.1119869E+02
 -0.1082360E+02 -0.1082360E+02 -0.2568960E-01  0.1797325E+02  0.2464096E+01  0.1400375E+02 -0.1126644E+02
 -0.9710600E+01 -0.1183240E+02 -0.2568960E-01  0.1744156E+02  0.2430580E+01  0.1321549E+02 -0.1138239E+02
 -0.8504050E+01 -0.1272720E+02 -0.2568960E-01  0.1678685E+02  0.2394050E+01  0.1231083E+02 -0.1141236E+02
 -0.7215620E+01 -0.1349950E+02 -0.2568960E-01  0.1587882E+02  0.2356458E+01  0.1123098E+02 -0.1122506E+02
 -0.5857690E+01 -0.1414170E+02 -0.2568960E-01  0.1494694E+02  0.2311362E+01  0.1008479E+02 -0.1103214E+02
 -0.4443360E+01 -0.1464780E+02 -0.2568960E-01  0.1363974E+02  0.2263783E+01  0.8713579E+01 -0.1049362E+02
 -0.2986230E+01 -0.1501280E+02 -0.2568960E-01  0.1148517E+02  0.2215920E+01  0.6906004E+01 -0.9176945E+01
 -0.1500340E+01 -0.1523320E+02 -0.2568960E-01  0.4672788E+01  0.2255723E+01  0.2956083E+01 -0.3618911E+01
  0.1825330E-06 -0.1530690E+02 -0.2568960E-01  0.2105487E-04 -0.1306220E+01 -0.5505863E-05  0.2032223E-04
  0.1500340E+01 -0.1523320E+02 -0.2568960E-01  0.4672803E+01 -0.8858737E+00 -0.2956076E+01  0.3618936E+01
  0.2986230E+01 -0.1501280E+02 -0.2568960E-01  0.1148518E+02 -0.9256755E+00 -0.6905982E+01  0.9176971E+01
  0.4443360E+01 -0.1464780E+02 -0.2568960E-01  0.1363977E+02 -0.8778062E+00 -0.8713638E+01  0.1049361E+02
  0.5857700E+01 -0.1414170E+02 -0.2568960E-01  0.1494696E+02 -0.8302325E+00 -0.1008478E+02  0.1103218E+02
  0.7215620E+01 -0.1349950E+02 -0.2568960E-01  0.1587881E+02 -0.7851384E+00 -0.1123093E+02  0.1122509E+02
  0.8504060E+01 -0.1272720E+02 -0.2568960E-01  0.1678692E+02 -0.7475404E+00 -0.1231091E+02  0.1141237E+02
  0.9710600E+01 -0.1183240E+02 -0.2568960E-01  0.1744158E+02 -0.7110116E+00 -0.1321552E+02  0.1138238E+02
  0.1082360E+02 -0.1082360E+02 -0.2568960E-01  0.1797324E+02 -0.6774992E+00 -0.1400372E+02  0.1126646E+02
  0.1183240E+02 -0.9710590E+01 -0.2568960E-01  0.1850967E+02 -0.6497889E+00 -0.1473761E+02  0.1119869E+02
  0.1272720E+02 -0.8504060E+01 -0.2568960E-01  0.1885568E+02 -0.6224923E+00 -0.1531888E+02  0.1099403E+02
  0.1349950E+02 -0.7215620E+01 -0.2568960E-01  0.1908115E+02 -0.5977001E+00 -0.1577309E+02  0.1073778E+02
  0.1414170E+02 -0.5857700E+01 -0.2568960E-01  0.1932548E+02 -0.5795274E+00 -0.1617004E+02  0.1058318E+02
  0.1464780E+02 -0.4443350E+01 -0.2568960E-01  0.1954537E+02 -0.5663696E+00 -0.1649345E+02  0.1048750E+02
  0.1501280E+02 -0.2986230E+01 -0.2568960E-01  0.1971390E+02 -0.5571774E+00 -0.1673219E+02  0.1042456E+02
  0.1523320E+02 -0.1500330E+01 -0.2568960E-01  0.1981142E+02 -0.5513003E+00 -0.1687624E+02  0.1037713E+02
  0.1530690E+02  0.0000000E+00 -0.1027320E+00  0.1975466E+02 -0.5495385E+00 -0.1684610E+02  0.1031774E+02
  0.1523320E+02  0.1500340E+01 -0.1027320E+00  0.1972085E+02 -0.5514686E+00 -0.1679735E+02  0.1033251E+02
  0.1501280E+02  0.2986230E+01 -0.1027320E+00  0.1962389E+02 -0.5573484E+00 -0.1665402E+02  0.1037982E+02
  0.1464780E+02  0.4443360E+01 -0.1027320E+00  0.1945649E+02 -0.5665426E+00 -0.1641664E+02  0.1044265E+02
  0.1414170E+02  0.5857700E+01 -0.1027320E+00  0.1923759E+02 -0.5796955E+00 -0.1609473E+02  0.1053776E+02
  0.1349950E+02  0.7215620E+01 -0.1027320E+00  0.1899350E+02 -0.5978378E+00 -0.1569917E+02  0.1069062E+02
  0.1272720E+02  0.8504060E+01 -0.1027320E+00  0.1876636E+02 -0.6225469E+00 -0.1524572E+02  0.1094278E+02
  0.1183240E+02  0.9710600E+01 -0.1027320E+00  0.1842125E+02 -0.6498247E+00 -0.1466681E+02  0.1114572E+02
  0.1082360E+02  0.1082360E+02 -0.1027320E+00  0.1788964E+02 -0.6775856E+00 -0.1393761E+02  0.1121526E+02
  0.9710590E+01  0.1183240E+02 -0.1027320E+00  0.1735932E+02 -0.7110658E+00 -0.1315258E+02  0.1132942E+02
  0.8504060E+01  0.1272720E+02 -0.1027320E+00  0.1670725E+02 -0.7475827E+00 -0.1225200E+02  0.1135872E+02
  0.7215620E+01  0.1349950E+02 -0.1027320E+00  0.1580777E+02 -0.7852560E+00 -0.1117937E+02  0.1117619E+02
  0.5857700E+01  0.1414170E+02 -0.1027320E+00  0.1488034E+02 -0.8303376E+00 -0.1003867E+02  0.1098406E+02
  0.4443360E+01  0.1464780E+02 -0.1027320E+00  0.1358225E+02 -0.8779528E+00 -0.8675356E+01  0.1045063E+02
  0.2986230E+01  0.1501280E+02 -0.1027320E+00  0.1143459E+02 -0.9257606E+00 -0.6874786E+01  0.9137135E+01
  0.1500340E+01  0.1523320E+02 -0.1027320E+00  0.4656285E+01 -0.8861657E+00 -0.2944574E+01  0.3607003E+01
 -0.6690860E-06  0.1530690E+02 -0.1027320E+00  0.4020376E-04  0.2892800E+01  0.3896590E-04 -0.9899549E-05
 -0.1500340E+01  0.1523320E+02 -0.1027320E+00  0.4656311E+01  0.2255430E+01  0.2944602E+01 -0.3607014E+01
 -0.2986230E+01  0.1501280E+02 -0.1027320E+00  0.1143462E+02  0.2215832E+01  0.6874806E+01 -0.9137155E+01
 -0.4443360E+01  0.1464780E+02 -0.1027320E+00  0.1358223E+02  0.2263639E+01  0.8675341E+01 -0.1045062E+02
 -0.5857700E+01  0.1414170E+02 -0.1027320E+00  0.1488032E+02  0.2311253E+01  0.1003864E+02 -0.1098407E+02
 -0.7215620E+01  0.1349950E+02 -0.1027320E+00  0.1580774E+02  0.2356334E+01  0.1117931E+02 -0.1117620E+02
 -0.8504060E+01  0.1272720E+02 -0.1027320E+00  0.1670727E+02  0.2394012E+01  0.1225204E+02 -0.1135871E+02
 -0.9710590E+01  0.1183240E+02 -0.1027320E+00  0.1735932E+02  0.2430526E+01  0.1315257E+02 -0.1132942E+02
 -0.1082360E+02  0.1082360E+02 -0.1027320E+00  0.1788965E+02  0.2464008E+01  0.1393763E+02 -0.1121526E+02
 -0.1183240E+02  0.9710590E+01 -0.1027320E+00  0.1842126E+02  0.2491769E+01  0.1466683E+02 -0.1114572E+02
 -0.1272720E+02  0.8504060E+01 -0.1027320E+00  0.1876635E+02  0.2519043E+01  0.1524568E+02 -0.1094281E+02
 -0.1349950E+02  0.7215620E+01 -0.1027320E+00  0.1899348E+02  0.2543754E+01  0.1569914E+02 -0.1069062E+02
 -0.1414170E+02  0.5857690E+01 -0.1027320E+00  0.1923764E+02  0.2561898E+01  0.1609479E+02 -0.1053777E+02
 -0.1464780E+02  0.4443360E+01 -0.1027320E+00  0.1945650E+02  0.2575049E+01  0.1641664E+02 -0.1044267E+02
 -0.1501280E+02  0.2986230E+01 -0.1027320E+00  0.1962389E+02  0.2584244E+01  0.1665402E+02 -0.1037983E+02
 -0.1523320E+02  0.1500340E+01 -0.1027320E+00  0.1972088E+02  0.2590125E+01  0.1679739E+02 -0.1033252E+02
 -0.1530690E+02 -0.1338170E-05 -0.1027320E+00  0.1975461E+02  0.2592055E+01  0.1684606E+02 -0.1031769E+02
 -0.1523320E+02 -0.1500340E+01 -0.1027320E+00  0.1972087E+02  0.2590124E+01  0.1679737E+02 -0.1033253E+02
 -0.1501280E+02 -0.2986230E+01 -0.1027320E+00  0.1962387E+02  0.2584244E+01  0.1665401E+02 -0.1037981E+02
 -0.1464780E+02 -0.4443360E+01 -0.1027320E+00  0.1945651E+02  0.2575048E+01  0.1641664E+02 -0.1044269E+02
 -0.1414170E+02 -0.5857700E+01 -0.1027320E+00  0.1923761E+02  0.2561899E+01  0.1609477E+02 -0.1053774E+02
 -0.1349950E+02 -0.7215620E+01 -0.1027320E+00  0.1899348E+02  0.2543753E+01  0.1569913E+02 -0.1069063E+02
 -0.1272720E+02 -0.8504060E+01 -0.1027320E+00  0.1876632E+02  0.2519044E+01  0.1524566E+02 -0.1094279E+02
 -0.1183240E+02 -0.9710600E+01 -0.1027320E+00  0.1842127E+02  0.2491769E+01  0.1466684E+02 -0.1114571E+02
 -0.1082360E+02 -0.1082360E+02 -0.1027320E+00  0.1788963E+02  0.2464006E+01  0.1393760E+02 -0.1121527E+02
 -0.9710600E+01 -0.1183240E+02 -0.1027320E+00  0.1735928E+02  0.2430526E+01  0.1315254E+02 -0.1132940E+02
 -0.8504050E+01 -0.1272720E+02 -0.1027320E+00  0.1670723E+02  0.2394010E+01  0.1225199E+02 -0.1135871E+02
 -0.7215620E+01 -0.1349950E+02 -0.1027320E+00  0.1580773E+02  0.2356335E+01  0.1117932E+02 -0.1117618E+02
 -0.5857690E+01 -0.1414170E+02 -0.1027320E+00  0.1488032E+02  0.2311252E+01  0.1003862E+02 -0.1098408E+02
 -0.4443360E+01 -0.1464780E+02 -0.1027320E+00  0.1358218E+02  0.2263638E+01  0.8675293E+01 -0.1045060E+02
 -0.2986230E+01 -0.1501280E+02 -0.1027320E+00  0.1143460E+02  0.2215832E+01  0.6874788E+01 -0.9137141E+01
 -0.1500340E+01 -0.1523320E+02 -0.1027320E+00  0.4656305E+01  0.2255429E+01  0.2944592E+01 -0.3607014E+01
  0.1825330E-06 -0.1530690E+02 -0.1027320E+00  0.1613707E-04 -0.3001090E+01  0.1597805E-04  0.2259848E-05
  0.1500340E+01 -0.1523320E+02 -0.1027320E+00  0.4656315E+01 -0.8861629E+00 -0.2944603E+01  0.3607019E+01
  0.2986230E+01 -0.1501280E+02 -0.1027320E+00  0.1143460E+02 -0.9257615E+00 -0.6874784E+01  0.9137148E+01
  0.4443360E+01 -0.1464780E+02 -0.1027320E+00  0.1358222E+02 -0.8779561E+00 -0.8675307E+01  0.1045064E+02
  0.5857700E+01 -0.1414170E+02 -0.1027320E+00  0.1488032E+02 -0.8303401E+00 -0.1003864E+02  0.1098407E+02
  0.7215620E+01 -0.1349950E+02 -0.1027320E+00  0.1580777E+02 -0.7852571E+00 -0.1117936E+02  0.1117620E+02
  0.8504060E+01 -0.1272720E+02 -0.1027320E+00  0.1670725E+02 -0.7475827E+00 -0.1225200E+02  0.1135872E+02
  0.9710600E+01 -0.1183240E+02 -0.1027320E+00  0.1735931E+02 -0.7110661E+00 -0.1315257E+02  0.1132941E+02
  0.1082360E+02 -0.1082360E+02 -0.1027320E+00  0.1788964E+02 -0.6775869E+00 -0.1393760E+02  0.1121528E+02
  0.1183240E+02 -0.9710590E+01 -0.1027320E+00  0.1842125E+02 -0.6498240E+00 -0.1466682E+02  0.1114571E+02
  0.1272720E+02 -0.8504060E+01 -0.1027320E+00  0.1876635E+02 -0.6225464E+00 -0.1524571E+02  0.1094277E+02
