 VARIABLES="X" "Y" "Z" "abs(eta) (m)" "angle(phi) (rad)" "PRE1" "PRE2"
ZONE N=   3200 ,E =    3136 ,F=FEPOINT,ET=QUADRILATERAL
  0.1672760E+02  0.0000000E+00  0.0000000E+00  0.3135460E+00 -0.9184892E+00 -0.1903291E+00  0.2491704E+00
  0.1664710E+02  0.1639590E+01  0.0000000E+00  0.3106033E+00 -0.9136182E+00 -0.1897430E+00  0.2459106E+00
  0.1640620E+02  0.3263390E+01  0.0000000E+00  0.3063971E+00 -0.9120598E+00 -0.1875512E+00  0.2422885E+00
  0.1600730E+02  0.4855770E+01  0.0000000E+00  0.3023146E+00 -0.9145748E+00 -0.1844505E+00  0.2395248E+00
  0.1545430E+02  0.6401380E+01  0.0000000E+00  0.2987489E+00 -0.9215542E+00 -0.1806185E+00  0.2379661E+00
  0.1475240E+02  0.7885340E+01  0.0000000E+00  0.2947053E+00 -0.9320537E+00 -0.1756993E+00  0.2366030E+00
  0.1390850E+02  0.9293360E+01  0.0000000E+00  0.2878381E+00 -0.9450513E+00 -0.1685871E+00  0.2333005E+00
  0.1293060E+02  0.1061190E+02  0.0000000E+00  0.2756566E+00 -0.9604612E+00 -0.1579904E+00  0.2258884E+00
  0.1182820E+02  0.1182820E+02  0.0000000E+00  0.2632959E+00 -0.9798546E+00 -0.1466935E+00  0.2186452E+00
  0.1061190E+02  0.1293060E+02  0.0000000E+00  0.2494133E+00 -0.1003124E+01 -0.1341022E+00  0.2102940E+00
  0.9293360E+01  0.1390850E+02  0.0000000E+00  0.2306204E+00 -0.1032177E+01 -0.1182970E+00  0.1979686E+00
  0.7885330E+01  0.1475240E+02  0.0000000E+00  0.2096011E+00 -0.1068258E+01 -0.1009547E+00  0.1836866E+00
  0.6401380E+01  0.1545430E+02  0.0000000E+00  0.1812790E+00 -0.1119231E+01 -0.7910547E-01  0.1631085E+00
  0.4855770E+01  0.1600730E+02  0.0000000E+00  0.1410263E+00 -0.1208933E+01 -0.4992574E-01  0.1318933E+00
  0.3263390E+01  0.1640620E+02  0.0000000E+00  0.8266805E-01 -0.1476768E+01 -0.7761721E-02  0.8230287E-01
  0.1639590E+01  0.1664710E+02  0.0000000E+00  0.5073628E-01 -0.2881743E+01  0.4903299E-01  0.1303596E-01
 -0.7311870E-06  0.1672760E+02  0.0000000E+00  0.1067298E+00  0.2715798E+01  0.9720003E-01 -0.4408416E-01
 -0.1639590E+01  0.1664710E+02  0.0000000E+00  0.1559959E+00  0.2572479E+01  0.1314077E+00 -0.8406395E-01
 -0.3263390E+01  0.1640620E+02  0.0000000E+00  0.1892201E+00  0.2515349E+01  0.1533127E+00 -0.1109029E+00
 -0.4855770E+01  0.1600730E+02  0.0000000E+00  0.2045942E+00  0.2496717E+01  0.1635066E+00 -0.1229813E+00
 -0.6401380E+01  0.1545430E+02  0.0000000E+00  0.2142196E+00  0.2490688E+01  0.1704194E+00 -0.1297969E+00
 -0.7885340E+01  0.1475240E+02  0.0000000E+00  0.2185917E+00  0.2493839E+01  0.1743140E+00 -0.1318975E+00
 -0.9293360E+01  0.1390850E+02  0.0000000E+00  0.2206283E+00  0.2500356E+01  0.1768020E+00 -0.1319769E+00
 -0.1061190E+02  0.1293060E+02  0.0000000E+00  0.2233799E+00  0.2504933E+01  0.1796167E+00 -0.1328022E+00
 -0.1182820E+02  0.1182820E+02  0.0000000E+00  0.2236843E+00  0.2511902E+01  0.1807838E+00 -0.1317265E+00
 -0.1293060E+02  0.1061190E+02  0.0000000E+00  0.2233075E+00  0.2518510E+01  0.1813443E+00 -0.1303092E+00
 -0.1390850E+02  0.9293360E+01  0.0000000E+00  0.2226643E+00  0.2523153E+01  0.1814233E+00 -0.1290928E+00
 -0.1475240E+02  0.7885330E+01  0.0000000E+00  0.2188985E+00  0.2531724E+01  0.1794363E+00 -0.1253762E+00
 -0.1545430E+02  0.6401370E+01  0.0000000E+00  0.2137212E+00  0.2541237E+01  0.1763487E+00 -0.1207388E+00
 -0.1600730E+02  0.4855770E+01  0.0000000E+00  0.2085348E+00  0.2547582E+01  0.1728134E+00 -0.1167146E+00
 -0.1640620E+02  0.3263390E+01  0.0000000E+00  0.2036832E+00  0.2548373E+01  0.1688829E+00 -0.1138657E+00
 -0.1664710E+02  0.1639590E+01  0.0000000E+00  0.1986596E+00  0.2545639E+01  0.1644133E+00 -0.1115073E+00
 -0.1672760E+02 -0.1462370E-05  0.0000000E+00  0.1930387E+00  0.2541313E+01  0.1592912E+00 -0.1090425E+00
 -0.1664710E+02 -0.1639590E+01  0.0000000E+00  0.1867602E+00  0.2536268E+01  0.1535762E+00 -0.1062720E+00
 -0.1640620E+02 -0.3263400E+01  0.0000000E+00  0.1798287E+00  0.2530788E+01  0.1473133E+00 -0.1031365E+00
 -0.1600730E+02 -0.4855770E+01  0.0000000E+00  0.1726275E+00  0.2518679E+01  0.1402050E+00 -0.1007115E+00
 -0.1545430E+02 -0.6401380E+01  0.0000000E+00  0.1654692E+00  0.2497841E+01  0.1323505E+00 -0.9931463E-01
 -0.1475240E+02 -0.7885340E+01  0.0000000E+00  0.1579113E+00  0.2472174E+01  0.1238313E+00 -0.9798875E-01
 -0.1390850E+02 -0.9293360E+01  0.0000000E+00  0.1488954E+00  0.2452191E+01  0.1148916E+00 -0.9470875E-01
 -0.1293060E+02 -0.1061190E+02  0.0000000E+00  0.1372093E+00  0.2451428E+01  0.1058077E+00 -0.8735628E-01
 -0.1182820E+02 -0.1182820E+02  0.0000000E+00  0.1251571E+00  0.2446869E+01  0.9614954E-01 -0.8012217E-01
 -0.1061190E+02 -0.1293060E+02  0.0000000E+00  0.1120741E+00  0.2446727E+01  0.8608852E-01 -0.7175907E-01
 -0.9293350E+01 -0.1390850E+02  0.0000000E+00  0.9660625E-01  0.2478789E+01  0.7615183E-01 -0.5944465E-01
 -0.7885340E+01 -0.1475240E+02  0.0000000E+00  0.8033923E-01  0.2543844E+01  0.6640877E-01 -0.4521358E-01
 -0.6401370E+01 -0.1545430E+02  0.0000000E+00  0.6272618E-01  0.2735169E+01  0.5761653E-01 -0.2479737E-01
 -0.4855760E+01 -0.1600730E+02  0.0000000E+00  0.5073475E-01 -0.3021338E+01  0.5036835E-01  0.6086398E-02
 -0.3263390E+01 -0.1640620E+02  0.0000000E+00  0.7263388E-01 -0.2282140E+01  0.4741919E-01  0.5501910E-01
 -0.1639590E+01 -0.1664710E+02  0.0000000E+00  0.1322425E+00 -0.1933735E+01  0.4694913E-01  0.1236279E+00
  0.1994750E-06 -0.1672760E+02  0.0000000E+00  0.1849028E+00 -0.1779744E+01  0.3835446E-01  0.1808812E+00
  0.1639600E+01 -0.1664710E+02  0.0000000E+00  0.2226702E+00 -0.1649417E+01  0.1748838E-01  0.2219824E+00
  0.3263390E+01 -0.1640620E+02  0.0000000E+00  0.2510067E+00 -0.1517186E+01 -0.1345006E-01  0.2506461E+00
  0.4855770E+01 -0.1600730E+02  0.0000000E+00  0.2678047E+00 -0.1408261E+01 -0.4333629E-01  0.2642751E+00
  0.6401380E+01 -0.1545430E+02  0.0000000E+00  0.2804219E+00 -0.1326800E+01 -0.6774510E-01  0.2721159E+00
  0.7885340E+01 -0.1475240E+02  0.0000000E+00  0.2889185E+00 -0.1258100E+01 -0.8887871E-01  0.2749081E+00
  0.9293360E+01 -0.1390850E+02  0.0000000E+00  0.2955484E+00 -0.1199344E+01 -0.1072750E+00  0.2753923E+00
  0.1061190E+02 -0.1293060E+02  0.0000000E+00  0.3026484E+00 -0.1151048E+01 -0.1233384E+00  0.2763760E+00
  0.1182820E+02 -0.1182820E+02  0.0000000E+00  0.3076553E+00 -0.1107850E+01 -0.1373947E+00  0.2752717E+00
  0.1293060E+02 -0.1061190E+02  0.0000000E+00  0.3119842E+00 -0.1070060E+01 -0.1497746E+00  0.2736817E+00
  0.1390850E+02 -0.9293360E+01  0.0000000E+00  0.3161435E+00 -0.1037178E+01 -0.1608071E+00  0.2721907E+00
  0.1475240E+02 -0.7885330E+01  0.0000000E+00  0.3173506E+00 -0.1006096E+01 -0.1698342E+00  0.2680816E+00
  0.1545430E+02 -0.6401380E+01  0.0000000E+00  0.3169250E+00 -0.9783788E+00 -0.1769609E+00  0.2629189E+00
  0.1600730E+02 -0.4855760E+01  0.0000000E+00  0.3162500E+00 -0.9558932E+00 -0.1824381E+00  0.2583222E+00
  0.1640620E+02 -0.3263390E+01  0.0000000E+00  0.3158965E+00 -0.9391295E+00 -0.1865340E+00  0.2549425E+00
  0.1664710E+02 -0.1639590E+01  0.0000000E+00  0.3152371E+00 -0.9268495E+00 -0.1892546E+00  0.2521053E+00
  0.1672760E+02  0.0000000E+00 -0.2568960E-01  0.3131422E+00 -0.9185222E+00 -0.1900758E+00  0.2488558E+00
  0.1664710E+02  0.1639590E+01 -0.2568960E-01  0.3102049E+00 -0.9136474E+00 -0.1894924E+00  0.2456007E+00
  0.1640620E+02  0.3263390E+01 -0.2568960E-01  0.3060072E+00 -0.9120853E+00 -0.1873064E+00  0.2419849E+00
  0.1600730E+02  0.4855770E+01 -0.2568960E-01  0.3019253E+00 -0.9146026E+00 -0.1842063E+00  0.2392215E+00
  0.1545430E+02  0.6401380E+01 -0.2568960E-01  0.2983523E+00 -0.9215721E+00 -0.1803744E+00  0.2376534E+00
  0.1475240E+02  0.7885340E+01 -0.2568960E-01  0.2942969E+00 -0.9320651E+00 -0.1754531E+00  0.2362771E+00
  0.1390850E+02  0.9293360E+01 -0.2568960E-01  0.2874328E+00 -0.9450558E+00 -0.1683487E+00  0.2329728E+00
  0.1293060E+02  0.1061190E+02 -0.2568960E-01  0.2752883E+00 -0.9604667E+00 -0.1577781E+00  0.2255875E+00
  0.1182820E+02  0.1182820E+02 -0.2568960E-01  0.2629475E+00 -0.9798599E+00 -0.1464983E+00  0.2183567E+00
  0.1061190E+02  0.1293060E+02 -0.2568960E-01  0.2490759E+00 -0.1003136E+01 -0.1339183E+00  0.2100112E+00
  0.9293360E+01  0.1390850E+02 -0.2568960E-01  0.2303251E+00 -0.1032179E+01 -0.1181452E+00  0.1977153E+00
  0.7885330E+01  0.1475240E+02 -0.2568960E-01  0.2093259E+00 -0.1068265E+01 -0.1008208E+00  0.1834461E+00
  0.6401380E+01  0.1545430E+02 -0.2568960E-01  0.1810453E+00 -0.1119228E+01 -0.7900411E-01  0.1628980E+00
  0.4855770E+01  0.1600730E+02 -0.2568960E-01  0.1408582E+00 -0.1208906E+01 -0.4986986E-01  0.1317347E+00
  0.3263390E+01  0.1640620E+02 -0.2568960E-01  0.8255147E-01 -0.1476837E+01 -0.7745056E-02  0.8218735E-01
  0.1639590E+01  0.1664710E+02 -0.2568960E-01  0.5068118E-01 -0.2882306E+01  0.4898706E-01  0.1299421E-01
 -0.7311870E-06  0.1672760E+02 -0.2568960E-01  0.1066189E+00  0.2715646E+01  0.9709233E-01 -0.4405310E-01
 -0.1639590E+01  0.1664710E+02 -0.2568960E-01  0.1558347E+00  0.2572374E+01  0.1312631E+00 -0.8399083E-01
 -0.3263390E+01  0.1640620E+02 -0.2568960E-01  0.1889872E+00  0.2515312E+01  0.1531199E+00 -0.1107720E+00
 -0.4855770E+01  0.1600730E+02 -0.2568960E-01  0.2043554E+00  0.2496666E+01  0.1633095E+00 -0.1228461E+00
 -0.6401380E+01  0.1545430E+02 -0.2568960E-01  0.2139482E+00  0.2490665E+01  0.1702006E+00 -0.1296365E+00
 -0.7885340E+01  0.1475240E+02 -0.2568960E-01  0.2183153E+00  0.2493816E+01  0.1740906E+00 -0.1317348E+00
 -0.9293360E+01  0.1390850E+02 -0.2568960E-01  0.2203533E+00  0.2500326E+01  0.1765776E+00 -0.1318177E+00
 -0.1061190E+02  0.1293060E+02 -0.2568960E-01  0.2230878E+00  0.2504920E+01  0.1793801E+00 -0.1326309E+00
 -0.1182820E+02  0.1182820E+02 -0.2568960E-01  0.2233914E+00  0.2511891E+01  0.1805457E+00 -0.1315560E+00
 -0.1293060E+02  0.1061190E+02 -0.2568960E-01  0.2230100E+00  0.2518503E+01  0.1811017E+00 -0.1301368E+00
 -0.1390850E+02  0.9293360E+01 -0.2568960E-01  0.2223581E+00  0.2523170E+01  0.1811760E+00 -0.1289124E+00
 -0.1475240E+02  0.7885330E+01 -0.2568960E-01  0.2186028E+00  0.2531728E+01  0.1791944E+00 -0.1252062E+00
 -0.1545430E+02  0.6401370E+01 -0.2568960E-01  0.2134447E+00  0.2541203E+01  0.1761166E+00 -0.1205885E+00
 -0.1600730E+02  0.4855770E+01 -0.2568960E-01  0.2082744E+00  0.2547525E+01  0.1725909E+00 -0.1165787E+00
 -0.1640620E+02  0.3263390E+01 -0.2568960E-01  0.2034315E+00  0.2548304E+01  0.1686663E+00 -0.1137367E+00
 -0.1664710E+02  0.1639590E+01 -0.2568960E-01  0.1984138E+00  0.2545564E+01  0.1642016E+00 -0.1113817E+00
 -0.1672760E+02 -0.1462370E-05 -0.2568960E-01  0.1928003E+00  0.2541229E+01  0.1590853E+00 -0.1089211E+00
 -0.1664710E+02 -0.1639590E+01 -0.2568960E-01  0.1865299E+00  0.2536173E+01  0.1533766E+00 -0.1061556E+00
 -0.1640620E+02 -0.3263400E+01 -0.2568960E-01  0.1796072E+00  0.2530681E+01  0.1471208E+00 -0.1030252E+00
 -0.1600730E+02 -0.4855770E+01 -0.2568960E-01  0.1724124E+00  0.2518583E+01  0.1400206E+00 -0.1005995E+00
 -0.1545430E+02 -0.6401380E+01 -0.2568960E-01  0.1652559E+00  0.2497793E+01  0.1321751E+00 -0.9919299E-01
 -0.1475240E+02 -0.7885340E+01 -0.2568960E-01  0.1577001E+00  0.2472203E+01  0.1236684E+00 -0.9785410E-01
 -0.1390850E+02 -0.9293360E+01 -0.2568960E-01  0.1486917E+00  0.2452251E+01  0.1147402E+00 -0.9457223E-01
 -0.1293060E+02 -0.1061190E+02 -0.2568960E-01  0.1370303E+00  0.2451394E+01  0.1056667E+00 -0.8724587E-01
 -0.1182820E+02 -0.1182820E+02 -0.2568960E-01  0.1249959E+00  0.2446811E+01  0.9602103E-01 -0.8002463E-01
 -0.1061190E+02 -0.1293060E+02 -0.2568960E-01  0.1119289E+00  0.2446704E+01  0.8597540E-01 -0.7166803E-01
 -0.9293350E+01 -0.1390850E+02 -0.2568960E-01  0.9648911E-01  0.2478661E+01  0.7605186E-01 -0.5938234E-01
 -0.7885340E+01 -0.1475240E+02 -0.2568960E-01  0.8024037E-01  0.2543746E+01  0.6632262E-01 -0.4516444E-01
 -0.6401370E+01 -0.1545430E+02 -0.2568960E-01  0.6264991E-01  0.2734984E+01  0.5754190E-01 -0.2477784E-01
 -0.4855760E+01 -0.1600730E+02 -0.2568960E-01  0.5066717E-01 -0.3021814E+01  0.5030414E-01  0.6054367E-02
 -0.3263390E+01 -0.1640620E+02 -0.2568960E-01  0.7254174E-01 -0.2282241E+01  0.4736457E-01  0.5494453E-01
 -0.1639590E+01 -0.1664710E+02 -0.2568960E-01  0.1320888E+00 -0.1933848E+01  0.4690855E-01  0.1234789E+00
  0.1994750E-06 -0.1672760E+02 -0.2568960E-01  0.1846802E+00 -0.1779845E+01  0.3832651E-01  0.1806595E+00
  0.1639600E+01 -0.1664710E+02 -0.2568960E-01  0.2224052E+00 -0.1649516E+01  0.1748958E-01  0.2217164E+00
  0.3263390E+01 -0.1640620E+02 -0.2568960E-01  0.2506814E+00 -0.1517231E+01 -0.1342133E-01  0.2503219E+00
  0.4855770E+01 -0.1600730E+02 -0.2568960E-01  0.2674680E+00 -0.1408300E+01 -0.4327160E-01  0.2639445E+00
  0.6401380E+01 -0.1545430E+02 -0.2568960E-01  0.2800523E+00 -0.1326825E+01 -0.6764906E-01  0.2717589E+00
  0.7885340E+01 -0.1475240E+02 -0.2568960E-01  0.2885375E+00 -0.1258129E+01 -0.8875340E-01  0.2745482E+00
  0.9293360E+01 -0.1390850E+02 -0.2568960E-01  0.2951612E+00 -0.1199379E+01 -0.1071249E+00  0.2750353E+00
  0.1061190E+02 -0.1293060E+02 -0.2568960E-01  0.3022407E+00 -0.1151067E+01 -0.1231671E+00  0.2760060E+00
  0.1182820E+02 -0.1182820E+02 -0.2568960E-01  0.3072412E+00 -0.1107867E+01 -0.1372050E+00  0.2749035E+00
  0.1293060E+02 -0.1061190E+02 -0.2568960E-01  0.3115615E+00 -0.1070068E+01 -0.1495696E+00  0.2733121E+00
  0.1390850E+02 -0.9293360E+01 -0.2568960E-01  0.3157046E+00 -0.1037175E+01 -0.1605845E+00  0.2718125E+00
  0.1475240E+02 -0.7885330E+01 -0.2568960E-01  0.3169160E+00 -0.1006101E+01 -0.1696002E+00  0.2677154E+00
  0.1545430E+02 -0.6401380E+01 -0.2568960E-01  0.3165033E+00 -0.9784005E+00 -0.1767197E+00  0.2625728E+00
  0.1600730E+02 -0.4855760E+01 -0.2568960E-01  0.3158381E+00 -0.9559265E+00 -0.1821919E+00  0.2579919E+00
  0.1640620E+02 -0.3263390E+01 -0.2568960E-01  0.3154877E+00 -0.9391677E+00 -0.1862828E+00  0.2546197E+00
  0.1664710E+02 -0.1639590E+01 -0.2568960E-01  0.3148300E+00 -0.9268830E+00 -0.1890018E+00  0.2517861E+00
  0.1672760E+02  0.0000000E+00 -0.1027320E+00  0.3119599E+00 -0.9186394E+00 -0.1893291E+00  0.2479384E+00
  0.1664710E+02  0.1639590E+01 -0.1027320E+00  0.3090397E+00 -0.9137584E+00 -0.1887535E+00  0.2446992E+00
  0.1640620E+02  0.3263390E+01 -0.1027320E+00  0.3048672E+00 -0.9121867E+00 -0.1865842E+00  0.2411024E+00
  0.1600730E+02  0.4855770E+01 -0.1027320E+00  0.3007907E+00 -0.9146819E+00 -0.1834951E+00  0.2383371E+00
  0.1545430E+02  0.6401380E+01 -0.1027320E+00  0.2971900E+00 -0.9216331E+00 -0.1796573E+00  0.2367385E+00
  0.1475240E+02  0.7885340E+01 -0.1027320E+00  0.2930980E+00 -0.9320984E+00 -0.1747305E+00  0.2353203E+00
  0.1390850E+02  0.9293360E+01 -0.1027320E+00  0.2862379E+00 -0.9450849E+00 -0.1676421E+00  0.2320092E+00
  0.1293060E+02  0.1061190E+02 -0.1027320E+00  0.2742000E+00 -0.9604994E+00 -0.1571470E+00  0.2247009E+00
  0.1182820E+02  0.1182820E+02 -0.1027320E+00  0.2619162E+00 -0.9798838E+00 -0.1459185E+00  0.2175037E+00
  0.1061190E+02  0.1293060E+02 -0.1027320E+00  0.2480779E+00 -0.1003166E+01 -0.1333756E+00  0.2091736E+00
  0.9293360E+01  0.1390850E+02 -0.1027320E+00  0.2294481E+00 -0.1032190E+01 -0.1176932E+00  0.1969638E+00
  0.7885330E+01  0.1475240E+02 -0.1027320E+00  0.2085064E+00 -0.1068286E+01 -0.1004224E+00  0.1827300E+00
  0.6401380E+01  0.1545430E+02 -0.1027320E+00  0.1803472E+00 -0.1119221E+01 -0.7870058E-01  0.1622693E+00
  0.4855770E+01  0.1600730E+02 -0.1027320E+00  0.1403529E+00 -0.1208814E+01 -0.4970300E-01  0.1312576E+00
  0.3263390E+01  0.1640620E+02 -0.1027320E+00  0.8221751E-01 -0.1476907E+01 -0.7708052E-02  0.8185539E-01
  0.1639590E+01  0.1664710E+02 -0.1027320E+00  0.5050784E-01 -0.2883765E+01  0.4883835E-01  0.1287853E-01
 -0.7311870E-06  0.1672760E+02 -0.1027320E+00  0.1062741E+00  0.2715232E+01  0.9676010E-01 -0.4395069E-01
 -0.1639590E+01  0.1664710E+02 -0.1027320E+00  0.1553412E+00  0.2572074E+01  0.1308222E+00 -0.8376415E-01
 -0.3263390E+01  0.1640620E+02 -0.1027320E+00  0.1882930E+00  0.2515182E+01  0.1525431E+00 -0.1103850E+00
 -0.4855770E+01  0.1600730E+02 -0.1027320E+00  0.2036345E+00  0.2496493E+01  0.1627120E+00 -0.1224410E+00
 -0.6401380E+01  0.1545430E+02 -0.1027320E+00  0.2131365E+00  0.2490576E+01  0.1695433E+00 -0.1291598E+00
 -0.7885340E+01  0.1475240E+02 -0.1027320E+00  0.2174912E+00  0.2493708E+01  0.1734193E+00 -0.1312561E+00
 -0.9293360E+01  0.1390850E+02 -0.1027320E+00  0.2195367E+00  0.2500197E+01  0.1759063E+00 -0.1313520E+00
 -0.1061190E+02  0.1293060E+02 -0.1027320E+00  0.2222210E+00  0.2504848E+01  0.1786736E+00 -0.1321284E+00
 -0.1182820E+02  0.1182820E+02 -0.1027320E+00  0.2225262E+00  0.2511809E+01  0.1798357E+00 -0.1310613E+00
 -0.1293060E+02  0.1061190E+02 -0.1027320E+00  0.2221344E+00  0.2518432E+01  0.1803816E+00 -0.1296386E+00
 -0.1390850E+02  0.9293360E+01 -0.1027320E+00  0.2214535E+00  0.2523152E+01  0.1804366E+00 -0.1283911E+00
 -0.1475240E+02  0.7885330E+01 -0.1027320E+00  0.2177345E+00  0.2531655E+01  0.1784734E+00 -0.1247219E+00
 -0.1545430E+02  0.6401370E+01 -0.1027320E+00  0.2126362E+00  0.2541029E+01  0.1754285E+00 -0.1201624E+00
 -0.1600730E+02  0.4855770E+01 -0.1027320E+00  0.2075119E+00  0.2547260E+01  0.1719283E+00 -0.1161975E+00
 -0.1640620E+02  0.3263390E+01 -0.1027320E+00  0.2026958E+00  0.2547997E+01  0.1680216E+00 -0.1133769E+00
 -0.1664710E+02  0.1639590E+01 -0.1027320E+00  0.1976968E+00  0.2545238E+01  0.1635721E+00 -0.1110324E+00
 -0.1672760E+02 -0.1462370E-05 -0.1027320E+00  0.1921027E+00  0.2540883E+01  0.1584722E+00 -0.1085818E+00
 -0.1664710E+02 -0.1639590E+01 -0.1027320E+00  0.1858556E+00  0.2535796E+01  0.1527824E+00 -0.1058293E+00
 -0.1640620E+02 -0.3263400E+01 -0.1027320E+00  0.1789585E+00  0.2530253E+01  0.1465455E+00 -0.1027160E+00
 -0.1600730E+02 -0.4855770E+01 -0.1027320E+00  0.1717836E+00  0.2518189E+01  0.1394704E+00 -0.1002876E+00
 -0.1545430E+02 -0.6401380E+01 -0.1027320E+00  0.1646347E+00  0.2497564E+01  0.1316556E+00 -0.9885032E-01
 -0.1475240E+02 -0.7885340E+01 -0.1027320E+00  0.1570788E+00  0.2472198E+01  0.1231807E+00 -0.9746920E-01
 -0.1390850E+02 -0.9293360E+01 -0.1027320E+00  0.1480921E+00  0.2452347E+01  0.1142865E+00 -0.9417997E-01
 -0.1293060E+02 -0.1061190E+02 -0.1027320E+00  0.1365035E+00  0.2451200E+01  0.1052436E+00 -0.8693091E-01
 -0.1182820E+02 -0.1182820E+02 -0.1027320E+00  0.1245221E+00  0.2446581E+01  0.9563879E-01 -0.7974323E-01
 -0.1061190E+02 -0.1293060E+02 -0.1027320E+00  0.1115004E+00  0.2446608E+01  0.8563942E-01 -0.7140194E-01
 -0.9293350E+01 -0.1390850E+02 -0.1027320E+00  0.9614277E-01  0.2478219E+01  0.7575274E-01 -0.5920265E-01
 -0.7885340E+01 -0.1475240E+02 -0.1027320E+00  0.7994846E-01  0.2543448E+01  0.6606796E-01 -0.4501979E-01
 -0.6401370E+01 -0.1545430E+02 -0.1027320E+00  0.6242037E-01  0.2734403E+01  0.5731671E-01 -0.2472038E-01
 -0.4855760E+01 -0.1600730E+02 -0.1027320E+00  0.5046756E-01 -0.3023206E+01  0.5011432E-01  0.5960730E-02
 -0.3263390E+01 -0.1640620E+02 -0.1027320E+00  0.7225342E-01 -0.2282624E+01  0.4719728E-01  0.5470808E-01
 -0.1639590E+01 -0.1664710E+02 -0.1027320E+00  0.1316199E+00 -0.1934169E+01  0.4678148E-01  0.1230256E+00
  0.1994750E-06 -0.1672760E+02 -0.1027320E+00  0.1840030E+00 -0.1780073E+01  0.3822713E-01  0.1799883E+00
  0.1639600E+01 -0.1664710E+02 -0.1027320E+00  0.2216066E+00 -0.1649791E+01  0.1748763E-01  0.2209155E+00
  0.3263390E+01 -0.1640620E+02 -0.1027320E+00  0.2497133E+00 -0.1517334E+01 -0.1334392E-01  0.2493565E+00
  0.4855770E+01 -0.1600730E+02 -0.1027320E+00  0.2664617E+00 -0.1408408E+01 -0.4308034E-01  0.2629561E+00
  0.6401380E+01 -0.1545430E+02 -0.1027320E+00  0.2789522E+00 -0.1326886E+01 -0.6736676E-01  0.2706955E+00
  0.7885340E+01 -0.1475240E+02 -0.1027320E+00  0.2874065E+00 -0.1258212E+01 -0.8838283E-01  0.2734794E+00
  0.9293360E+01 -0.1390850E+02 -0.1027320E+00  0.2940156E+00 -0.1199476E+01 -0.1066823E+00  0.2739782E+00
  0.1061190E+02 -0.1293060E+02 -0.1027320E+00  0.3010345E+00 -0.1151127E+01 -0.1226590E+00  0.2749119E+00
  0.1182820E+02 -0.1182820E+02 -0.1027320E+00  0.3060187E+00 -0.1107920E+01 -0.1366446E+00  0.2738168E+00
  0.1293060E+02 -0.1061190E+02 -0.1027320E+00  0.3103147E+00 -0.1070100E+01 -0.1489624E+00  0.2722231E+00
  0.1390850E+02 -0.9293360E+01 -0.1027320E+00  0.3144127E+00 -0.1037182E+01 -0.1599256E+00  0.2707012E+00
