 VARIABLES="X" "Y" "Z" "abs(eta) (m)" "angle(phi) (rad)" "PRE1" "PRE2"
ZONE N=   3200 ,E =    3136 ,F=FEPOINT,ET=QUADRILATERAL
  0.1672760E+02  0.0000000E+00  0.0000000E+00  0.3426464E+00  0.2480052E+01  0.2703639E+00 -0.2104992E+00
  0.1664710E+02  0.1639590E+01  0.0000000E+00  0.3362485E+00  0.2473546E+01  0.2639661E+00 -0.2082905E+00
  0.1640620E+02  0.3263390E+01  0.0000000E+00  0.3285326E+00  0.2465350E+01  0.2562324E+00 -0.2056177E+00
  0.1600730E+02  0.4855770E+01  0.0000000E+00  0.3204473E+00  0.2451139E+01  0.2470511E+00 -0.2040888E+00
  0.1545430E+02  0.6401380E+01  0.0000000E+00  0.3125850E+00  0.2429102E+01  0.2365443E+00 -0.2043432E+00
  0.1475240E+02  0.7885340E+01  0.0000000E+00  0.3040954E+00  0.2401929E+01  0.2246340E+00 -0.2049722E+00
  0.1390850E+02  0.9293360E+01  0.0000000E+00  0.2929140E+00  0.2376584E+01  0.2113012E+00 -0.2028557E+00
  0.1293060E+02  0.1061190E+02  0.0000000E+00  0.2767018E+00  0.2360856E+01  0.1965676E+00 -0.1947436E+00
  0.1182820E+02  0.1182820E+02  0.0000000E+00  0.2600008E+00  0.2339405E+01  0.1807358E+00 -0.1869090E+00
  0.1061190E+02  0.1293060E+02  0.0000000E+00  0.2415797E+00  0.2315668E+01  0.1637613E+00 -0.1776034E+00
  0.9293360E+01  0.1390850E+02  0.0000000E+00  0.2183988E+00  0.2301275E+01  0.1457214E+00 -0.1626755E+00
  0.7885330E+01  0.1475240E+02  0.0000000E+00  0.1931209E+00  0.2287176E+01  0.1268146E+00 -0.1456494E+00
  0.6401380E+01  0.1545430E+02  0.0000000E+00  0.1610425E+00  0.2299532E+01  0.1072425E+00 -0.1201405E+00
  0.4855770E+01  0.1600730E+02  0.0000000E+00  0.1179790E+00  0.2399106E+01  0.8692569E-01 -0.7976817E-01
  0.3263390E+01  0.1640620E+02  0.0000000E+00  0.6848878E-01  0.2926958E+01  0.6691726E-01 -0.1458743E-01
  0.1639590E+01  0.1664710E+02  0.0000000E+00  0.9359053E-01 -0.2089062E+01  0.4636236E-01  0.8130018E-01
 -0.7311870E-06  0.1672760E+02  0.0000000E+00  0.1693716E+00 -0.1699888E+01  0.2180378E-01  0.1679623E+00
 -0.1639590E+01  0.1664710E+02  0.0000000E+00  0.2404904E+00 -0.1531271E+01 -0.9503047E-02  0.2403025E+00
 -0.3263390E+01  0.1640620E+02  0.0000000E+00  0.3046179E+00 -0.1415545E+01 -0.4710270E-01  0.3009542E+00
 -0.4855770E+01  0.1600730E+02  0.0000000E+00  0.3455496E+00 -0.1328425E+01 -0.8293372E-01  0.3354497E+00
 -0.6401380E+01  0.1545430E+02  0.0000000E+00  0.3740405E+00 -0.1261079E+01 -0.1140036E+00  0.3562436E+00
 -0.7885340E+01  0.1475240E+02  0.0000000E+00  0.3933583E+00 -0.1202654E+01 -0.1415631E+00  0.3670023E+00
 -0.9293360E+01  0.1390850E+02  0.0000000E+00  0.4080823E+00 -0.1151277E+01 -0.1662209E+00  0.3726953E+00
 -0.1061190E+02  0.1293060E+02  0.0000000E+00  0.4227775E+00 -0.1108749E+01 -0.1884665E+00  0.3784457E+00
 -0.1182820E+02  0.1182820E+02  0.0000000E+00  0.4335040E+00 -0.1069695E+01 -0.2082519E+00  0.3802064E+00
 -0.1293060E+02  0.1061190E+02  0.0000000E+00  0.4429305E+00 -0.1035641E+01 -0.2258832E+00  0.3810042E+00
 -0.1390850E+02  0.9293360E+01  0.0000000E+00  0.4520156E+00 -0.1006726E+01 -0.2416611E+00  0.3819922E+00
 -0.1475240E+02  0.7885330E+01  0.0000000E+00  0.4561056E+00 -0.9779651E+00 -0.2548314E+00  0.3782768E+00
 -0.1545430E+02  0.6401370E+01  0.0000000E+00  0.4575396E+00 -0.9516120E+00 -0.2655427E+00  0.3725983E+00
 -0.1600730E+02  0.4855770E+01  0.0000000E+00  0.4586120E+00 -0.9302386E+00 -0.2740861E+00  0.3676980E+00
 -0.1640620E+02  0.3263390E+01  0.0000000E+00  0.4602270E+00 -0.9147663E+00 -0.2807273E+00  0.3646931E+00
 -0.1664710E+02  0.1639590E+01  0.0000000E+00  0.4614654E+00 -0.9040088E+00 -0.2854001E+00  0.3626253E+00
 -0.1672760E+02 -0.1462370E-05  0.0000000E+00  0.4612069E+00 -0.8966419E+00 -0.2879024E+00  0.3603110E+00
 -0.1664710E+02 -0.1639590E+01  0.0000000E+00  0.4591964E+00 -0.8922765E+00 -0.2882107E+00  0.3574856E+00
 -0.1640620E+02 -0.3263400E+01  0.0000000E+00  0.4554637E+00 -0.8908727E+00 -0.2863653E+00  0.3541780E+00
 -0.1600730E+02 -0.4855770E+01  0.0000000E+00  0.4518126E+00 -0.8936368E+00 -0.2830976E+00  0.3521227E+00
 -0.1545430E+02 -0.6401380E+01  0.0000000E+00  0.4489564E+00 -0.9011139E+00 -0.2786838E+00  0.3519903E+00
 -0.1475240E+02 -0.7885340E+01  0.0000000E+00  0.4455751E+00 -0.9120700E+00 -0.2727410E+00  0.3523486E+00
 -0.1390850E+02 -0.9293360E+01  0.0000000E+00  0.4383369E+00 -0.9247290E+00 -0.2639012E+00  0.3499935E+00
 -0.1293060E+02 -0.1061190E+02  0.0000000E+00  0.4236160E+00 -0.9380779E+00 -0.2505007E+00  0.3416137E+00
 -0.1182820E+02 -0.1182820E+02  0.0000000E+00  0.4085838E+00 -0.9551620E+00 -0.2359475E+00  0.3335708E+00
 -0.1061190E+02 -0.1293060E+02  0.0000000E+00  0.3914821E+00 -0.9752783E+00 -0.2195971E+00  0.3240916E+00
 -0.9293350E+01 -0.1390850E+02  0.0000000E+00  0.3676108E+00 -0.9982388E+00 -0.1991655E+00  0.3089836E+00
 -0.7885340E+01 -0.1475240E+02  0.0000000E+00  0.3413635E+00 -0.1025014E+01 -0.1771974E+00  0.2917706E+00
 -0.6401370E+01 -0.1545430E+02  0.0000000E+00  0.3053592E+00 -0.1057323E+01 -0.1499940E+00  0.2659812E+00
 -0.4855760E+01 -0.1600730E+02  0.0000000E+00  0.2524342E+00 -0.1101796E+01 -0.1140990E+00  0.2251765E+00
 -0.3263390E+01 -0.1640620E+02  0.0000000E+00  0.1716166E+00 -0.1188641E+01 -0.6399953E-01  0.1592367E+00
 -0.1639590E+01 -0.1664710E+02  0.0000000E+00  0.6285526E-01 -0.1653509E+01  0.5193011E-02  0.6264037E-01
  0.1994750E-06 -0.1672760E+02  0.0000000E+00  0.7452814E-01  0.2816492E+01  0.7062425E-01 -0.2380462E-01
  0.1639600E+01 -0.1664710E+02  0.0000000E+00  0.1592058E+00  0.2503855E+01  0.1279130E+00 -0.9478790E-01
  0.3263390E+01 -0.1640620E+02  0.0000000E+00  0.2336726E+00  0.2426231E+01  0.1763892E+00 -0.1532636E+00
  0.4855770E+01 -0.1600730E+02  0.0000000E+00  0.2778327E+00  0.2408690E+01  0.2064953E+00 -0.1858783E+00
  0.6401380E+01 -0.1545430E+02  0.0000000E+00  0.3064090E+00  0.2407056E+01  0.2273988E+00 -0.2053687E+00
  0.7885340E+01 -0.1475240E+02  0.0000000E+00  0.3237985E+00  0.2414690E+01  0.2419541E+00 -0.2151830E+00
  0.9293360E+01 -0.1390850E+02  0.0000000E+00  0.3354506E+00  0.2425342E+01  0.2530212E+00 -0.2202439E+00
  0.1061190E+02 -0.1293060E+02  0.0000000E+00  0.3469368E+00  0.2433554E+01  0.2635466E+00 -0.2256286E+00
  0.1182820E+02 -0.1182820E+02  0.0000000E+00  0.3535963E+00  0.2443645E+01  0.2709122E+00 -0.2272376E+00
  0.1293060E+02 -0.1061190E+02  0.0000000E+00  0.3588130E+00  0.2452835E+01  0.2770167E+00 -0.2280538E+00
  0.1390850E+02 -0.9293360E+01  0.0000000E+00  0.3636022E+00  0.2459596E+01  0.2822700E+00 -0.2291947E+00
  0.1475240E+02 -0.7885330E+01  0.0000000E+00  0.3626468E+00  0.2469613E+01  0.2838040E+00 -0.2257610E+00
  0.1545430E+02 -0.6401380E+01  0.0000000E+00  0.3588905E+00  0.2479912E+01  0.2831504E+00 -0.2205182E+00
  0.1600730E+02 -0.4855760E+01  0.0000000E+00  0.3548720E+00  0.2486660E+01  0.2814450E+00 -0.2161547E+00
  0.1640620E+02 -0.3263390E+01  0.0000000E+00  0.3513833E+00  0.2487780E+01  0.2789178E+00 -0.2137173E+00
  0.1664710E+02 -0.1639590E+01  0.0000000E+00  0.3476547E+00  0.2484961E+01  0.2753609E+00 -0.2122267E+00
  0.1672760E+02  0.0000000E+00 -0.2568960E-01  0.3422174E+00  0.2479983E+01  0.2700110E+00 -0.2102541E+00
  0.1664710E+02  0.1639590E+01 -0.2568960E-01  0.3358284E+00  0.2473472E+01  0.2636212E+00 -0.2080496E+00
  0.1640620E+02  0.3263390E+01 -0.2568960E-01  0.3281227E+00  0.2465268E+01  0.2558959E+00 -0.2053821E+00
  0.1600730E+02  0.4855770E+01 -0.2568960E-01  0.3200449E+00  0.2451069E+01  0.2467267E+00 -0.2038497E+00
  0.1545430E+02  0.6401380E+01 -0.2568960E-01  0.3121765E+00  0.2429059E+01  0.2362265E+00 -0.2040863E+00
  0.1475240E+02  0.7885340E+01 -0.2568960E-01  0.3036839E+00  0.2401946E+01  0.2243334E+00 -0.2046912E+00
  0.1390850E+02  0.9293360E+01 -0.2568960E-01  0.2925082E+00  0.2376617E+01  0.2110153E+00 -0.2025675E+00
  0.1293060E+02  0.1061190E+02 -0.2568960E-01  0.2763352E+00  0.2360828E+01  0.1963018E+00 -0.1944910E+00
  0.1182820E+02  0.1182820E+02 -0.2568960E-01  0.2596612E+00  0.2339368E+01  0.1804928E+00 -0.1866715E+00
  0.1061190E+02  0.1293060E+02 -0.2568960E-01  0.2412610E+00  0.2315650E+01  0.1635421E+00 -0.1773720E+00
  0.9293360E+01  0.1390850E+02 -0.2568960E-01  0.2181278E+00  0.2301200E+01  0.1455284E+00 -0.1624846E+00
  0.7885330E+01  0.1475240E+02 -0.2568960E-01  0.1928782E+00  0.2287129E+01  0.1266484E+00 -0.1454723E+00
  0.6401380E+01  0.1545430E+02 -0.2568960E-01  0.1608437E+00  0.2299455E+01  0.1071009E+00 -0.1200004E+00
  0.4855770E+01  0.1600730E+02 -0.2568960E-01  0.1178513E+00  0.2398884E+01  0.8681386E-01 -0.7970116E-01
  0.3263390E+01  0.1640620E+02 -0.2568960E-01  0.6840426E-01  0.2926889E+01  0.6683366E-01 -0.1457409E-01
  0.1639590E+01  0.1664710E+02 -0.2568960E-01  0.9347856E-01 -0.2089139E+01  0.4631315E-01  0.8119934E-01
 -0.7311870E-06  0.1672760E+02 -0.2568960E-01  0.1691634E+00 -0.1699943E+01  0.2178619E-01  0.1677547E+00
 -0.1639590E+01  0.1664710E+02 -0.2568960E-01  0.2402011E+00 -0.1531349E+01 -0.9472806E-02  0.2400142E+00
 -0.3263390E+01  0.1640620E+02 -0.2568960E-01  0.3042225E+00 -0.1415574E+01 -0.4703275E-01  0.3005649E+00
 -0.4855770E+01  0.1600730E+02 -0.2568960E-01  0.3451219E+00 -0.1328462E+01 -0.8281863E-01  0.3350376E+00
 -0.6401380E+01  0.1545430E+02 -0.2568960E-01  0.3735510E+00 -0.1261103E+01 -0.1138457E+00  0.3557801E+00
 -0.7885340E+01  0.1475240E+02 -0.2568960E-01  0.3928428E+00 -0.1202677E+01 -0.1413689E+00  0.3665246E+00
 -0.9293360E+01  0.1390850E+02 -0.2568960E-01  0.4075528E+00 -0.1151311E+01 -0.1659925E+00  0.3722174E+00
 -0.1061190E+02  0.1293060E+02 -0.2568960E-01  0.4222092E+00 -0.1108766E+01 -0.1882067E+00  0.3779402E+00
 -0.1182820E+02  0.1182820E+02 -0.2568960E-01  0.4329241E+00 -0.1069710E+01 -0.2079675E+00  0.3797009E+00
 -0.1293060E+02  0.1061190E+02 -0.2568960E-01  0.4423322E+00 -0.1035652E+01 -0.2255741E+00  0.3804919E+00
 -0.1390850E+02  0.9293360E+01 -0.2568960E-01  0.4513871E+00 -0.1006719E+01 -0.2413281E+00  0.3814592E+00
 -0.1475240E+02  0.7885330E+01 -0.2568960E-01  0.4554828E+00 -0.9779667E+00 -0.2544828E+00  0.3777606E+00
 -0.1545430E+02  0.6401370E+01 -0.2568960E-01  0.4569341E+00 -0.9516323E+00 -0.2651838E+00  0.3721106E+00
 -0.1600730E+02  0.4855770E+01 -0.2568960E-01  0.4580202E+00 -0.9302733E+00 -0.2737197E+00  0.3672330E+00
 -0.1640620E+02  0.3263390E+01 -0.2568960E-01  0.4596367E+00 -0.9148061E+00 -0.2803528E+00  0.3642365E+00
 -0.1664710E+02  0.1639590E+01 -0.2568960E-01  0.4608741E+00 -0.9040470E+00 -0.2850206E+00  0.3621715E+00
 -0.1672760E+02 -0.1462370E-05 -0.2568960E-01  0.4606144E+00 -0.8966790E+00 -0.2875192E+00  0.3598588E+00
 -0.1664710E+02 -0.1639590E+01 -0.2568960E-01  0.4586096E+00 -0.8923104E+00 -0.2878303E+00  0.3570385E+00
 -0.1640620E+02 -0.3263400E+01 -0.2568960E-01  0.4548856E+00 -0.8909035E+00 -0.2859910E+00  0.3537373E+00
 -0.1600730E+02 -0.4855770E+01 -0.2568960E-01  0.4512354E+00 -0.8936607E+00 -0.2827275E+00  0.3516796E+00
 -0.1545430E+02 -0.6401380E+01 -0.2568960E-01  0.4483636E+00 -0.9011292E+00 -0.2783105E+00  0.3515298E+00
 -0.1475240E+02 -0.7885340E+01 -0.2568960E-01  0.4449611E+00 -0.9120743E+00 -0.2723637E+00  0.3518642E+00
 -0.1390850E+02 -0.9293360E+01 -0.2568960E-01  0.4377212E+00 -0.9247284E+00 -0.2635307E+00  0.3495017E+00
 -0.1293060E+02 -0.1061190E+02 -0.2568960E-01  0.4230497E+00 -0.9380851E+00 -0.2501634E+00  0.3411588E+00
 -0.1182820E+02 -0.1182820E+02 -0.2568960E-01  0.4080418E+00 -0.9551732E+00 -0.2356308E+00  0.3331310E+00
 -0.1061190E+02 -0.1293060E+02 -0.2568960E-01  0.3909564E+00 -0.9752850E+00 -0.2193000E+00  0.3236578E+00
 -0.9293350E+01 -0.1390850E+02 -0.2568960E-01  0.3671424E+00 -0.9982448E+00 -0.1989098E+00  0.3085910E+00
 -0.7885340E+01 -0.1475240E+02 -0.2568960E-01  0.3409177E+00 -0.1025021E+01 -0.1769639E+00  0.2913909E+00
 -0.6401370E+01 -0.1545430E+02 -0.2568960E-01  0.3049662E+00 -0.1057330E+01 -0.1497994E+00  0.2656399E+00
 -0.4855760E+01 -0.1600730E+02 -0.2568960E-01  0.2521351E+00 -0.1101785E+01 -0.1139662E+00  0.2249084E+00
 -0.3263390E+01 -0.1640620E+02 -0.2568960E-01  0.1713854E+00 -0.1188654E+01 -0.6391111E-01  0.1590230E+00
 -0.1639590E+01 -0.1664710E+02 -0.2568960E-01  0.6275512E-01 -0.1653611E+01  0.5191129E-02  0.6254005E-01
  0.1994750E-06 -0.1672760E+02 -0.2568960E-01  0.7444928E-01  0.2816225E+01  0.7054316E-01 -0.2379825E-01
  0.1639600E+01 -0.1664710E+02 -0.2568960E-01  0.1590356E+00  0.2503735E+01  0.1277649E+00 -0.9470189E-01
  0.3263390E+01 -0.1640620E+02 -0.2568960E-01  0.2333825E+00  0.2426201E+01  0.1761656E+00 -0.1530787E+00
  0.4855770E+01 -0.1600730E+02 -0.2568960E-01  0.2775117E+00  0.2408643E+01  0.2062479E+00 -0.1856732E+00
  0.6401380E+01 -0.1545430E+02 -0.2568960E-01  0.3060195E+00  0.2407030E+01  0.2271045E+00 -0.2051135E+00
  0.7885340E+01 -0.1475240E+02 -0.2568960E-01  0.3233849E+00  0.2414662E+01  0.2416389E+00 -0.2149150E+00
  0.9293360E+01 -0.1390850E+02 -0.2568960E-01  0.3350302E+00  0.2425310E+01  0.2526971E+00 -0.2199760E+00
  0.1061190E+02 -0.1293060E+02 -0.2568960E-01  0.3464794E+00  0.2433543E+01  0.2631968E+00 -0.2253339E+00
  0.1182820E+02 -0.1182820E+02 -0.2568960E-01  0.3531334E+00  0.2443637E+01  0.2705558E+00 -0.2269423E+00
  0.1293060E+02 -0.1061190E+02 -0.2568960E-01  0.3583356E+00  0.2452829E+01  0.2766466E+00 -0.2277522E+00
  0.1390850E+02 -0.9293360E+01 -0.2568960E-01  0.3630966E+00  0.2459608E+01  0.2818803E+00 -0.2288725E+00
  0.1475240E+02 -0.7885330E+01 -0.2568960E-01  0.3621537E+00  0.2469613E+01  0.2834180E+00 -0.2254540E+00
  0.1545430E+02 -0.6401380E+01 -0.2568960E-01  0.3584235E+00  0.2479883E+01  0.2827756E+00 -0.2202393E+00
  0.1600730E+02 -0.4855760E+01 -0.2568960E-01  0.3544270E+00  0.2486609E+01  0.2810811E+00 -0.2158980E+00
  0.1640620E+02 -0.3263390E+01 -0.2568960E-01  0.3509439E+00  0.2487715E+01  0.2785550E+00 -0.2134683E+00
  0.1664710E+02 -0.1639590E+01 -0.2568960E-01  0.3472203E+00  0.2484896E+01  0.2750031E+00 -0.2119793E+00
  0.1672760E+02  0.0000000E+00 -0.1027320E+00  0.3409656E+00  0.2479703E+01  0.2689647E+00 -0.2095602E+00
  0.1664710E+02  0.1639590E+01 -0.1027320E+00  0.3346025E+00  0.2473175E+01  0.2625971E+00 -0.2073682E+00
  0.1640620E+02  0.3263390E+01 -0.1027320E+00  0.3269289E+00  0.2464946E+01  0.2548989E+00 -0.2047170E+00
  0.1600730E+02  0.4855770E+01 -0.1027320E+00  0.3188682E+00  0.2450778E+01  0.2457604E+00 -0.2031717E+00
  0.1545430E+02  0.6401380E+01 -0.1027320E+00  0.3109918E+00  0.2428890E+01  0.2352955E+00 -0.2033517E+00
  0.1475240E+02  0.7885340E+01 -0.1027320E+00  0.3024753E+00  0.2401928E+01  0.2234368E+00 -0.2038806E+00
  0.1390850E+02  0.9293360E+01 -0.1027320E+00  0.2913180E+00  0.2376672E+01  0.2101678E+00 -0.2017318E+00
  0.1293060E+02  0.1061190E+02 -0.1027320E+00  0.2752621E+00  0.2360713E+01  0.1955172E+00 -0.1937583E+00
  0.1182820E+02  0.1182820E+02 -0.1027320E+00  0.2586647E+00  0.2339230E+01  0.1797745E+00 -0.1859799E+00
  0.1061190E+02  0.1293060E+02 -0.1027320E+00  0.2403215E+00  0.2315575E+01  0.1628922E+00 -0.1766935E+00
  0.9293360E+01  0.1390850E+02 -0.1027320E+00  0.2173262E+00  0.2300943E+01  0.1449520E+00 -0.1619246E+00
  0.7885330E+01  0.1475240E+02 -0.1027320E+00  0.1921556E+00  0.2286963E+01  0.1261497E+00 -0.1449484E+00
  0.6401380E+01  0.1545430E+02 -0.1027320E+00  0.1602516E+00  0.2299225E+01  0.1066791E+00 -0.1195832E+00
  0.4855770E+01  0.1600730E+02 -0.1027320E+00  0.1174675E+00  0.2398250E+01  0.8648079E-01 -0.7949639E-01
  0.3263390E+01  0.1640620E+02 -0.1027320E+00  0.6815542E-01  0.2926426E+01  0.6658380E-01 -0.1455189E-01
  0.1639590E+01  0.1664710E+02 -0.1027320E+00  0.9313659E-01 -0.2089399E+01  0.4616472E-01  0.8089032E-01
 -0.7311870E-06  0.1672760E+02 -0.1027320E+00  0.1685339E+00 -0.1700113E+01  0.2173350E-01  0.1671267E+00
 -0.1639590E+01  0.1664710E+02 -0.1027320E+00  0.2393303E+00 -0.1531528E+01 -0.9395615E-02  0.2391458E+00
 -0.3263390E+01  0.1640620E+02 -0.1027320E+00  0.3030515E+00 -0.1415640E+01 -0.4683198E-01  0.2994111E+00
 -0.4855770E+01  0.1600730E+02 -0.1027320E+00  0.3438429E+00 -0.1328564E+01 -0.8247768E-01  0.3338044E+00
 -0.6401380E+01  0.1545430E+02 -0.1027320E+00  0.3720945E+00 -0.1261164E+01 -0.1133802E+00  0.3543998E+00
 -0.7885340E+01  0.1475240E+02 -0.1027320E+00  0.3913121E+00 -0.1202747E+01 -0.1407927E+00  0.3651063E+00
 -0.9293360E+01  0.1390850E+02 -0.1027320E+00  0.4059856E+00 -0.1151404E+01 -0.1653197E+00  0.3708014E+00
 -0.1061190E+02  0.1293060E+02 -0.1027320E+00  0.4205308E+00 -0.1108815E+01 -0.1874402E+00  0.3764469E+00
 -0.1182820E+02  0.1182820E+02 -0.1027320E+00  0.4312117E+00 -0.1069769E+01 -0.2071225E+00  0.3782114E+00
 -0.1293060E+02  0.1061190E+02 -0.1027320E+00  0.4405694E+00 -0.1035692E+01 -0.2246598E+00  0.3789847E+00
 -0.1390850E+02  0.9293360E+01 -0.1027320E+00  0.4495395E+00 -0.1006712E+01 -0.2403429E+00  0.3798961E+00
 -0.1475240E+02  0.7885330E+01 -0.1027320E+00  0.4536491E+00 -0.9779911E+00 -0.2534491E+00  0.3762460E+00
 -0.1545430E+02  0.6401370E+01 -0.1027320E+00  0.4551588E+00 -0.9517171E+00 -0.2641221E+00  0.3706873E+00
 -0.1600730E+02  0.4855770E+01 -0.1027320E+00  0.4562849E+00 -0.9304020E+00 -0.2726355E+00  0.3658767E+00
 -0.1640620E+02  0.3263390E+01 -0.1027320E+00  0.4579132E+00 -0.9149508E+00 -0.2792490E+00  0.3629111E+00
 -0.1664710E+02  0.1639590E+01 -0.1027320E+00  0.4591446E+00 -0.9041862E+00 -0.2839008E+00  0.3608519E+00
 -0.1672760E+02 -0.1462370E-05 -0.1027320E+00  0.4588889E+00 -0.8968112E+00 -0.2863947E+00  0.3585486E+00
 -0.1664710E+02 -0.1639590E+01 -0.1027320E+00  0.4568975E+00 -0.8924391E+00 -0.2867099E+00  0.3557425E+00
 -0.1640620E+02 -0.3263400E+01 -0.1027320E+00  0.4531982E+00 -0.8910254E+00 -0.2848871E+00  0.3524598E+00
 -0.1600730E+02 -0.4855770E+01 -0.1027320E+00  0.4495440E+00 -0.8937673E+00 -0.2816304E+00  0.3503914E+00
 -0.1545430E+02 -0.6401380E+01 -0.1027320E+00  0.4466265E+00 -0.9011981E+00 -0.2772081E+00  0.3501870E+00
 -0.1475240E+02 -0.7885340E+01 -0.1027320E+00  0.4431577E+00 -0.9121049E+00 -0.2712491E+00  0.3504464E+00
 -0.1390850E+02 -0.9293360E+01 -0.1027320E+00  0.4359103E+00 -0.9247445E+00 -0.2624348E+00  0.3480600E+00
 -0.1293060E+02 -0.1061190E+02 -0.1027320E+00  0.4213776E+00 -0.9381261E+00 -0.2491607E+00  0.3398206E+00
 -0.1182820E+02 -0.1182820E+02 -0.1027320E+00  0.4064430E+00 -0.9552100E+00 -0.2346953E+00  0.3318343E+00
 -0.1061190E+02 -0.1293060E+02 -0.1027320E+00  0.3893992E+00 -0.9753110E+00 -0.2184182E+00  0.3223744E+00
 -0.9293350E+01 -0.1390850E+02 -0.1027320E+00  0.3657506E+00 -0.9982738E+00 -0.1981469E+00  0.3074270E+00
 -0.7885340E+01 -0.1475240E+02 -0.1027320E+00  0.3395945E+00 -0.1025046E+01 -0.1762696E+00  0.2902644E+00
 -0.6401370E+01 -0.1545430E+02 -0.1027320E+00  0.3037932E+00 -0.1057348E+01 -0.1492182E+00  0.2646209E+00
 -0.4855760E+01 -0.1600730E+02 -0.1027320E+00  0.2512349E+00 -0.1101766E+01 -0.1135635E+00  0.2241034E+00
 -0.3263390E+01 -0.1640620E+02 -0.1027320E+00  0.1707166E+00 -0.1188653E+01 -0.6366190E-01  0.1584024E+00
 -0.1639590E+01 -0.1664710E+02 -0.1027320E+00  0.6246496E-01 -0.1653896E+01  0.5184820E-02  0.6224941E-01
  0.1994750E-06 -0.1672760E+02 -0.1027320E+00  0.7420573E-01  0.2815520E+01  0.7029566E-01 -0.2376996E-01
  0.1639600E+01 -0.1664710E+02 -0.1027320E+00  0.1585213E+00  0.2503391E+01  0.1273193E+00 -0.9443939E-01
  0.3263390E+01 -0.1640620E+02 -0.1027320E+00  0.2325205E+00  0.2426074E+01  0.1754956E+00 -0.1525355E+00
  0.4855770E+01 -0.1600730E+02 -0.1027320E+00  0.2765392E+00  0.2408471E+01  0.2054933E+00 -0.1850579E+00
  0.6401380E+01 -0.1545430E+02 -0.1027320E+00  0.3048604E+00  0.2406949E+01  0.2262276E+00 -0.2043549E+00
  0.7885340E+01 -0.1475240E+02 -0.1027320E+00  0.3221582E+00  0.2414568E+01  0.2407022E+00 -0.2141222E+00
  0.9293360E+01 -0.1390850E+02 -0.1027320E+00  0.3337850E+00  0.2425191E+01  0.2517318E+00 -0.2191884E+00
  0.1061190E+02 -0.1293060E+02 -0.1027320E+00  0.3451239E+00  0.2433479E+01  0.2621526E+00 -0.2244694E+00
  0.1182820E+02 -0.1182820E+02 -0.1027320E+00  0.3517642E+00  0.2443563E+01  0.2694902E+00 -0.2260820E+00
  0.1293060E+02 -0.1061190E+02 -0.1027320E+00  0.3569307E+00  0.2452770E+01  0.2755485E+00 -0.2268756E+00
  0.1390850E+02 -0.9293360E+01 -0.1027320E+00  0.3616130E+00  0.2459601E+01  0.2807270E+00 -0.2279393E+00
