 VARIABLES="X" "Y" "Z" "abs(eta) (m)" "angle(phi) (rad)" "PRE1" "PRE2"
ZONE N=   3200 ,E =    3136 ,F=FEPOINT,ET=QUADRILATERAL
  0.1530690E+02  0.0000000E+00  0.0000000E+00  0.1166995E+02 -0.1108644E+01 -0.5203340E+01  0.1044571E+02
  0.1523320E+02  0.1500340E+01  0.0000000E+00  0.1165491E+02 -0.1109662E+01 -0.5186020E+01  0.1043754E+02
  0.1501280E+02  0.2986230E+01  0.0000000E+00  0.1160194E+02 -0.1112480E+01 -0.5133150E+01  0.1040461E+02
  0.1464780E+02  0.4443360E+01  0.0000000E+00  0.1151583E+02 -0.1117253E+01 -0.5045702E+01  0.1035158E+02
  0.1414170E+02  0.5857700E+01  0.0000000E+00  0.1138884E+02 -0.1123673E+01 -0.4924235E+01  0.1026926E+02
  0.1349950E+02  0.7215620E+01  0.0000000E+00  0.1123808E+02 -0.1132204E+01 -0.4772425E+01  0.1017440E+02
  0.1272720E+02  0.8504060E+01  0.0000000E+00  0.1111451E+02 -0.1144182E+01 -0.4599081E+01  0.1011834E+02
  0.1183240E+02  0.9710600E+01  0.0000000E+00  0.1098607E+02 -0.1158740E+01 -0.4399853E+01  0.1006653E+02
  0.1082360E+02  0.1082360E+02  0.0000000E+00  0.1084348E+02 -0.1175765E+01 -0.4172978E+01  0.1000837E+02
  0.9710590E+01  0.1183240E+02  0.0000000E+00  0.1063099E+02 -0.1194106E+01 -0.3910556E+01  0.9885624E+01
  0.8504060E+01  0.1272720E+02  0.0000000E+00  0.1043667E+02 -0.1215498E+01 -0.3630599E+01  0.9784822E+01
  0.7215620E+01  0.1349950E+02  0.0000000E+00  0.1005789E+02 -0.1236610E+01 -0.3298992E+01  0.9501466E+01
  0.5857700E+01  0.1414170E+02  0.0000000E+00  0.9620828E+01 -0.1260314E+01 -0.2939333E+01  0.9160821E+01
  0.4443360E+01  0.1464780E+02  0.0000000E+00  0.9017111E+01 -0.1286000E+01 -0.2533467E+01  0.8653892E+01
  0.2986230E+01  0.1501280E+02  0.0000000E+00  0.7767276E+01 -0.1310494E+01 -0.1999084E+01  0.7505614E+01
  0.1500340E+01  0.1523320E+02  0.0000000E+00  0.3139897E+01 -0.1290755E+01 -0.8678521E+00  0.3017580E+01
 -0.6690860E-06  0.1530690E+02  0.0000000E+00  0.3072983E-04 -0.2730441E-01 -0.3071837E-04  0.8389554E-06
 -0.1500340E+01  0.1523320E+02  0.0000000E+00  0.3139917E+01  0.1850839E+01  0.8678620E+00 -0.3017597E+01
 -0.2986230E+01  0.1501280E+02  0.0000000E+00  0.7767273E+01  0.1831102E+01  0.1999106E+01 -0.7505605E+01
 -0.4443360E+01  0.1464780E+02  0.0000000E+00  0.9017140E+01  0.1855595E+01  0.2533497E+01 -0.8653913E+01
 -0.5857700E+01  0.1414170E+02  0.0000000E+00  0.9620863E+01  0.1881283E+01  0.2939388E+01 -0.9160841E+01
 -0.7215620E+01  0.1349950E+02  0.0000000E+00  0.1005790E+02  0.1904984E+01  0.3299014E+01 -0.9501464E+01
 -0.8504060E+01  0.1272720E+02  0.0000000E+00  0.1043666E+02  0.1926091E+01  0.3630563E+01 -0.9784833E+01
 -0.9710590E+01  0.1183240E+02  0.0000000E+00  0.1063101E+02  0.1947490E+01  0.3910601E+01 -0.9885628E+01
 -0.1082360E+02  0.1082360E+02  0.0000000E+00  0.1084351E+02  0.1965831E+01  0.4173016E+01 -0.1000838E+02
 -0.1183240E+02  0.9710590E+01  0.0000000E+00  0.1098609E+02  0.1982854E+01  0.4399879E+01 -0.1006654E+02
 -0.1272720E+02  0.8504060E+01  0.0000000E+00  0.1111453E+02  0.1997411E+01  0.4599101E+01 -0.1011835E+02
 -0.1349950E+02  0.7215620E+01  0.0000000E+00  0.1123811E+02  0.2009397E+01  0.4772523E+01 -0.1017439E+02
 -0.1414170E+02  0.5857690E+01  0.0000000E+00  0.1138887E+02  0.2017925E+01  0.4924301E+01 -0.1026926E+02
 -0.1464780E+02  0.4443360E+01  0.0000000E+00  0.1151587E+02  0.2024342E+01  0.5045736E+01 -0.1035160E+02
 -0.1501280E+02  0.2986230E+01  0.0000000E+00  0.1160196E+02  0.2029114E+01  0.5133177E+01 -0.1040461E+02
 -0.1523320E+02  0.1500340E+01  0.0000000E+00  0.1165493E+02  0.2031932E+01  0.5186036E+01 -0.1043755E+02
 -0.1530690E+02 -0.1338170E-05  0.0000000E+00  0.1166999E+02  0.2032951E+01  0.5203386E+01 -0.1044574E+02
 -0.1523320E+02 -0.1500340E+01  0.0000000E+00  0.1165492E+02  0.2031930E+01  0.5186013E+01 -0.1043755E+02
 -0.1501280E+02 -0.2986230E+01  0.0000000E+00  0.1160196E+02  0.2029114E+01  0.5133166E+01 -0.1040461E+02
 -0.1464780E+02 -0.4443360E+01  0.0000000E+00  0.1151588E+02  0.2024344E+01  0.5045767E+01 -0.1035161E+02
 -0.1414170E+02 -0.5857700E+01  0.0000000E+00  0.1138886E+02  0.2017922E+01  0.4924265E+01 -0.1026926E+02
 -0.1349950E+02 -0.7215620E+01  0.0000000E+00  0.1123812E+02  0.2009396E+01  0.4772517E+01 -0.1017440E+02
 -0.1272720E+02 -0.8504060E+01  0.0000000E+00  0.1111454E+02  0.1997411E+01  0.4599098E+01 -0.1011836E+02
 -0.1183240E+02 -0.9710600E+01  0.0000000E+00  0.1098608E+02  0.1982852E+01  0.4399862E+01 -0.1006654E+02
 -0.1082360E+02 -0.1082360E+02  0.0000000E+00  0.1084351E+02  0.1965829E+01  0.4172995E+01 -0.1000839E+02
 -0.9710600E+01 -0.1183240E+02  0.0000000E+00  0.1063101E+02  0.1947491E+01  0.3910607E+01 -0.9885621E+01
 -0.8504050E+01 -0.1272720E+02  0.0000000E+00  0.1043667E+02  0.1926091E+01  0.3630567E+01 -0.9784836E+01
 -0.7215620E+01 -0.1349950E+02  0.0000000E+00  0.1005791E+02  0.1904985E+01  0.3299020E+01 -0.9501477E+01
 -0.5857690E+01 -0.1414170E+02  0.0000000E+00  0.9620871E+01  0.1881280E+01  0.2939363E+01 -0.9160856E+01
 -0.4443360E+01 -0.1464780E+02  0.0000000E+00  0.9017141E+01  0.1855594E+01  0.2533484E+01 -0.8653918E+01
 -0.2986230E+01 -0.1501280E+02  0.0000000E+00  0.7767277E+01  0.1831100E+01  0.1999096E+01 -0.7505611E+01
 -0.1500340E+01 -0.1523320E+02  0.0000000E+00  0.3139919E+01  0.1850835E+01  0.8678508E+00 -0.3017602E+01
  0.1825330E-06 -0.1530690E+02  0.0000000E+00  0.4095132E-04 -0.2498326E+00 -0.3967994E-04  0.1012488E-04
  0.1500340E+01 -0.1523320E+02  0.0000000E+00  0.3139871E+01 -0.1290771E+01 -0.8677968E+00  0.3017568E+01
  0.2986230E+01 -0.1501280E+02  0.0000000E+00  0.7767285E+01 -0.1310495E+01 -0.1999083E+01  0.7505623E+01
  0.4443360E+01 -0.1464780E+02  0.0000000E+00  0.9017084E+01 -0.1285999E+01 -0.2533469E+01  0.8653863E+01
  0.5857700E+01 -0.1414170E+02  0.0000000E+00  0.9620824E+01 -0.1260316E+01 -0.2939315E+01  0.9160823E+01
  0.7215620E+01 -0.1349950E+02  0.0000000E+00  0.1005789E+02 -0.1236611E+01 -0.3298986E+01  0.9501468E+01
  0.8504060E+01 -0.1272720E+02  0.0000000E+00  0.1043667E+02 -0.1215499E+01 -0.3630592E+01  0.9784827E+01
  0.9710600E+01 -0.1183240E+02  0.0000000E+00  0.1063099E+02 -0.1194105E+01 -0.3910563E+01  0.9885623E+01
  0.1082360E+02 -0.1082360E+02  0.0000000E+00  0.1084347E+02 -0.1175766E+01 -0.4172955E+01  0.1000836E+02
  0.1183240E+02 -0.9710590E+01  0.0000000E+00  0.1098607E+02 -0.1158741E+01 -0.4399846E+01  0.1006653E+02
  0.1272720E+02 -0.8504060E+01  0.0000000E+00  0.1111452E+02 -0.1144182E+01 -0.4599083E+01  0.1011835E+02
  0.1349950E+02 -0.7215620E+01  0.0000000E+00  0.1123808E+02 -0.1132203E+01 -0.4772436E+01  0.1017439E+02
  0.1414170E+02 -0.5857700E+01  0.0000000E+00  0.1138884E+02 -0.1123673E+01 -0.4924232E+01  0.1026926E+02
  0.1464780E+02 -0.4443350E+01  0.0000000E+00  0.1151585E+02 -0.1117249E+01 -0.5045749E+01  0.1035158E+02
  0.1501280E+02 -0.2986230E+01  0.0000000E+00  0.1160195E+02 -0.1112479E+01 -0.5133160E+01  0.1040461E+02
  0.1523320E+02 -0.1500330E+01  0.0000000E+00  0.1165491E+02 -0.1109663E+01 -0.5186009E+01  0.1043754E+02
  0.1530690E+02  0.0000000E+00 -0.2568960E-01  0.1165673E+02 -0.1108636E+01 -0.5197529E+01  0.1043384E+02
  0.1523320E+02  0.1500340E+01 -0.2568960E-01  0.1164172E+02 -0.1109661E+01 -0.5180164E+01  0.1042572E+02
  0.1501280E+02  0.2986230E+01 -0.2568960E-01  0.1158898E+02 -0.1112483E+01 -0.5127385E+01  0.1039300E+02
  0.1464780E+02  0.4443360E+01 -0.2568960E-01  0.1150330E+02 -0.1117258E+01 -0.5040158E+01  0.1034034E+02
  0.1414170E+02  0.5857700E+01 -0.2568960E-01  0.1137681E+02 -0.1123686E+01 -0.4918891E+01  0.1025847E+02
  0.1349950E+02  0.7215620E+01 -0.2568960E-01  0.1122658E+02 -0.1132227E+01 -0.4767310E+01  0.1016410E+02
  0.1272720E+02  0.8504060E+01 -0.2568960E-01  0.1110308E+02 -0.1144210E+01 -0.4594067E+01  0.1010806E+02
  0.1183240E+02  0.9710600E+01 -0.2568960E-01  0.1097456E+02 -0.1158754E+01 -0.4395110E+01  0.1005604E+02
  0.1082360E+02  0.1082360E+02 -0.2568960E-01  0.1083205E+02 -0.1175778E+01 -0.4168450E+01  0.9997869E+01
  0.9710590E+01  0.1183240E+02 -0.2568960E-01  0.1062016E+02 -0.1194121E+01 -0.3906421E+01  0.9875609E+01
  0.8504060E+01  0.1272720E+02 -0.2568960E-01  0.1042530E+02 -0.1215506E+01 -0.3626569E+01  0.9774196E+01
  0.7215620E+01  0.1349950E+02 -0.2568960E-01  0.1004826E+02 -0.1236641E+01 -0.3295547E+01  0.9492470E+01
  0.5857700E+01  0.1414170E+02 -0.2568960E-01  0.9611068E+01 -0.1260336E+01 -0.2936148E+01  0.9151593E+01
  0.4443360E+01  0.1464780E+02 -0.2568960E-01  0.9008308E+01 -0.1286020E+01 -0.2530815E+01  0.8645495E+01
  0.2986230E+01  0.1501280E+02 -0.2568960E-01  0.7758926E+01 -0.1310507E+01 -0.1996838E+01  0.7497571E+01
  0.1500340E+01  0.1523320E+02 -0.2568960E-01  0.3139873E+01 -0.1290867E+01 -0.8675074E+00  0.3017653E+01
 -0.6690860E-06  0.1530690E+02 -0.2568960E-01  0.1097404E-04  0.8954611E+00 -0.6860520E-05 -0.8565211E-05
 -0.1500340E+01  0.1523320E+02 -0.2568960E-01  0.3139882E+01  0.1850718E+01  0.8674880E+00 -0.3017668E+01
 -0.2986230E+01  0.1501280E+02 -0.2568960E-01  0.7758978E+01  0.1831094E+01  0.1996917E+01 -0.7497604E+01
 -0.4443360E+01  0.1464780E+02 -0.2568960E-01  0.9008320E+01  0.1855577E+01  0.2530858E+01 -0.8645495E+01
 -0.5857700E+01  0.1414170E+02 -0.2568960E-01  0.9611083E+01  0.1881261E+01  0.2936198E+01 -0.9151593E+01
 -0.7215620E+01  0.1349950E+02 -0.2568960E-01  0.1004828E+02  0.1904954E+01  0.3295576E+01 -0.9492481E+01
 -0.8504060E+01  0.1272720E+02 -0.2568960E-01  0.1042534E+02  0.1926090E+01  0.3626621E+01 -0.9774217E+01
 -0.9710590E+01  0.1183240E+02 -0.2568960E-01  0.1062016E+02  0.1947472E+01  0.3906426E+01 -0.9875608E+01
 -0.1082360E+02  0.1082360E+02 -0.2568960E-01  0.1083206E+02  0.1965814E+01  0.4168440E+01 -0.9997876E+01
 -0.1183240E+02  0.9710590E+01 -0.2568960E-01  0.1097458E+02  0.1982841E+01  0.4395145E+01 -0.1005605E+02
 -0.1272720E+02  0.8504060E+01 -0.2568960E-01  0.1110309E+02  0.1997385E+01  0.4594102E+01 -0.1010806E+02
 -0.1349950E+02  0.7215620E+01 -0.2568960E-01  0.1122659E+02  0.2009367E+01  0.4767327E+01 -0.1016410E+02
 -0.1414170E+02  0.5857690E+01 -0.2568960E-01  0.1137684E+02  0.2017909E+01  0.4918937E+01 -0.1025849E+02
 -0.1464780E+02  0.4443360E+01 -0.2568960E-01  0.1150332E+02  0.2024337E+01  0.5040195E+01 -0.1034035E+02
 -0.1501280E+02  0.2986230E+01 -0.2568960E-01  0.1158901E+02  0.2029111E+01  0.5127412E+01 -0.1039301E+02
 -0.1523320E+02  0.1500340E+01 -0.2568960E-01  0.1164174E+02  0.2031934E+01  0.5180190E+01 -0.1042572E+02
 -0.1530690E+02 -0.1338170E-05 -0.2568960E-01  0.1165668E+02  0.2032950E+01  0.5197439E+01 -0.1043383E+02
 -0.1523320E+02 -0.1500340E+01 -0.2568960E-01  0.1164173E+02  0.2031933E+01  0.5180175E+01 -0.1042572E+02
 -0.1501280E+02 -0.2986230E+01 -0.2568960E-01  0.1158900E+02  0.2029111E+01  0.5127403E+01 -0.1039301E+02
 -0.1464780E+02 -0.4443360E+01 -0.2568960E-01  0.1150331E+02  0.2024336E+01  0.5040174E+01 -0.1034035E+02
 -0.1414170E+02 -0.5857700E+01 -0.2568960E-01  0.1137683E+02  0.2017906E+01  0.4918898E+01 -0.1025849E+02
 -0.1349950E+02 -0.7215620E+01 -0.2568960E-01  0.1122658E+02  0.2009364E+01  0.4767288E+01 -0.1016410E+02
 -0.1272720E+02 -0.8504060E+01 -0.2568960E-01  0.1110311E+02  0.1997384E+01  0.4594100E+01 -0.1010808E+02
 -0.1183240E+02 -0.9710600E+01 -0.2568960E-01  0.1097458E+02  0.1982841E+01  0.4395140E+01 -0.1005605E+02
 -0.1082360E+02 -0.1082360E+02 -0.2568960E-01  0.1083206E+02  0.1965813E+01  0.4168431E+01 -0.9997888E+01
 -0.9710600E+01 -0.1183240E+02 -0.2568960E-01  0.1062016E+02  0.1947473E+01  0.3906440E+01 -0.9875607E+01
 -0.8504050E+01 -0.1272720E+02 -0.2568960E-01  0.1042534E+02  0.1926088E+01  0.3626599E+01 -0.9774228E+01
 -0.7215620E+01 -0.1349950E+02 -0.2568960E-01  0.1004830E+02  0.1904959E+01  0.3295620E+01 -0.9492479E+01
 -0.5857690E+01 -0.1414170E+02 -0.2568960E-01  0.9611097E+01  0.1881261E+01  0.2936200E+01 -0.9151608E+01
 -0.4443360E+01 -0.1464780E+02 -0.2568960E-01  0.9008337E+01  0.1855580E+01  0.2530888E+01 -0.8645504E+01
 -0.2986230E+01 -0.1501280E+02 -0.2568960E-01  0.7758994E+01  0.1831096E+01  0.1996931E+01 -0.7497616E+01
 -0.1500340E+01 -0.1523320E+02 -0.2568960E-01  0.3139891E+01  0.1850721E+01  0.8674996E+00 -0.3017675E+01
  0.1825330E-06 -0.1530690E+02 -0.2568960E-01  0.7489502E-05  0.1452196E+01 -0.8861784E-06 -0.7436890E-05
  0.1500340E+01 -0.1523320E+02 -0.2568960E-01  0.3139875E+01 -0.1290864E+01 -0.8675170E+00  0.3017653E+01
  0.2986230E+01 -0.1501280E+02 -0.2568960E-01  0.7758930E+01 -0.1310509E+01 -0.1996821E+01  0.7497580E+01
  0.4443360E+01 -0.1464780E+02 -0.2568960E-01  0.9008319E+01 -0.1286018E+01 -0.2530839E+01  0.8645499E+01
  0.5857700E+01 -0.1414170E+02 -0.2568960E-01  0.9611081E+01 -0.1260333E+01 -0.2936188E+01  0.9151594E+01
  0.7215620E+01 -0.1349950E+02 -0.2568960E-01  0.1004827E+02 -0.1236640E+01 -0.3295552E+01  0.9492472E+01
  0.8504060E+01 -0.1272720E+02 -0.2568960E-01  0.1042531E+02 -0.1215506E+01 -0.3626578E+01  0.9774198E+01
  0.9710600E+01 -0.1183240E+02 -0.2568960E-01  0.1062015E+02 -0.1194121E+01 -0.3906417E+01  0.9875598E+01
  0.1082360E+02 -0.1082360E+02 -0.2568960E-01  0.1083204E+02 -0.1175781E+01 -0.4168411E+01  0.9997868E+01
  0.1183240E+02 -0.9710590E+01 -0.2568960E-01  0.1097456E+02 -0.1158755E+01 -0.4395099E+01  0.1005605E+02
  0.1272720E+02 -0.8504060E+01 -0.2568960E-01  0.1110307E+02 -0.1144212E+01 -0.4594050E+01  0.1010806E+02
  0.1349950E+02 -0.7215620E+01 -0.2568960E-01  0.1122657E+02 -0.1132228E+01 -0.4767290E+01  0.1016409E+02
  0.1414170E+02 -0.5857700E+01 -0.2568960E-01  0.1137680E+02 -0.1123688E+01 -0.4918876E+01  0.1025847E+02
  0.1464780E+02 -0.4443350E+01 -0.2568960E-01  0.1150330E+02 -0.1117257E+01 -0.5040170E+01  0.1034034E+02
  0.1501280E+02 -0.2986230E+01 -0.2568960E-01  0.1158897E+02 -0.1112484E+01 -0.5127369E+01  0.1039299E+02
  0.1523320E+02 -0.1500330E+01 -0.2568960E-01  0.1164172E+02 -0.1109662E+01 -0.5180151E+01  0.1042572E+02
  0.1530690E+02  0.0000000E+00 -0.1027320E+00  0.1161650E+02 -0.1108616E+01 -0.5179809E+01  0.1039772E+02
  0.1523320E+02  0.1500340E+01 -0.1027320E+00  0.1160168E+02 -0.1109643E+01 -0.5162531E+01  0.1038977E+02
  0.1501280E+02  0.2986230E+01 -0.1027320E+00  0.1154970E+02 -0.1112477E+01 -0.5110063E+01  0.1035774E+02
  0.1464780E+02  0.4443360E+01 -0.1027320E+00  0.1146515E+02 -0.1117275E+01 -0.5023266E+01  0.1030613E+02
  0.1414170E+02  0.5857700E+01 -0.1027320E+00  0.1134025E+02 -0.1123730E+01 -0.4902640E+01  0.1022573E+02
  0.1349950E+02  0.7215620E+01 -0.1027320E+00  0.1119150E+02 -0.1132298E+01 -0.4751696E+01  0.1013267E+02
  0.1272720E+02  0.8504060E+01 -0.1027320E+00  0.1106836E+02 -0.1144270E+01 -0.4579101E+01  0.1007672E+02
  0.1183240E+02  0.9710600E+01 -0.1027320E+00  0.1093953E+02 -0.1158795E+01 -0.4380664E+01  0.1002413E+02
  0.1082360E+02  0.1082360E+02 -0.1027320E+00  0.1079726E+02 -0.1175817E+01 -0.4154669E+01  0.9965919E+01
  0.9710590E+01  0.1183240E+02 -0.1027320E+00  0.1058722E+02 -0.1194179E+01 -0.3893735E+01  0.9845206E+01
  0.8504060E+01  0.1272720E+02 -0.1027320E+00  0.1039103E+02 -0.1215514E+01 -0.3614574E+01  0.9742096E+01
  0.7215620E+01  0.1349950E+02 -0.1027320E+00  0.1001814E+02 -0.1236701E+01 -0.3285093E+01  0.9464207E+01
  0.5857700E+01  0.1414170E+02 -0.1027320E+00  0.9581799E+01 -0.1260373E+01 -0.2926869E+01  0.9123832E+01
  0.4443360E+01  0.1464780E+02 -0.1027320E+00  0.8981387E+01 -0.1286063E+01 -0.2522888E+01  0.8619765E+01
  0.2986230E+01  0.1501280E+02 -0.1027320E+00  0.7736761E+01 -0.1310547E+01 -0.1990838E+01  0.7476232E+01
  0.1500340E+01  0.1523320E+02 -0.1027320E+00  0.3134047E+01 -0.1291056E+01 -0.8653300E+00  0.3012218E+01
 -0.6690860E-06  0.1530690E+02 -0.1027320E+00  0.9046519E-05 -0.4402730E-01 -0.9037753E-05  0.3981652E-06
 -0.1500340E+01  0.1523320E+02 -0.1027320E+00  0.3134061E+01  0.1850545E+01  0.8653573E+00 -0.3012224E+01
 -0.2986230E+01  0.1501280E+02 -0.1027320E+00  0.7736764E+01  0.1831047E+01  0.1990842E+01 -0.7476233E+01
 -0.4443360E+01  0.1464780E+02 -0.1027320E+00  0.8981406E+01  0.1855536E+01  0.2522944E+01 -0.8619769E+01
 -0.5857700E+01  0.1414170E+02 -0.1027320E+00  0.9581797E+01  0.1881219E+01  0.2926862E+01 -0.9123832E+01
 -0.7215620E+01  0.1349950E+02 -0.1027320E+00  0.1001819E+02  0.1904894E+01  0.3285132E+01 -0.9464249E+01
 -0.8504060E+01  0.1272720E+02 -0.1027320E+00  0.1039103E+02  0.1926080E+01  0.3614588E+01 -0.9742091E+01
 -0.9710590E+01  0.1183240E+02 -0.1027320E+00  0.1058724E+02  0.1947415E+01  0.3893763E+01 -0.9845221E+01
 -0.1082360E+02  0.1082360E+02 -0.1027320E+00  0.1079728E+02  0.1965777E+01  0.4154692E+01 -0.9965929E+01
 -0.1183240E+02  0.9710590E+01 -0.1027320E+00  0.1093953E+02  0.1982798E+01  0.4380674E+01 -0.1002412E+02
 -0.1272720E+02  0.8504060E+01 -0.1027320E+00  0.1106838E+02  0.1997327E+01  0.4579152E+01 -0.1007672E+02
 -0.1349950E+02  0.7215620E+01 -0.1027320E+00  0.1119154E+02  0.2009301E+01  0.4751768E+01 -0.1013268E+02
 -0.1414170E+02  0.5857690E+01 -0.1027320E+00  0.1134029E+02  0.2017865E+01  0.4902678E+01 -0.1022574E+02
 -0.1464780E+02  0.4443360E+01 -0.1027320E+00  0.1146515E+02  0.2024315E+01  0.5023244E+01 -0.1030615E+02
 -0.1501280E+02  0.2986230E+01 -0.1027320E+00  0.1154972E+02  0.2029119E+01  0.5110113E+01 -0.1035774E+02
 -0.1523320E+02  0.1500340E+01 -0.1027320E+00  0.1160173E+02  0.2031954E+01  0.5162598E+01 -0.1038978E+02
 -0.1530690E+02 -0.1338170E-05 -0.1027320E+00  0.1161651E+02  0.2032975E+01  0.5179790E+01 -0.1039774E+02
 -0.1523320E+02 -0.1500340E+01 -0.1027320E+00  0.1160172E+02  0.2031952E+01  0.5162577E+01 -0.1038979E+02
 -0.1501280E+02 -0.2986230E+01 -0.1027320E+00  0.1154971E+02  0.2029115E+01  0.5110065E+01 -0.1035775E+02
 -0.1464780E+02 -0.4443360E+01 -0.1027320E+00  0.1146516E+02  0.2024317E+01  0.5023260E+01 -0.1030615E+02
 -0.1414170E+02 -0.5857700E+01 -0.1027320E+00  0.1134029E+02  0.2017865E+01  0.4902682E+01 -0.1022574E+02
 -0.1349950E+02 -0.7215620E+01 -0.1027320E+00  0.1119156E+02  0.2009303E+01  0.4751805E+01 -0.1013269E+02
 -0.1272720E+02 -0.8504060E+01 -0.1027320E+00  0.1106838E+02  0.1997326E+01  0.4579144E+01 -0.1007673E+02
 -0.1183240E+02 -0.9710600E+01 -0.1027320E+00  0.1093953E+02  0.1982798E+01  0.4380666E+01 -0.1002412E+02
 -0.1082360E+02 -0.1082360E+02 -0.1027320E+00  0.1079728E+02  0.1965777E+01  0.4154688E+01 -0.9965933E+01
 -0.9710600E+01 -0.1183240E+02 -0.1027320E+00  0.1058726E+02  0.1947420E+01  0.3893815E+01 -0.9845221E+01
 -0.8504050E+01 -0.1272720E+02 -0.1027320E+00  0.1039104E+02  0.1926080E+01  0.3614589E+01 -0.9742099E+01
 -0.7215620E+01 -0.1349950E+02 -0.1027320E+00  0.1001820E+02  0.1904896E+01  0.3285158E+01 -0.9464250E+01
 -0.5857690E+01 -0.1414170E+02 -0.1027320E+00  0.9581807E+01  0.1881218E+01  0.2926862E+01 -0.9123843E+01
 -0.4443360E+01 -0.1464780E+02 -0.1027320E+00  0.8981416E+01  0.1855536E+01  0.2522946E+01 -0.8619778E+01
 -0.2986230E+01 -0.1501280E+02 -0.1027320E+00  0.7736786E+01  0.1831049E+01  0.1990864E+01 -0.7476251E+01
 -0.1500340E+01 -0.1523320E+02 -0.1027320E+00  0.3134073E+01  0.1850542E+01  0.8653528E+00 -0.3012238E+01
  0.1825330E-06 -0.1530690E+02 -0.1027320E+00  0.1647870E-04  0.1454052E+01 -0.1919432E-05 -0.1636653E-04
  0.1500340E+01 -0.1523320E+02 -0.1027320E+00  0.3134048E+01 -0.1291050E+01 -0.8653473E+00  0.3012213E+01
  0.2986230E+01 -0.1501280E+02 -0.1027320E+00  0.7736753E+01 -0.1310545E+01 -0.1990851E+01  0.7476219E+01
  0.4443360E+01 -0.1464780E+02 -0.1027320E+00  0.8981383E+01 -0.1286065E+01 -0.2522864E+01  0.8619768E+01
  0.5857700E+01 -0.1414170E+02 -0.1027320E+00  0.9581800E+01 -0.1260374E+01 -0.2926864E+01  0.9123835E+01
  0.7215620E+01 -0.1349950E+02 -0.1027320E+00  0.1001814E+02 -0.1236700E+01 -0.3285102E+01  0.9464208E+01
  0.8504060E+01 -0.1272720E+02 -0.1027320E+00  0.1039103E+02 -0.1215515E+01 -0.3614563E+01  0.9742099E+01
  0.9710600E+01 -0.1183240E+02 -0.1027320E+00  0.1058723E+02 -0.1194176E+01 -0.3893770E+01  0.9845199E+01
  0.1082360E+02 -0.1082360E+02 -0.1027320E+00  0.1079726E+02 -0.1175817E+01 -0.4154671E+01  0.9965918E+01
  0.1183240E+02 -0.9710590E+01 -0.1027320E+00  0.1093953E+02 -0.1158795E+01 -0.4380672E+01  0.1002412E+02
  0.1272720E+02 -0.8504060E+01 -0.1027320E+00  0.1106834E+02 -0.1144272E+01 -0.4579074E+01  0.1007672E+02
