 VARIABLES="X" "Y" "Z" "abs(eta) (m)" "angle(phi) (rad)" "PRE1" "PRE2"
ZONE N=   3200 ,E =    3136 ,F=FEPOINT,ET=QUADRILATERAL
  0.1672760E+02  0.0000000E+00  0.0000000E+00  0.1128786E+00  0.2657010E+01  0.9988279E-01 -0.5258331E-01
  0.1664710E+02  0.1639590E+01  0.0000000E+00  0.1183045E+00  0.2654671E+01  0.1045548E+00 -0.5535559E-01
  0.1640620E+02  0.3263390E+01  0.0000000E+00  0.1235048E+00  0.2651857E+01  0.1089877E+00 -0.5809574E-01
  0.1600730E+02  0.4855770E+01  0.0000000E+00  0.1285667E+00  0.2646401E+01  0.1131230E+00 -0.6109488E-01
  0.1545430E+02  0.6401380E+01  0.0000000E+00  0.1338364E+00  0.2635560E+01  0.1170632E+00 -0.6487199E-01
  0.1475240E+02  0.7885340E+01  0.0000000E+00  0.1392196E+00  0.2622010E+01  0.1208463E+00 -0.6912495E-01
  0.1390850E+02  0.9293360E+01  0.0000000E+00  0.1439628E+00  0.2610361E+01  0.1241224E+00 -0.7293087E-01
  0.1293060E+02  0.1061190E+02  0.0000000E+00  0.1470578E+00  0.2603806E+01  0.1262998E+00 -0.7532839E-01
  0.1182820E+02  0.1182820E+02  0.0000000E+00  0.1499871E+00  0.2595683E+01  0.1281872E+00 -0.7787271E-01
  0.1061190E+02  0.1293060E+02  0.0000000E+00  0.1526503E+00  0.2587480E+01  0.1298088E+00 -0.8032292E-01
  0.9293360E+01  0.1390850E+02  0.0000000E+00  0.1541779E+00  0.2581952E+01  0.1306575E+00 -0.8185017E-01
  0.7885330E+01  0.1475240E+02  0.0000000E+00  0.1568045E+00  0.2573760E+01  0.1321969E+00 -0.8433045E-01
  0.6401380E+01  0.1545430E+02  0.0000000E+00  0.1588955E+00  0.2568269E+01  0.1334885E+00 -0.8618923E-01
  0.4855770E+01  0.1600730E+02  0.0000000E+00  0.1589140E+00  0.2570563E+01  0.1337014E+00 -0.8589280E-01
  0.3263390E+01  0.1640620E+02  0.0000000E+00  0.1582484E+00  0.2579959E+01  0.1339393E+00 -0.8427824E-01
  0.1639590E+01  0.1664710E+02  0.0000000E+00  0.1466256E+00  0.2615872E+01  0.1268256E+00 -0.7358206E-01
 -0.7311870E-06  0.1672760E+02  0.0000000E+00  0.1175051E+00  0.2704545E+01  0.1064603E+00 -0.4973594E-01
 -0.1639590E+01  0.1664710E+02  0.0000000E+00  0.7057300E-01  0.3021030E+01  0.7006072E-01 -0.8487837E-02
 -0.3263390E+01  0.1640620E+02  0.0000000E+00  0.5085300E-01 -0.2039839E+01  0.2298721E-01  0.4536095E-01
 -0.4855770E+01  0.1600730E+02  0.0000000E+00  0.8630784E-01 -0.1419142E+01 -0.1303886E-01  0.8531724E-01
 -0.6401380E+01  0.1545430E+02  0.0000000E+00  0.1169808E+00 -0.1242571E+01 -0.3771036E-01  0.1107359E+00
 -0.7885340E+01  0.1475240E+02  0.0000000E+00  0.1398118E+00 -0.1156556E+01 -0.5627352E-01  0.1279868E+00
 -0.9293360E+01  0.1390850E+02  0.0000000E+00  0.1572031E+00 -0.1102211E+01 -0.7099675E-01  0.1402579E+00
 -0.1061190E+02  0.1293060E+02  0.0000000E+00  0.1726709E+00 -0.1061237E+01 -0.8422757E-01  0.1507347E+00
 -0.1182820E+02  0.1182820E+02  0.0000000E+00  0.1844526E+00 -0.1030478E+01 -0.9488400E-01  0.1581764E+00
 -0.1293060E+02  0.1061190E+02  0.0000000E+00  0.1950843E+00 -0.1005355E+01 -0.1045239E+00  0.1647199E+00
 -0.1390850E+02  0.9293360E+01  0.0000000E+00  0.2056317E+00 -0.9850673E+00 -0.1136747E+00  0.1713548E+00
 -0.1475240E+02  0.7885330E+01  0.0000000E+00  0.2122034E+00 -0.9691965E+00 -0.1200991E+00  0.1749471E+00
 -0.1545430E+02  0.6401370E+01  0.0000000E+00  0.2166051E+00 -0.9568675E+00 -0.1247826E+00  0.1770511E+00
 -0.1600730E+02  0.4855770E+01  0.0000000E+00  0.2205822E+00 -0.9483290E+00 -0.1286086E+00  0.1792103E+00
 -0.1640620E+02  0.3263390E+01  0.0000000E+00  0.2249190E+00 -0.9441825E+00 -0.1318937E+00  0.1821884E+00
 -0.1664710E+02  0.1639590E+01  0.0000000E+00  0.2293917E+00 -0.9441707E+00 -0.1345187E+00  0.1858098E+00
 -0.1672760E+02 -0.1462370E-05  0.0000000E+00  0.2328798E+00 -0.9479015E+00 -0.1358594E+00  0.1891434E+00
 -0.1664710E+02 -0.1639590E+01  0.0000000E+00  0.2354119E+00 -0.9556211E+00 -0.1358566E+00  0.1922544E+00
 -0.1640620E+02 -0.3263400E+01  0.0000000E+00  0.2371832E+00 -0.9677624E+00 -0.1345170E+00  0.1953485E+00
 -0.1600730E+02 -0.4855770E+01  0.0000000E+00  0.2387058E+00 -0.9840798E+00 -0.1321546E+00  0.1987854E+00
 -0.1545430E+02 -0.6401380E+01  0.0000000E+00  0.2404440E+00 -0.1005824E+01 -0.1287319E+00  0.2030799E+00
 -0.1475240E+02 -0.7885340E+01  0.0000000E+00  0.2420138E+00 -0.1032900E+01 -0.1239910E+00  0.2078387E+00
 -0.1390850E+02 -0.9293360E+01  0.0000000E+00  0.2424955E+00 -0.1064205E+01 -0.1176587E+00  0.2120389E+00
 -0.1293060E+02 -0.1061190E+02  0.0000000E+00  0.2410778E+00 -0.1098858E+01 -0.1095973E+00  0.2147252E+00
 -0.1182820E+02 -0.1182820E+02  0.0000000E+00  0.2395740E+00 -0.1137970E+01 -0.1004865E+00  0.2174814E+00
 -0.1061190E+02 -0.1293060E+02  0.0000000E+00  0.2377170E+00 -0.1182544E+01 -0.8999276E-01  0.2200243E+00
 -0.9293350E+01 -0.1390850E+02  0.0000000E+00  0.2347170E+00 -0.1233391E+01 -0.7770075E-01  0.2214829E+00
 -0.7885340E+01 -0.1475240E+02  0.0000000E+00  0.2324428E+00 -0.1295246E+01 -0.6324220E-01  0.2236741E+00
 -0.6401370E+01 -0.1545430E+02  0.0000000E+00  0.2296618E+00 -0.1368580E+01 -0.4612551E-01  0.2249822E+00
 -0.4855760E+01 -0.1600730E+02  0.0000000E+00  0.2253029E+00 -0.1456241E+01 -0.2575318E-01  0.2238263E+00
 -0.3263390E+01 -0.1640620E+02  0.0000000E+00  0.2208652E+00 -0.1573364E+01  0.5670078E-03  0.2208645E+00
 -0.1639590E+01 -0.1664710E+02  0.0000000E+00  0.2104834E+00 -0.1705440E+01  0.2825471E-01  0.2085784E+00
  0.1994750E-06 -0.1672760E+02  0.0000000E+00  0.1891726E+00 -0.1809389E+01  0.4470816E-01  0.1838137E+00
  0.1639600E+01 -0.1664710E+02  0.0000000E+00  0.1500924E+00 -0.1888557E+01  0.4689490E-01  0.1425783E+00
  0.3263390E+01 -0.1640620E+02  0.0000000E+00  0.9771206E-01 -0.1984307E+01  0.3926332E-01  0.8947647E-01
  0.4855770E+01 -0.1600730E+02  0.0000000E+00  0.6098777E-01 -0.2174052E+01  0.3459997E-01  0.5022300E-01
  0.6401380E+01 -0.1545430E+02  0.0000000E+00  0.4347240E-01 -0.2524293E+01  0.3544933E-01  0.2516335E-01
  0.7885340E+01 -0.1475240E+02  0.0000000E+00  0.3943465E-01 -0.2935227E+01  0.3859793E-01  0.8080321E-02
  0.9293360E+01 -0.1390850E+02  0.0000000E+00  0.4350019E-01  0.3045877E+01  0.4330108E-01 -0.4157294E-02
  0.1061190E+02 -0.1293060E+02  0.0000000E+00  0.5087369E-01  0.2849030E+01  0.4871196E-01 -0.1467234E-01
  0.1182820E+02 -0.1182820E+02  0.0000000E+00  0.5905328E-01  0.2756291E+01  0.5472379E-01 -0.2219453E-01
  0.1293060E+02 -0.1061190E+02  0.0000000E+00  0.6720936E-01  0.2698438E+01  0.6071718E-01 -0.2881877E-01
  0.1390850E+02 -0.9293360E+01  0.0000000E+00  0.7533424E-01  0.2650896E+01  0.6644514E-01 -0.3550057E-01
  0.1475240E+02 -0.7885330E+01  0.0000000E+00  0.8244334E-01  0.2646260E+01  0.7253451E-01 -0.3918737E-01
  0.1545430E+02 -0.6401380E+01  0.0000000E+00  0.8889871E-01  0.2657282E+01  0.7867502E-01 -0.4139107E-01
  0.1600730E+02 -0.4855760E+01  0.0000000E+00  0.9510868E-01  0.2666101E+01  0.8455807E-01 -0.4353842E-01
  0.1640620E+02 -0.3263390E+01  0.0000000E+00  0.1012604E+00  0.2666409E+01  0.9004170E-01 -0.4632679E-01
  0.1664710E+02 -0.1639590E+01  0.0000000E+00  0.1071998E+00  0.2660519E+01  0.9503242E-01 -0.4960471E-01
  0.1672760E+02  0.0000000E+00 -0.2568960E-01  0.1127411E+00  0.2656900E+01  0.9975541E-01 -0.5253018E-01
  0.1664710E+02  0.1639590E+01 -0.2568960E-01  0.1181595E+00  0.2654568E+01  0.1044210E+00 -0.5529852E-01
  0.1640620E+02  0.3263390E+01 -0.2568960E-01  0.1233530E+00  0.2651765E+01  0.1088484E+00 -0.5803439E-01
  0.1600730E+02  0.4855770E+01 -0.2568960E-01  0.1284069E+00  0.2646326E+01  0.1129778E+00 -0.6102747E-01
  0.1545430E+02  0.6401380E+01 -0.2568960E-01  0.1336652E+00  0.2635519E+01  0.1169109E+00 -0.6479380E-01
  0.1475240E+02  0.7885340E+01 -0.2568960E-01  0.1390325E+00  0.2622005E+01  0.1206836E+00 -0.6903270E-01
  0.1390850E+02  0.9293360E+01 -0.2568960E-01  0.1437661E+00  0.2610378E+01  0.1239541E+00 -0.7282920E-01
  0.1293060E+02  0.1061190E+02 -0.2568960E-01  0.1468629E+00  0.2603800E+01  0.1261319E+00 -0.7522931E-01
  0.1182820E+02  0.1182820E+02 -0.2568960E-01  0.1497914E+00  0.2595670E+01  0.1280190E+00 -0.7777278E-01
  0.1061190E+02  0.1293060E+02 -0.2568960E-01  0.1524532E+00  0.2587471E+01  0.1296406E+00 -0.8022039E-01
  0.9293360E+01  0.1390850E+02 -0.2568960E-01  0.1539856E+00  0.2581911E+01  0.1304911E+00 -0.8175346E-01
  0.7885330E+01  0.1475240E+02 -0.2568960E-01  0.1566070E+00  0.2573727E+01  0.1320276E+00 -0.8422860E-01
  0.6401380E+01  0.1545430E+02 -0.2568960E-01  0.1586945E+00  0.2568243E+01  0.1333174E+00 -0.8608371E-01
  0.4855770E+01  0.1600730E+02 -0.2568960E-01  0.1587262E+00  0.2570501E+01  0.1335382E+00 -0.8579955E-01
  0.3263390E+01  0.1640620E+02 -0.2568960E-01  0.1580563E+00  0.2579919E+01  0.1337733E+00 -0.8418138E-01
  0.1639590E+01  0.1664710E+02 -0.2568960E-01  0.1464778E+00  0.2615772E+01  0.1266904E+00 -0.7352066E-01
 -0.7311870E-06  0.1672760E+02 -0.2568960E-01  0.1173834E+00  0.2704421E+01  0.1063438E+00 -0.4969759E-01
 -0.1639590E+01  0.1664710E+02 -0.2568960E-01  0.7050517E-01  0.3020686E+01  0.6999046E-01 -0.8503765E-02
 -0.3263390E+01  0.1640620E+02 -0.2568960E-01  0.5078196E-01 -0.2040049E+01  0.2296462E-01  0.4529276E-01
 -0.4855770E+01  0.1600730E+02 -0.2568960E-01  0.8620324E-01 -0.1419081E+01 -0.1302821E-01  0.8521305E-01
 -0.6401380E+01  0.1545430E+02 -0.2568960E-01  0.1168285E+00 -0.1242569E+01 -0.3766148E-01  0.1105916E+00
 -0.7885340E+01  0.1475240E+02 -0.2568960E-01  0.1396259E+00 -0.1156565E+01 -0.5619751E-01  0.1278171E+00
 -0.9293360E+01  0.1390850E+02 -0.2568960E-01  0.1569997E+00 -0.1102218E+01 -0.7090396E-01  0.1400769E+00
 -0.1061190E+02  0.1293060E+02 -0.2568960E-01  0.1724362E+00 -0.1061252E+01 -0.8411080E-01  0.1505311E+00
 -0.1182820E+02  0.1182820E+02 -0.2568960E-01  0.1842078E+00 -0.1030488E+01 -0.9475646E-01  0.1579674E+00
 -0.1293060E+02  0.1061190E+02 -0.2568960E-01  0.1948231E+00 -0.1005367E+01 -0.1043820E+00  0.1645005E+00
 -0.1390850E+02  0.9293360E+01 -0.2568960E-01  0.2053407E+00 -0.9850796E+00 -0.1135117E+00  0.1711137E+00
 -0.1475240E+02  0.7885330E+01 -0.2568960E-01  0.2119084E+00 -0.9692088E+00 -0.1199300E+00  0.1747054E+00
 -0.1545430E+02  0.6401370E+01 -0.2568960E-01  0.2163161E+00 -0.9568821E+00 -0.1246135E+00  0.1768167E+00
 -0.1600730E+02  0.4855770E+01 -0.2568960E-01  0.2202973E+00 -0.9483500E+00 -0.1284387E+00  0.1789816E+00
 -0.1640620E+02  0.3263390E+01 -0.2568960E-01  0.2246310E+00 -0.9442084E+00 -0.1317201E+00  0.1819585E+00
 -0.1664710E+02  0.1639590E+01 -0.2568960E-01  0.2290953E+00 -0.9441981E+00 -0.1343398E+00  0.1855733E+00
 -0.1672760E+02 -0.1462370E-05 -0.2568960E-01  0.2325768E+00 -0.9479344E+00 -0.1356765E+00  0.1889017E+00
 -0.1664710E+02 -0.1639590E+01 -0.2568960E-01  0.2351062E+00 -0.9556510E+00 -0.1356744E+00  0.1920088E+00
 -0.1640620E+02 -0.3263400E+01 -0.2568960E-01  0.2368742E+00 -0.9677920E+00 -0.1343360E+00  0.1950980E+00
 -0.1600730E+02 -0.4855770E+01 -0.2568960E-01  0.2383926E+00 -0.9841067E+00 -0.1319759E+00  0.1985281E+00
 -0.1545430E+02 -0.6401380E+01 -0.2568960E-01  0.2401224E+00 -0.1005845E+01 -0.1285554E+00  0.2028109E+00
 -0.1475240E+02 -0.7885340E+01 -0.2568960E-01  0.2416819E+00 -0.1032912E+01 -0.1238185E+00  0.2075551E+00
 -0.1390850E+02 -0.9293360E+01 -0.2568960E-01  0.2421585E+00 -0.1064210E+01 -0.1174942E+00  0.2117448E+00
 -0.1293060E+02 -0.1061190E+02 -0.2568960E-01  0.2407501E+00 -0.1098864E+01 -0.1094470E+00  0.2144340E+00
 -0.1182820E+02 -0.1182820E+02 -0.2568960E-01  0.2392504E+00 -0.1137983E+01 -0.1003480E+00  0.2171890E+00
 -0.1061190E+02 -0.1293060E+02 -0.2568960E-01  0.2373959E+00 -0.1182567E+01 -0.8986614E-01  0.2197291E+00
 -0.9293350E+01 -0.1390850E+02 -0.2568960E-01  0.2344076E+00 -0.1233423E+01 -0.7759124E-01  0.2211935E+00
 -0.7885340E+01 -0.1475240E+02 -0.2568960E-01  0.2321348E+00 -0.1295281E+01 -0.6315057E-01  0.2233799E+00
 -0.6401370E+01 -0.1545430E+02 -0.2568960E-01  0.2293577E+00 -0.1368604E+01 -0.4605912E-01  0.2246853E+00
 -0.4855760E+01 -0.1600730E+02 -0.2568960E-01  0.2250161E+00 -0.1456282E+01 -0.2571123E-01  0.2235424E+00
 -0.3263390E+01 -0.1640620E+02 -0.2568960E-01  0.2205792E+00 -0.1573412E+01  0.5769024E-03  0.2205784E+00
 -0.1639590E+01 -0.1664710E+02 -0.2568960E-01  0.2102350E+00 -0.1705558E+01  0.2824598E-01  0.2083289E+00
  0.1994750E-06 -0.1672760E+02 -0.2568960E-01  0.1889458E+00 -0.1809490E+01  0.4467305E-01  0.1835887E+00
  0.1639600E+01 -0.1664710E+02 -0.2568960E-01  0.1499186E+00 -0.1888687E+01  0.4685915E-01  0.1424072E+00
  0.3263390E+01 -0.1640620E+02 -0.2568960E-01  0.9758715E-01 -0.1984404E+01  0.3922174E-01  0.8935830E-01
  0.4855770E+01 -0.1600730E+02 -0.2568960E-01  0.6089555E-01 -0.2174259E+01  0.3455805E-01  0.5013989E-01
  0.6401380E+01 -0.1545430E+02 -0.2568960E-01  0.4341061E-01 -0.2524519E+01  0.3540461E-01  0.2511960E-01
  0.7885340E+01 -0.1475240E+02 -0.2568960E-01  0.3938478E-01 -0.2935452E+01  0.3855093E-01  0.8061418E-02
  0.9293360E+01 -0.1390850E+02 -0.2568960E-01  0.4344575E-01  0.3045591E+01  0.4324570E-01 -0.4164453E-02
  0.1061190E+02 -0.1293060E+02 -0.2568960E-01  0.5080983E-01  0.2848980E+01  0.4865008E-01 -0.1465635E-01
  0.1182820E+02 -0.1182820E+02 -0.2568960E-01  0.5897823E-01  0.2756173E+01  0.5465162E-01 -0.2217277E-01
  0.1293060E+02 -0.1061190E+02 -0.2568960E-01  0.6712300E-01  0.2698362E+01  0.6063698E-01 -0.2878636E-01
  0.1390850E+02 -0.9293360E+01 -0.2568960E-01  0.7523321E-01  0.2650981E+01  0.6635907E-01 -0.3544727E-01
  0.1475240E+02 -0.7885330E+01 -0.2568960E-01  0.8233448E-01  0.2646292E+01  0.7244002E-01 -0.3913323E-01
  0.1545430E+02 -0.6401380E+01 -0.2568960E-01  0.8878614E-01  0.2657210E+01  0.7857242E-01 -0.4134433E-01
  0.1600730E+02 -0.4855760E+01 -0.2568960E-01  0.9499138E-01  0.2665960E+01  0.8444763E-01 -0.4349666E-01
  0.1640620E+02 -0.3263390E+01 -0.2568960E-01  0.1011370E+00  0.2666255E+01  0.8992482E-01 -0.4628417E-01
  0.1664710E+02 -0.1639590E+01 -0.2568960E-01  0.1070701E+00  0.2660396E+01  0.9491145E-01 -0.4955635E-01
  0.1672760E+02  0.0000000E+00 -0.1027320E+00  0.1123370E+00  0.2656437E+01  0.9937359E-01 -0.5238795E-01
  0.1664710E+02  0.1639590E+01 -0.1027320E+00  0.1177362E+00  0.2654145E+01  0.1040236E+00 -0.5514444E-01
  0.1640620E+02  0.3263390E+01 -0.1027320E+00  0.1229086E+00  0.2651371E+01  0.1084335E+00 -0.5786795E-01
  0.1600730E+02  0.4855770E+01 -0.1027320E+00  0.1279390E+00  0.2645989E+01  0.1125456E+00 -0.6084295E-01
  0.1545430E+02  0.6401380E+01 -0.1027320E+00  0.1331608E+00  0.2635294E+01  0.1164552E+00 -0.6457548E-01
  0.1475240E+02  0.7885340E+01 -0.1027320E+00  0.1384850E+00  0.2621914E+01  0.1202020E+00 -0.6877184E-01
  0.1390850E+02  0.9293360E+01 -0.1027320E+00  0.1431857E+00  0.2610350E+01  0.1234516E+00 -0.7253860E-01
  0.1293060E+02  0.1061190E+02 -0.1027320E+00  0.1462864E+00  0.2603715E+01  0.1256305E+00 -0.7494470E-01
  0.1182820E+02  0.1182820E+02 -0.1027320E+00  0.1492117E+00  0.2595569E+01  0.1275158E+00 -0.7748459E-01
  0.1061190E+02  0.1293060E+02 -0.1027320E+00  0.1518646E+00  0.2587374E+01  0.1291323E+00 -0.7992311E-01
  0.9293360E+01  0.1390850E+02 -0.1027320E+00  0.1534157E+00  0.2581755E+01  0.1299955E+00 -0.8147116E-01
  0.7885330E+01  0.1475240E+02 -0.1027320E+00  0.1560193E+00  0.2573599E+01  0.1315214E+00 -0.8392935E-01
  0.6401380E+01  0.1545430E+02 -0.1027320E+00  0.1580924E+00  0.2568136E+01  0.1328025E+00 -0.8577126E-01
  0.4855770E+01  0.1600730E+02 -0.1027320E+00  0.1581624E+00  0.2570308E+01  0.1330474E+00 -0.8552044E-01
  0.3263390E+01  0.1640620E+02 -0.1027320E+00  0.1574764E+00  0.2579769E+01  0.1332700E+00 -0.8389242E-01
  0.1639590E+01  0.1664710E+02 -0.1027320E+00  0.1460191E+00  0.2615460E+01  0.1262708E+00 -0.7332968E-01
 -0.7311870E-06  0.1672760E+02 -0.1027320E+00  0.1170031E+00  0.2704068E+01  0.1059818E+00 -0.4957405E-01
 -0.1639590E+01  0.1664710E+02 -0.1027320E+00  0.7029351E-01  0.3019765E+01  0.6977250E-01 -0.8542551E-02
 -0.3263390E+01  0.1640620E+02 -0.1027320E+00  0.5057324E-01 -0.2040380E+01  0.2288513E-01  0.4509904E-01
 -0.4855770E+01  0.1600730E+02 -0.1027320E+00  0.8588763E-01 -0.1418919E+01 -0.1299431E-01  0.8489896E-01
 -0.6401380E+01  0.1545430E+02 -0.1027320E+00  0.1163747E+00 -0.1242541E+01 -0.3751827E-01  0.1101611E+00
 -0.7885340E+01  0.1475240E+02 -0.1027320E+00  0.1390732E+00 -0.1156588E+01 -0.5597211E-01  0.1273125E+00
 -0.9293360E+01  0.1390850E+02 -0.1027320E+00  0.1563979E+00 -0.1102212E+01 -0.7063294E-01  0.1395396E+00
 -0.1061190E+02  0.1293060E+02 -0.1027320E+00  0.1717402E+00 -0.1061287E+01 -0.8376618E-01  0.1499264E+00
 -0.1182820E+02  0.1182820E+02 -0.1027320E+00  0.1834825E+00 -0.1030508E+01 -0.9438027E-01  0.1573473E+00
 -0.1293060E+02  0.1061190E+02 -0.1027320E+00  0.1940520E+00 -0.1005388E+01 -0.1039654E+00  0.1638516E+00
 -0.1390850E+02  0.9293360E+01 -0.1027320E+00  0.2044835E+00 -0.9851168E+00 -0.1130315E+00  0.1704036E+00
 -0.1475240E+02  0.7885330E+01 -0.1027320E+00  0.2110400E+00 -0.9692506E+00 -0.1194312E+00  0.1739944E+00
 -0.1545430E+02  0.6401370E+01 -0.1027320E+00  0.2154692E+00 -0.9569299E+00 -0.1241172E+00  0.1761303E+00
 -0.1600730E+02  0.4855770E+01 -0.1027320E+00  0.2194635E+00 -0.9484146E+00 -0.1279411E+00  0.1783124E+00
 -0.1640620E+02  0.3263390E+01 -0.1027320E+00  0.2237893E+00 -0.9442863E+00 -0.1312124E+00  0.1812869E+00
 -0.1664710E+02  0.1639590E+01 -0.1027320E+00  0.2282286E+00 -0.9442889E+00 -0.1338148E+00  0.1848835E+00
 -0.1672760E+02 -0.1462370E-05 -0.1027320E+00  0.2316924E+00 -0.9480305E+00 -0.1351425E+00  0.1881964E+00
 -0.1664710E+02 -0.1639590E+01 -0.1027320E+00  0.2342090E+00 -0.9557555E+00 -0.1351367E+00  0.1912902E+00
 -0.1640620E+02 -0.3263400E+01 -0.1027320E+00  0.2359699E+00 -0.9678887E+00 -0.1338044E+00  0.1943661E+00
 -0.1600730E+02 -0.4855770E+01 -0.1027320E+00  0.2374757E+00 -0.9841995E+00 -0.1314499E+00  0.1977767E+00
 -0.1545430E+02 -0.6401380E+01 -0.1027320E+00  0.2391788E+00 -0.1005917E+01 -0.1280357E+00  0.2020231E+00
 -0.1475240E+02 -0.7885340E+01 -0.1027320E+00  0.2407062E+00 -0.1032952E+01 -0.1233104E+00  0.2067221E+00
 -0.1390850E+02 -0.9293360E+01 -0.1027320E+00  0.2411678E+00 -0.1064227E+01 -0.1170099E+00  0.2108805E+00
 -0.1293060E+02 -0.1061190E+02 -0.1027320E+00  0.2397823E+00 -0.1098889E+01 -0.1090017E+00  0.2135747E+00
 -0.1182820E+02 -0.1182820E+02 -0.1027320E+00  0.2382939E+00 -0.1138026E+01 -0.9993740E-01  0.2163250E+00
 -0.1061190E+02 -0.1293060E+02 -0.1027320E+00  0.2364452E+00 -0.1182636E+01 -0.8949117E-01  0.2188554E+00
 -0.9293350E+01 -0.1390850E+02 -0.1027320E+00  0.2334906E+00 -0.1233519E+01 -0.7726648E-01  0.2203355E+00
 -0.7885340E+01 -0.1475240E+02 -0.1027320E+00  0.2312205E+00 -0.1295368E+01 -0.6288261E-01  0.2225055E+00
 -0.6401370E+01 -0.1545430E+02 -0.1027320E+00  0.2284511E+00 -0.1368665E+01 -0.4586332E-01  0.2238001E+00
 -0.4855760E+01 -0.1600730E+02 -0.1027320E+00  0.2241593E+00 -0.1456390E+01 -0.2558936E-01  0.2226939E+00
 -0.3263390E+01 -0.1640620E+02 -0.1027320E+00  0.2197253E+00 -0.1573528E+01  0.6003191E-03  0.2197245E+00
 -0.1639590E+01 -0.1664710E+02 -0.1027320E+00  0.2094836E+00 -0.1705865E+01  0.2820868E-01  0.2075757E+00
  0.1994750E-06 -0.1672760E+02 -0.1027320E+00  0.1882561E+00 -0.1809741E+01  0.4455601E-01  0.1829075E+00
  0.1639600E+01 -0.1664710E+02 -0.1027320E+00  0.1493880E+00 -0.1889027E+01  0.4674152E-01  0.1418874E+00
  0.3263390E+01 -0.1640620E+02 -0.1027320E+00  0.9719975E-01 -0.1984659E+01  0.3908874E-01  0.8899360E-01
  0.4855770E+01 -0.1600730E+02 -0.1027320E+00  0.6062128E-01 -0.2174856E+01  0.3443218E-01  0.4989353E-01
  0.6401380E+01 -0.1545430E+02 -0.1027320E+00  0.4322460E-01 -0.2525173E+01  0.3526927E-01  0.2498888E-01
  0.7885340E+01 -0.1475240E+02 -0.1027320E+00  0.3923332E-01 -0.2936136E+01  0.3840816E-01  0.8004162E-02
  0.9293360E+01 -0.1390850E+02 -0.1027320E+00  0.4328257E-01  0.3044665E+01  0.4307941E-01 -0.4188703E-02
  0.1061190E+02 -0.1293060E+02 -0.1027320E+00  0.5061994E-01  0.2848735E+01  0.4846469E-01 -0.1461343E-01
  0.1182820E+02 -0.1182820E+02 -0.1027320E+00  0.5875593E-01  0.2755714E+01  0.5443550E-01 -0.2211414E-01
  0.1293060E+02 -0.1061190E+02 -0.1027320E+00  0.6686685E-01  0.2698000E+01  0.6039517E-01 -0.2869841E-01
  0.1390850E+02 -0.9293360E+01 -0.1027320E+00  0.7493556E-01  0.2651129E+01  0.6610173E-01 -0.3529730E-01
