 VARIABLES="X" "Y" "Z" "abs(eta) (m)" "angle(phi) (rad)" "PRE1" "PRE2"
ZONE N=   3200 ,E =    3136 ,F=FEPOINT,ET=QUADRILATERAL
  0.1530690E+02  0.0000000E+00  0.0000000E+00  0.8674590E-01 -0.1098433E+01 -0.3946874E-01  0.7724681E-01
  0.1523320E+02  0.1500340E+01  0.0000000E+00  0.8267462E-01 -0.1124232E+01 -0.3570465E-01  0.7456723E-01
  0.1501280E+02  0.2986230E+01  0.0000000E+00  0.7844768E-01 -0.1159152E+01 -0.3138825E-01  0.7189449E-01
  0.1464780E+02  0.4443360E+01  0.0000000E+00  0.7384604E-01 -0.1207728E+01 -0.2622602E-01  0.6903213E-01
  0.1414170E+02  0.5857700E+01  0.0000000E+00  0.6908489E-01 -0.1271532E+01 -0.2036743E-01  0.6601432E-01
  0.1349950E+02  0.7215620E+01  0.0000000E+00  0.6478096E-01 -0.1348239E+01 -0.1429878E-01  0.6318320E-01
  0.1272720E+02  0.8504060E+01  0.0000000E+00  0.6070309E-01 -0.1442689E+01 -0.7755281E-02  0.6020566E-01
  0.1183240E+02  0.9710600E+01  0.0000000E+00  0.5660732E-01 -0.1565428E+01 -0.3038809E-03  0.5660651E-01
  0.1082360E+02  0.1082360E+02  0.0000000E+00  0.5265999E-01 -0.1732823E+01  0.8495033E-02  0.5197027E-01
  0.9710590E+01  0.1183240E+02  0.0000000E+00  0.5029970E-01 -0.1924783E+01  0.1743589E-01  0.4718103E-01
  0.8504060E+01  0.1272720E+02  0.0000000E+00  0.4974869E-01 -0.2152338E+01  0.2732760E-01  0.4157084E-01
  0.7215620E+01  0.1349950E+02  0.0000000E+00  0.5201433E-01 -0.2415178E+01  0.3888387E-01  0.3454759E-01
  0.5857700E+01  0.1414170E+02  0.0000000E+00  0.5892370E-01 -0.2700753E+01  0.5329021E-01  0.2514270E-01
  0.4443360E+01  0.1464780E+02  0.0000000E+00  0.7261976E-01 -0.2967312E+01  0.7151968E-01  0.1259225E-01
  0.2986230E+01  0.1501280E+02  0.0000000E+00  0.1035090E+00  0.3044048E+01  0.1030169E+00 -0.1008073E-01
  0.1500340E+01  0.1523320E+02  0.0000000E+00  0.1892256E+00  0.2792861E+01  0.1778355E+00 -0.6465961E-01
 -0.6690860E-06  0.1530690E+02  0.0000000E+00  0.2084951E+00  0.2766498E+01  0.1939990E+00 -0.7638446E-01
 -0.1500340E+01  0.1523320E+02  0.0000000E+00  0.1892254E+00  0.2792860E+01  0.1778353E+00 -0.6465957E-01
 -0.2986230E+01  0.1501280E+02  0.0000000E+00  0.1035092E+00  0.3044049E+01  0.1030172E+00 -0.1008070E-01
 -0.4443360E+01  0.1464780E+02  0.0000000E+00  0.7261965E-01 -0.2967312E+01  0.7151958E-01  0.1259224E-01
 -0.5857700E+01  0.1414170E+02  0.0000000E+00  0.5892345E-01 -0.2700750E+01  0.5328993E-01  0.2514271E-01
 -0.7215620E+01  0.1349950E+02  0.0000000E+00  0.5201437E-01 -0.2415180E+01  0.3888398E-01  0.3454752E-01
 -0.8504060E+01  0.1272720E+02  0.0000000E+00  0.4974861E-01 -0.2152338E+01  0.2732753E-01  0.4157079E-01
 -0.9710590E+01  0.1183240E+02  0.0000000E+00  0.5029968E-01 -0.1924783E+01  0.1743587E-01  0.4718101E-01
 -0.1082360E+02  0.1082360E+02  0.0000000E+00  0.5265998E-01 -0.1732821E+01  0.8494919E-02  0.5197028E-01
 -0.1183240E+02  0.9710590E+01  0.0000000E+00  0.5660737E-01 -0.1565426E+01 -0.3039761E-03  0.5660655E-01
 -0.1272720E+02  0.8504060E+01  0.0000000E+00  0.6070308E-01 -0.1442686E+01 -0.7755421E-02  0.6020562E-01
 -0.1349950E+02  0.7215620E+01  0.0000000E+00  0.6478085E-01 -0.1348239E+01 -0.1429872E-01  0.6318311E-01
 -0.1414170E+02  0.5857690E+01  0.0000000E+00  0.6908484E-01 -0.1271530E+01 -0.2036754E-01  0.6601422E-01
 -0.1464780E+02  0.4443360E+01  0.0000000E+00  0.7384597E-01 -0.1207730E+01 -0.2622585E-01  0.6903211E-01
 -0.1501280E+02  0.2986230E+01  0.0000000E+00  0.7844765E-01 -0.1159152E+01 -0.3138820E-01  0.7189447E-01
 -0.1523320E+02  0.1500340E+01  0.0000000E+00  0.8267459E-01 -0.1124232E+01 -0.3570460E-01  0.7456721E-01
 -0.1530690E+02 -0.1338170E-05  0.0000000E+00  0.8674591E-01 -0.1098433E+01 -0.3946870E-01  0.7724684E-01
 -0.1523320E+02 -0.1500340E+01  0.0000000E+00  0.9071966E-01 -0.1081368E+01 -0.4264924E-01  0.8006934E-01
 -0.1501280E+02 -0.2986230E+01  0.0000000E+00  0.9464713E-01 -0.1073066E+01 -0.4518758E-01  0.8316347E-01
 -0.1464780E+02 -0.4443360E+01  0.0000000E+00  0.9829696E-01 -0.1074873E+01 -0.4677398E-01  0.8645512E-01
 -0.1414170E+02 -0.5857700E+01  0.0000000E+00  0.1017096E+00 -0.1084845E+01 -0.4750350E-01  0.8993481E-01
 -0.1349950E+02 -0.7215620E+01  0.0000000E+00  0.1049558E+00 -0.1097620E+01 -0.4783001E-01  0.9342387E-01
 -0.1272720E+02 -0.8504060E+01  0.0000000E+00  0.1081341E+00 -0.1116980E+01 -0.4740583E-01  0.9718887E-01
 -0.1183240E+02 -0.9710600E+01  0.0000000E+00  0.1114232E+00 -0.1148083E+01 -0.4570986E-01  0.1016156E+00
 -0.1082360E+02 -0.1082360E+02  0.0000000E+00  0.1150196E+00 -0.1194409E+01 -0.4227697E-01  0.1069681E+00
 -0.9710600E+01 -0.1183240E+02  0.0000000E+00  0.1187172E+00 -0.1242444E+01 -0.3828436E-01  0.1123747E+00
 -0.8504050E+01 -0.1272720E+02  0.0000000E+00  0.1229133E+00 -0.1299553E+01 -0.3293208E-01  0.1184194E+00
 -0.7215620E+01 -0.1349950E+02  0.0000000E+00  0.1281860E+00 -0.1370483E+01 -0.2550596E-01  0.1256228E+00
 -0.5857690E+01 -0.1414170E+02  0.0000000E+00  0.1356083E+00 -0.1461108E+01 -0.1484489E-01  0.1347933E+00
 -0.4443360E+01 -0.1464780E+02  0.0000000E+00  0.1466030E+00 -0.1570668E+01 -0.1877923E-04  0.1466030E+00
 -0.2986230E+01 -0.1501280E+02  0.0000000E+00  0.1697344E+00 -0.1735283E+01  0.2779327E-01  0.1674434E+00
 -0.1500340E+01 -0.1523320E+02  0.0000000E+00  0.2382214E+00 -0.1987887E+01  0.9650412E-01  0.2177990E+00
  0.1825330E-06 -0.1530690E+02  0.0000000E+00  0.2542803E+00 -0.2023529E+01  0.1112284E+00  0.2286629E+00
  0.1500340E+01 -0.1523320E+02  0.0000000E+00  0.2382214E+00 -0.1987887E+01  0.9650410E-01  0.2177990E+00
  0.2986230E+01 -0.1501280E+02  0.0000000E+00  0.1697344E+00 -0.1735282E+01  0.2779318E-01  0.1674435E+00
  0.4443360E+01 -0.1464780E+02  0.0000000E+00  0.1466030E+00 -0.1570669E+01 -0.1870986E-04  0.1466030E+00
  0.5857700E+01 -0.1414170E+02  0.0000000E+00  0.1356083E+00 -0.1461107E+01 -0.1484495E-01  0.1347933E+00
  0.7215620E+01 -0.1349950E+02  0.0000000E+00  0.1281860E+00 -0.1370484E+01 -0.2550591E-01  0.1256229E+00
  0.8504060E+01 -0.1272720E+02  0.0000000E+00  0.1229134E+00 -0.1299553E+01 -0.3293210E-01  0.1184196E+00
  0.9710600E+01 -0.1183240E+02  0.0000000E+00  0.1187173E+00 -0.1242444E+01 -0.3828437E-01  0.1123749E+00
  0.1082360E+02 -0.1082360E+02  0.0000000E+00  0.1150197E+00 -0.1194409E+01 -0.4227699E-01  0.1069681E+00
  0.1183240E+02 -0.9710590E+01  0.0000000E+00  0.1114232E+00 -0.1148083E+01 -0.4570983E-01  0.1016157E+00
  0.1272720E+02 -0.8504060E+01  0.0000000E+00  0.1081342E+00 -0.1116980E+01 -0.4740587E-01  0.9718896E-01
  0.1349950E+02 -0.7215620E+01  0.0000000E+00  0.1049559E+00 -0.1097621E+01 -0.4782999E-01  0.9342397E-01
  0.1414170E+02 -0.5857700E+01  0.0000000E+00  0.1017096E+00 -0.1084844E+01 -0.4750352E-01  0.8993478E-01
  0.1464780E+02 -0.4443350E+01  0.0000000E+00  0.9829704E-01 -0.1074873E+01 -0.4677403E-01  0.8645518E-01
  0.1501280E+02 -0.2986230E+01  0.0000000E+00  0.9464727E-01 -0.1073067E+01 -0.4518763E-01  0.8316360E-01
  0.1523320E+02 -0.1500330E+01  0.0000000E+00  0.9071980E-01 -0.1081368E+01 -0.4264934E-01  0.8006945E-01
  0.1530690E+02  0.0000000E+00 -0.2568960E-01  0.8660464E-01 -0.1098465E+01 -0.3940197E-01  0.7712229E-01
  0.1523320E+02  0.1500340E+01 -0.2568960E-01  0.8253987E-01 -0.1124268E+01 -0.3564378E-01  0.7444697E-01
  0.1501280E+02  0.2986230E+01 -0.2568960E-01  0.7832008E-01 -0.1159198E+01 -0.3133389E-01  0.7177898E-01
  0.1464780E+02  0.4443360E+01 -0.2568960E-01  0.7372706E-01 -0.1207774E+01 -0.2618057E-01  0.6892212E-01
  0.1414170E+02  0.5857700E+01 -0.2568960E-01  0.6897493E-01 -0.1271568E+01 -0.2033261E-01  0.6590998E-01
  0.1349950E+02  0.7215620E+01 -0.2568960E-01  0.6467660E-01 -0.1348304E+01 -0.1427162E-01  0.6308235E-01
  0.1272720E+02  0.8504060E+01 -0.2568960E-01  0.6060340E-01 -0.1442800E+01 -0.7735830E-02  0.6010764E-01
  0.1183240E+02  0.9710600E+01 -0.2568960E-01  0.5651481E-01 -0.1565563E+01 -0.2957582E-03  0.5651403E-01
  0.1082360E+02  0.1082360E+02 -0.2568960E-01  0.5257811E-01 -0.1732866E+01  0.8484039E-02  0.5188910E-01
  0.9710590E+01  0.1183240E+02 -0.2568960E-01  0.5022144E-01 -0.1924879E+01  0.1741327E-01  0.4710596E-01
  0.8504060E+01  0.1272720E+02 -0.2568960E-01  0.4967244E-01 -0.2152486E+01  0.2729186E-01  0.4150308E-01
  0.7215620E+01  0.1349950E+02 -0.2568960E-01  0.5193616E-01 -0.2415274E+01  0.3882872E-01  0.3449196E-01
  0.5857700E+01  0.1414170E+02 -0.2568960E-01  0.5883191E-01 -0.2700692E+01  0.5320568E-01  0.2510676E-01
  0.4443360E+01  0.1464780E+02 -0.2568960E-01  0.7250746E-01 -0.2967284E+01  0.7140873E-01  0.1257480E-01
  0.2986230E+01  0.1501280E+02 -0.2568960E-01  0.1033605E+00  0.3043999E+01  0.1028686E+00 -0.1007130E-01
  0.1500340E+01  0.1523320E+02 -0.2568960E-01  0.1889849E+00  0.2792787E+01  0.1776046E+00 -0.6459038E-01
 -0.6690860E-06  0.1530690E+02 -0.2568960E-01  0.2082034E+00  0.2766468E+01  0.1937253E+00 -0.7628335E-01
 -0.1500340E+01  0.1523320E+02 -0.2568960E-01  0.1889854E+00  0.2792788E+01  0.1776050E+00 -0.6459045E-01
 -0.2986230E+01  0.1501280E+02 -0.2568960E-01  0.1033606E+00  0.3044000E+01  0.1028688E+00 -0.1007122E-01
 -0.4443360E+01  0.1464780E+02 -0.2568960E-01  0.7250734E-01 -0.2967283E+01  0.7140861E-01  0.1257479E-01
 -0.5857700E+01  0.1414170E+02 -0.2568960E-01  0.5883190E-01 -0.2700692E+01  0.5320567E-01  0.2510676E-01
 -0.7215620E+01  0.1349950E+02 -0.2568960E-01  0.5193597E-01 -0.2415271E+01  0.3882848E-01  0.3449194E-01
 -0.8504060E+01  0.1272720E+02 -0.2568960E-01  0.4967249E-01 -0.2152488E+01  0.2729195E-01  0.4150308E-01
 -0.9710590E+01  0.1183240E+02 -0.2568960E-01  0.5022144E-01 -0.1924879E+01  0.1741328E-01  0.4710595E-01
 -0.1082360E+02  0.1082360E+02 -0.2568960E-01  0.5257811E-01 -0.1732867E+01  0.8484095E-02  0.5188909E-01
 -0.1183240E+02  0.9710590E+01 -0.2568960E-01  0.5651481E-01 -0.1565561E+01 -0.2958940E-03  0.5651403E-01
 -0.1272720E+02  0.8504060E+01 -0.2568960E-01  0.6060331E-01 -0.1442801E+01 -0.7735801E-02  0.6010756E-01
 -0.1349950E+02  0.7215620E+01 -0.2568960E-01  0.6467651E-01 -0.1348304E+01 -0.1427160E-01  0.6308226E-01
 -0.1414170E+02  0.5857690E+01 -0.2568960E-01  0.6897495E-01 -0.1271570E+01 -0.2033247E-01  0.6591005E-01
 -0.1464780E+02  0.4443360E+01 -0.2568960E-01  0.7372703E-01 -0.1207773E+01 -0.2618065E-01  0.6892205E-01
 -0.1501280E+02  0.2986230E+01 -0.2568960E-01  0.7831988E-01 -0.1159197E+01 -0.3133387E-01  0.7177877E-01
 -0.1523320E+02  0.1500340E+01 -0.2568960E-01  0.8253983E-01 -0.1124267E+01 -0.3564383E-01  0.7444689E-01
 -0.1530690E+02 -0.1338170E-05 -0.2568960E-01  0.8660461E-01 -0.1098466E+01 -0.3940190E-01  0.7712229E-01
 -0.1523320E+02 -0.1500340E+01 -0.2568960E-01  0.9057167E-01 -0.1081399E+01 -0.4257717E-01  0.7994005E-01
 -0.1501280E+02 -0.2986230E+01 -0.2568960E-01  0.9449216E-01 -0.1073099E+01 -0.4511087E-01  0.8302877E-01
 -0.1464780E+02 -0.4443360E+01 -0.2568960E-01  0.9813558E-01 -0.1074896E+01 -0.4669520E-01  0.8631425E-01
 -0.1414170E+02 -0.5857700E+01 -0.2568960E-01  0.1015423E+00 -0.1084856E+01 -0.4742434E-01  0.8978736E-01
 -0.1349950E+02 -0.7215620E+01 -0.2568960E-01  0.1047835E+00 -0.1097654E+01 -0.4774829E-01  0.9327206E-01
 -0.1272720E+02 -0.8504060E+01 -0.2568960E-01  0.1079570E+00 -0.1117044E+01 -0.4732198E-01  0.9703274E-01
 -0.1183240E+02 -0.9710600E+01 -0.2568960E-01  0.1112407E+00 -0.1148152E+01 -0.4562801E-01  0.1014524E+00
 -0.1082360E+02 -0.1082360E+02 -0.2568960E-01  0.1148299E+00 -0.1194429E+01 -0.4220513E-01  0.1067925E+00
 -0.9710600E+01 -0.1183240E+02 -0.2568960E-01  0.1185221E+00 -0.1242490E+01 -0.3821632E-01  0.1121918E+00
 -0.8504050E+01 -0.1272720E+02 -0.2568960E-01  0.1227127E+00 -0.1299625E+01 -0.3286988E-01  0.1182285E+00
 -0.7215620E+01 -0.1349950E+02 -0.2568960E-01  0.1279766E+00 -0.1370546E+01 -0.2545648E-01  0.1254192E+00
 -0.5857690E+01 -0.1414170E+02 -0.2568960E-01  0.1353840E+00 -0.1461125E+01 -0.1481795E-01  0.1345706E+00
 -0.4443360E+01 -0.1464780E+02 -0.2568960E-01  0.1463627E+00 -0.1570706E+01 -0.1323105E-04  0.1463627E+00
 -0.2986230E+01 -0.1501280E+02 -0.2568960E-01  0.1694679E+00 -0.1735383E+01  0.2776635E-01  0.1671778E+00
 -0.1500340E+01 -0.1523320E+02 -0.2568960E-01  0.2378869E+00 -0.1988043E+01  0.9640241E-01  0.2174782E+00
  0.1825330E-06 -0.1530690E+02 -0.2568960E-01  0.2539039E+00 -0.2023631E+01  0.1110870E+00  0.2283130E+00
  0.1500340E+01 -0.1523320E+02 -0.2568960E-01  0.2378869E+00 -0.1988043E+01  0.9640246E-01  0.2174782E+00
  0.2986230E+01 -0.1501280E+02 -0.2568960E-01  0.1694680E+00 -0.1735383E+01  0.2776645E-01  0.1671779E+00
  0.4443360E+01 -0.1464780E+02 -0.2568960E-01  0.1463627E+00 -0.1570706E+01 -0.1315667E-04  0.1463627E+00
  0.5857700E+01 -0.1414170E+02 -0.2568960E-01  0.1353839E+00 -0.1461125E+01 -0.1481803E-01  0.1345706E+00
  0.7215620E+01 -0.1349950E+02 -0.2568960E-01  0.1279767E+00 -0.1370546E+01 -0.2545647E-01  0.1254193E+00
  0.8504060E+01 -0.1272720E+02 -0.2568960E-01  0.1227127E+00 -0.1299624E+01 -0.3286995E-01  0.1182285E+00
  0.9710600E+01 -0.1183240E+02 -0.2568960E-01  0.1185223E+00 -0.1242490E+01 -0.3821631E-01  0.1121920E+00
  0.1082360E+02 -0.1082360E+02 -0.2568960E-01  0.1148300E+00 -0.1194429E+01 -0.4220514E-01  0.1067925E+00
  0.1183240E+02 -0.9710590E+01 -0.2568960E-01  0.1112406E+00 -0.1148152E+01 -0.4562800E-01  0.1014523E+00
  0.1272720E+02 -0.8504060E+01 -0.2568960E-01  0.1079571E+00 -0.1117045E+01 -0.4732196E-01  0.9703281E-01
  0.1349950E+02 -0.7215620E+01 -0.2568960E-01  0.1047836E+00 -0.1097655E+01 -0.4774828E-01  0.9327219E-01
  0.1414170E+02 -0.5857700E+01 -0.2568960E-01  0.1015423E+00 -0.1084856E+01 -0.4742433E-01  0.8978742E-01
  0.1464780E+02 -0.4443350E+01 -0.2568960E-01  0.9813570E-01 -0.1074896E+01 -0.4669526E-01  0.8631436E-01
  0.1501280E+02 -0.2986230E+01 -0.2568960E-01  0.9449219E-01 -0.1073100E+01 -0.4511082E-01  0.8302884E-01
  0.1523320E+02 -0.1500330E+01 -0.2568960E-01  0.9057172E-01 -0.1081400E+01 -0.4257714E-01  0.7994013E-01
  0.1530690E+02  0.0000000E+00 -0.1027320E+00  0.8618414E-01 -0.1098520E+01 -0.3920645E-01  0.7675000E-01
  0.1523320E+02  0.1500340E+01 -0.1027320E+00  0.8213872E-01 -0.1124331E+01 -0.3546587E-01  0.7408740E-01
  0.1501280E+02  0.2986230E+01 -0.1027320E+00  0.7793956E-01 -0.1159287E+01 -0.3117525E-01  0.7143303E-01
  0.1464780E+02  0.4443360E+01 -0.1027320E+00  0.7337217E-01 -0.1207858E+01 -0.2604880E-01  0.6859253E-01
  0.1414170E+02  0.5857700E+01 -0.1027320E+00  0.6864659E-01 -0.1271635E+01 -0.2023146E-01  0.6559758E-01
  0.1349950E+02  0.7215620E+01 -0.1027320E+00  0.6436387E-01 -0.1348445E+01 -0.1419376E-01  0.6277933E-01
  0.1272720E+02  0.8504060E+01 -0.1027320E+00  0.6030412E-01 -0.1443087E+01 -0.7680479E-02  0.5981302E-01
  0.1183240E+02  0.9710600E+01 -0.1027320E+00  0.5623669E-01 -0.1565917E+01 -0.2744192E-03  0.5623602E-01
  0.1082360E+02  0.1082360E+02 -0.1027320E+00  0.5233143E-01 -0.1732949E+01  0.8448519E-02  0.5164495E-01
  0.9710590E+01  0.1183240E+02 -0.1027320E+00  0.4998496E-01 -0.1925128E+01  0.1734298E-01  0.4687981E-01
  0.8504060E+01  0.1272720E+02 -0.1027320E+00  0.4944174E-01 -0.2152909E+01  0.2718258E-01  0.4129883E-01
  0.7215620E+01  0.1349950E+02 -0.1027320E+00  0.5170072E-01 -0.2415668E+01  0.3866624E-01  0.3432035E-01
  0.5857700E+01  0.1414170E+02 -0.1027320E+00  0.5855659E-01 -0.2700561E+01  0.5295342E-01  0.2499619E-01
  0.4443360E+01  0.1464780E+02 -0.1027320E+00  0.7216686E-01 -0.2967187E+01  0.7107208E-01  0.1252258E-01
  0.2986230E+01  0.1501280E+02 -0.1027320E+00  0.1029179E+00  0.3043813E+01  0.1024264E+00 -0.1004724E-01
  0.1500340E+01  0.1523320E+02 -0.1027320E+00  0.1882314E+00  0.2792608E+01  0.1768849E+00 -0.6436466E-01
 -0.6690860E-06  0.1530690E+02 -0.1027320E+00  0.2074053E+00  0.2766266E+01  0.1929675E+00 -0.7602984E-01
 -0.1500340E+01  0.1523320E+02 -0.1027320E+00  0.1882317E+00  0.2792608E+01  0.1768852E+00 -0.6436464E-01
 -0.2986230E+01  0.1501280E+02 -0.1027320E+00  0.1029173E+00  0.3043813E+01  0.1024257E+00 -0.1004724E-01
 -0.4443360E+01  0.1464780E+02 -0.1027320E+00  0.7216698E-01 -0.2967188E+01  0.7107221E-01  0.1252257E-01
 -0.5857700E+01  0.1414170E+02 -0.1027320E+00  0.5855655E-01 -0.2700562E+01  0.5295339E-01  0.2499616E-01
 -0.7215620E+01  0.1349950E+02 -0.1027320E+00  0.5170077E-01 -0.2415669E+01  0.3866631E-01  0.3432035E-01
 -0.8504060E+01  0.1272720E+02 -0.1027320E+00  0.4944166E-01 -0.2152910E+01  0.2718257E-01  0.4129874E-01
 -0.9710590E+01  0.1183240E+02 -0.1027320E+00  0.4998489E-01 -0.1925122E+01  0.1734265E-01  0.4687986E-01
 -0.1082360E+02  0.1082360E+02 -0.1027320E+00  0.5233137E-01 -0.1732950E+01  0.8448597E-02  0.5164488E-01
 -0.1183240E+02  0.9710590E+01 -0.1027320E+00  0.5623668E-01 -0.1565917E+01 -0.2743681E-03  0.5623601E-01
 -0.1272720E+02  0.8504060E+01 -0.1027320E+00  0.6030404E-01 -0.1443088E+01 -0.7680390E-02  0.5981295E-01
 -0.1349950E+02  0.7215620E+01 -0.1027320E+00  0.6436381E-01 -0.1348446E+01 -0.1419367E-01  0.6277930E-01
 -0.1414170E+02  0.5857690E+01 -0.1027320E+00  0.6864662E-01 -0.1271633E+01 -0.2023158E-01  0.6559758E-01
 -0.1464780E+02  0.4443360E+01 -0.1027320E+00  0.7337205E-01 -0.1207857E+01 -0.2604882E-01  0.6859240E-01
 -0.1501280E+02  0.2986230E+01 -0.1027320E+00  0.7793948E-01 -0.1159287E+01 -0.3117524E-01  0.7143296E-01
 -0.1523320E+02  0.1500340E+01 -0.1027320E+00  0.8213875E-01 -0.1124330E+01 -0.3546595E-01  0.7408739E-01
 -0.1530690E+02 -0.1338170E-05 -0.1027320E+00  0.8618412E-01 -0.1098520E+01 -0.3920643E-01  0.7674997E-01
 -0.1523320E+02 -0.1500340E+01 -0.1027320E+00  0.9013188E-01 -0.1081462E+01 -0.4236546E-01  0.7955453E-01
 -0.1501280E+02 -0.2986230E+01 -0.1027320E+00  0.9403179E-01 -0.1073171E+01 -0.4488517E-01  0.8262748E-01
 -0.1464780E+02 -0.4443360E+01 -0.1027320E+00  0.9765612E-01 -0.1074940E+01 -0.4646328E-01  0.8589460E-01
 -0.1414170E+02 -0.5857700E+01 -0.1027320E+00  0.1010454E+00 -0.1084869E+01 -0.4719105E-01  0.8934858E-01
 -0.1349950E+02 -0.7215620E+01 -0.1027320E+00  0.1042715E+00 -0.1097736E+01 -0.4750738E-01  0.9282025E-01
 -0.1272720E+02 -0.8504060E+01 -0.1027320E+00  0.1074312E+00 -0.1117220E+01 -0.4707452E-01  0.9656835E-01
 -0.1183240E+02 -0.9710600E+01 -0.1027320E+00  0.1106990E+00 -0.1148342E+01 -0.4538657E-01  0.1009669E+00
 -0.1082360E+02 -0.1082360E+02 -0.1027320E+00  0.1142661E+00 -0.1194470E+01 -0.4199352E-01  0.1062699E+00
 -0.9710600E+01 -0.1183240E+02 -0.1027320E+00  0.1179423E+00 -0.1242610E+01 -0.3801593E-01  0.1116476E+00
 -0.8504050E+01 -0.1272720E+02 -0.1027320E+00  0.1221159E+00 -0.1299820E+01 -0.3268702E-01  0.1176599E+00
 -0.7215620E+01 -0.1349950E+02 -0.1027320E+00  0.1273563E+00 -0.1370757E+01 -0.2530669E-01  0.1248167E+00
 -0.5857690E+01 -0.1414170E+02 -0.1027320E+00  0.1347172E+00 -0.1461174E+01 -0.1473849E-01  0.1339086E+00
 -0.4443360E+01 -0.1464780E+02 -0.1027320E+00  0.1456452E+00 -0.1570785E+01 -0.1592027E-05  0.1456452E+00
 -0.2986230E+01 -0.1501280E+02 -0.1027320E+00  0.1686779E+00 -0.1735683E+01  0.2768681E-01  0.1663901E+00
 -0.1500340E+01 -0.1523320E+02 -0.1027320E+00  0.2368608E+00 -0.1988425E+01  0.9606932E-01  0.2165034E+00
  0.1825330E-06 -0.1530690E+02 -0.1027320E+00  0.2528442E+00 -0.2024057E+01  0.1107202E+00  0.2273130E+00
  0.1500340E+01 -0.1523320E+02 -0.1027320E+00  0.2368609E+00 -0.1988425E+01  0.9606948E-01  0.2165034E+00
  0.2986230E+01 -0.1501280E+02 -0.1027320E+00  0.1686780E+00 -0.1735683E+01  0.2768683E-01  0.1663902E+00
  0.4443360E+01 -0.1464780E+02 -0.1027320E+00  0.1456453E+00 -0.1570786E+01 -0.1553329E-05  0.1456453E+00
  0.5857700E+01 -0.1414170E+02 -0.1027320E+00  0.1347173E+00 -0.1461174E+01 -0.1473850E-01  0.1339086E+00
  0.7215620E+01 -0.1349950E+02 -0.1027320E+00  0.1273563E+00 -0.1370757E+01 -0.2530664E-01  0.1248167E+00
  0.8504060E+01 -0.1272720E+02 -0.1027320E+00  0.1221159E+00 -0.1299820E+01 -0.3268703E-01  0.1176599E+00
  0.9710600E+01 -0.1183240E+02 -0.1027320E+00  0.1179424E+00 -0.1242610E+01 -0.3801593E-01  0.1116476E+00
  0.1082360E+02 -0.1082360E+02 -0.1027320E+00  0.1142661E+00 -0.1194470E+01 -0.4199354E-01  0.1062699E+00
  0.1183240E+02 -0.9710590E+01 -0.1027320E+00  0.1106991E+00 -0.1148342E+01 -0.4538662E-01  0.1009670E+00
  0.1272720E+02 -0.8504060E+01 -0.1027320E+00  0.1074312E+00 -0.1117221E+01 -0.4707450E-01  0.9656844E-01
