 VARIABLES="X" "Y" "Z" "abs(eta) (m)" "angle(phi) (rad)" "PRE1" "PRE2"
ZONE N=   3200 ,E =    3136 ,F=FEPOINT,ET=QUADRILATERAL
  0.1530690E+02  0.0000000E+00  0.0000000E+00  0.4117802E+00 -0.6812001E+00 -0.3198781E+00  0.2593086E+00
  0.1523320E+02  0.1500340E+01  0.0000000E+00  0.4105048E+00 -0.6752586E+00 -0.3204176E+00  0.2566063E+00
  0.1501280E+02  0.2986230E+01  0.0000000E+00  0.4077869E+00 -0.6734113E+00 -0.3187665E+00  0.2543188E+00
  0.1464780E+02  0.4443360E+01  0.0000000E+00  0.4032080E+00 -0.6753069E+00 -0.3147100E+00  0.2520602E+00
  0.1414170E+02  0.5857700E+01  0.0000000E+00  0.3972783E+00 -0.6811101E+00 -0.3086353E+00  0.2501486E+00
  0.1349950E+02  0.7215620E+01  0.0000000E+00  0.3911095E+00 -0.6912126E+00 -0.3013395E+00  0.2493213E+00
  0.1272720E+02  0.8504060E+01  0.0000000E+00  0.3851837E+00 -0.7061163E+00 -0.2930816E+00  0.2499394E+00
  0.1183240E+02  0.9710600E+01  0.0000000E+00  0.3759572E+00 -0.7238544E+00 -0.2816892E+00  0.2489880E+00
  0.1082360E+02  0.1082360E+02  0.0000000E+00  0.3612708E+00 -0.7443555E+00 -0.2657236E+00  0.2447602E+00
  0.9710590E+01  0.1183240E+02  0.0000000E+00  0.3466790E+00 -0.7688931E+00 -0.2491515E+00  0.2410598E+00
  0.8504060E+01  0.1272720E+02  0.0000000E+00  0.3284968E+00 -0.7973003E+00 -0.2295013E+00  0.2350305E+00
  0.7215620E+01  0.1349950E+02  0.0000000E+00  0.3032711E+00 -0.8306306E+00 -0.2045292E+00  0.2239223E+00
  0.5857700E+01  0.1414170E+02  0.0000000E+00  0.2745056E+00 -0.8705630E+00 -0.1768903E+00  0.2099122E+00
  0.4443360E+01  0.1464780E+02  0.0000000E+00  0.2340708E+00 -0.9245800E+00 -0.1409504E+00  0.1868746E+00
  0.2986230E+01  0.1501280E+02  0.0000000E+00  0.1634790E+00 -0.1034489E+01 -0.8353209E-01  0.1405268E+00
  0.1500340E+01  0.1523320E+02  0.0000000E+00  0.7606483E-01  0.3108998E+01  0.7602443E-01 -0.2478899E-02
 -0.6690860E-06  0.1530690E+02  0.0000000E+00  0.1764882E+00  0.2742407E+01  0.1626123E+00 -0.6859536E-01
 -0.1500340E+01  0.1523320E+02  0.0000000E+00  0.2493645E+00  0.2683317E+01  0.2236342E+00 -0.1103195E+00
 -0.2986230E+01  0.1501280E+02  0.0000000E+00  0.2998293E+00  0.2655756E+01  0.2651345E+00 -0.1400048E+00
 -0.4443360E+01  0.1464780E+02  0.0000000E+00  0.3056183E+00  0.2662136E+01  0.2711585E+00 -0.1409808E+00
 -0.5857700E+01  0.1414170E+02  0.0000000E+00  0.3097026E+00  0.2674349E+01  0.2765065E+00 -0.1394985E+00
 -0.7215620E+01  0.1349950E+02  0.0000000E+00  0.3106122E+00  0.2690910E+01  0.2795976E+00 -0.1352965E+00
 -0.8504060E+01  0.1272720E+02  0.0000000E+00  0.3140524E+00  0.2704291E+01  0.2844994E+00 -0.1330000E+00
 -0.9710590E+01  0.1183240E+02  0.0000000E+00  0.3141671E+00  0.2720293E+01  0.2866957E+00 -0.1284777E+00
 -0.1082360E+02  0.1082360E+02  0.0000000E+00  0.3126889E+00  0.2736572E+01  0.2873905E+00 -0.1232113E+00
 -0.1183240E+02  0.9710590E+01  0.0000000E+00  0.3113323E+00  0.2750579E+01  0.2878339E+00 -0.1186568E+00
 -0.1272720E+02  0.8504060E+01  0.0000000E+00  0.3073572E+00  0.2765312E+01  0.2858538E+00 -0.1129426E+00
 -0.1349950E+02  0.7215620E+01  0.0000000E+00  0.3017525E+00  0.2779233E+01  0.2821576E+00 -0.1069656E+00
 -0.1414170E+02  0.5857690E+01  0.0000000E+00  0.2966775E+00  0.2787955E+01  0.2783189E+00 -0.1027431E+00
 -0.1464780E+02  0.4443360E+01  0.0000000E+00  0.2911568E+00  0.2793824E+01  0.2737269E+00 -0.9922650E-01
 -0.1501280E+02  0.2986230E+01  0.0000000E+00  0.2851170E+00  0.2796790E+01  0.2683356E+00 -0.9637269E-01
 -0.1523320E+02  0.1500340E+01  0.0000000E+00  0.2783199E+00  0.2797286E+01  0.2619852E+00 -0.9394535E-01
 -0.1530690E+02 -0.1338170E-05  0.0000000E+00  0.2705535E+00  0.2794651E+01  0.2544331E+00 -0.9199455E-01
 -0.1523320E+02 -0.1500340E+01  0.0000000E+00  0.2618275E+00  0.2789339E+01  0.2457506E+00 -0.9033421E-01
 -0.1501280E+02 -0.2986230E+01  0.0000000E+00  0.2523001E+00  0.2781570E+01  0.2361248E+00 -0.8888405E-01
 -0.1464780E+02 -0.4443360E+01  0.0000000E+00  0.2421123E+00  0.2772231E+01  0.2257838E+00 -0.8740734E-01
 -0.1414170E+02 -0.5857700E+01  0.0000000E+00  0.2313639E+00  0.2759930E+01  0.2147165E+00 -0.8617473E-01
 -0.1349950E+02 -0.7215620E+01  0.0000000E+00  0.2199426E+00  0.2741261E+01  0.2025521E+00 -0.8571698E-01
 -0.1272720E+02 -0.8504060E+01  0.0000000E+00  0.2084295E+00  0.2714174E+01  0.1896789E+00 -0.8639874E-01
 -0.1183240E+02 -0.9710600E+01  0.0000000E+00  0.1955524E+00  0.2690408E+01  0.1759837E+00 -0.8526710E-01
 -0.1082360E+02 -0.1082360E+02  0.0000000E+00  0.1810895E+00  0.2678689E+01  0.1620315E+00 -0.8086526E-01
 -0.9710600E+01 -0.1183240E+02  0.0000000E+00  0.1661131E+00  0.2660214E+01  0.1472356E+00 -0.7691063E-01
 -0.8504050E+01 -0.1272720E+02  0.0000000E+00  0.1496537E+00  0.2650092E+01  0.1319385E+00 -0.7062903E-01
 -0.7215620E+01 -0.1349950E+02  0.0000000E+00  0.1306158E+00  0.2670181E+01  0.1163692E+00 -0.5931847E-01
 -0.5857690E+01 -0.1414170E+02  0.0000000E+00  0.1112671E+00  0.2722136E+01  0.1016214E+00 -0.4531509E-01
 -0.4443360E+01 -0.1464780E+02  0.0000000E+00  0.9070225E-01  0.2889512E+01  0.8783566E-01 -0.2262289E-01
 -0.2986230E+01 -0.1501280E+02  0.0000000E+00  0.8355218E-01 -0.2869819E+01  0.8048551E-01  0.2242879E-01
 -0.1500340E+01 -0.1523320E+02  0.0000000E+00  0.1909784E+00 -0.2123733E+01  0.1002997E+00  0.1625199E+00
  0.1825330E-06 -0.1530690E+02  0.0000000E+00  0.2447236E+00 -0.1926705E+01  0.8527202E-01  0.2293869E+00
  0.1500340E+01 -0.1523320E+02  0.0000000E+00  0.2779807E+00 -0.1742049E+01  0.4737269E-01  0.2739144E+00
  0.2986230E+01 -0.1501280E+02  0.0000000E+00  0.3130903E+00 -0.1444465E+01 -0.3944791E-01  0.3105952E+00
  0.4443360E+01 -0.1464780E+02  0.0000000E+00  0.3277190E+00 -0.1288475E+01 -0.9129799E-01  0.3147450E+00
  0.5857700E+01 -0.1414170E+02  0.0000000E+00  0.3405383E+00 -0.1181296E+01 -0.1293114E+00  0.3150316E+00
  0.7215620E+01 -0.1349950E+02  0.0000000E+00  0.3512850E+00 -0.1092765E+01 -0.1616022E+00  0.3119068E+00
  0.8504060E+01 -0.1272720E+02  0.0000000E+00  0.3634029E+00 -0.1022179E+01 -0.1895174E+00  0.3100723E+00
  0.9710600E+01 -0.1183240E+02  0.0000000E+00  0.3729129E+00 -0.9603020E+00 -0.2137807E+00  0.3055517E+00
  0.1082360E+02 -0.1082360E+02  0.0000000E+00  0.3811470E+00 -0.9057247E+00 -0.2352117E+00  0.2999142E+00
  0.1183240E+02 -0.9710590E+01  0.0000000E+00  0.3894983E+00 -0.8581205E+00 -0.2546776E+00  0.2947002E+00
  0.1272720E+02 -0.8504060E+01  0.0000000E+00  0.3955046E+00 -0.8159328E+00 -0.2709955E+00  0.2880717E+00
  0.1349950E+02 -0.7215620E+01  0.0000000E+00  0.3997559E+00 -0.7793517E+00 -0.2843741E+00  0.2809558E+00
  0.1414170E+02 -0.5857700E+01  0.0000000E+00  0.4041322E+00 -0.7499616E+00 -0.2957096E+00  0.2754608E+00
  0.1464780E+02 -0.4443350E+01  0.0000000E+00  0.4078715E+00 -0.7255662E+00 -0.3051383E+00  0.2706468E+00
  0.1501280E+02 -0.2986230E+01  0.0000000E+00  0.4105138E+00 -0.7062137E+00 -0.3123290E+00  0.2664061E+00
  0.1523320E+02 -0.1500330E+01  0.0000000E+00  0.4117076E+00 -0.6914069E+00 -0.3171588E+00  0.2625137E+00
  0.1530690E+02  0.0000000E+00 -0.2568960E-01  0.4111390E+00 -0.6812344E+00 -0.3193711E+00  0.2589158E+00
  0.1523320E+02  0.1500340E+01 -0.2568960E-01  0.4098665E+00 -0.6752929E+00 -0.3199106E+00  0.2562182E+00
  0.1501280E+02  0.2986230E+01 -0.2568960E-01  0.4071540E+00 -0.6734465E+00 -0.3182628E+00  0.2539353E+00
  0.1464780E+02  0.4443360E+01 -0.2568960E-01  0.4025874E+00 -0.6753407E+00 -0.3142170E+00  0.2516828E+00
  0.1414170E+02  0.5857700E+01 -0.2568960E-01  0.3966697E+00 -0.6811404E+00 -0.3081549E+00  0.2497748E+00
  0.1349950E+02  0.7215620E+01 -0.2568960E-01  0.3905014E+00 -0.6912404E+00 -0.3008641E+00  0.2489420E+00
  0.1272720E+02  0.8504060E+01 -0.2568960E-01  0.3845649E+00 -0.7061341E+00 -0.2926063E+00  0.2495431E+00
  0.1183240E+02  0.9710600E+01 -0.2568960E-01  0.3753478E+00 -0.7238660E+00 -0.2812297E+00  0.2485877E+00
  0.1082360E+02  0.1082360E+02 -0.2568960E-01  0.3607057E+00 -0.7443749E+00 -0.2653032E+00  0.2443825E+00
  0.9710590E+01  0.1183240E+02 -0.2568960E-01  0.3461275E+00 -0.7689111E+00 -0.2487509E+00  0.2406808E+00
  0.8504060E+01  0.1272720E+02 -0.2568960E-01  0.3279695E+00 -0.7973180E+00 -0.2291287E+00  0.2346573E+00
  0.7215620E+01  0.1349950E+02 -0.2568960E-01  0.3028212E+00 -0.8306440E+00 -0.2042228E+00  0.2235929E+00
  0.5857700E+01  0.1414170E+02 -0.2568960E-01  0.2740997E+00 -0.8705699E+00 -0.1766274E+00  0.2096030E+00
  0.4443360E+01  0.1464780E+02 -0.2568960E-01  0.2337459E+00 -0.9245760E+00 -0.1407555E+00  0.1866147E+00
  0.2986230E+01  0.1501280E+02 -0.2568960E-01  0.1632346E+00 -0.1034497E+01 -0.8340613E-01  0.1403174E+00
  0.1500340E+01  0.1523320E+02 -0.2568960E-01  0.7595436E-01  0.3108885E+01  0.7591373E-01 -0.2483883E-02
 -0.6690860E-06  0.1530690E+02 -0.2568960E-01  0.1762415E+00  0.2742354E+01  0.1623814E+00 -0.6850802E-01
 -0.1500340E+01  0.1523320E+02 -0.2568960E-01  0.2490637E+00  0.2683233E+01  0.2233553E+00 -0.1102051E+00
 -0.2986230E+01  0.1501280E+02 -0.2568960E-01  0.2993961E+00  0.2655732E+01  0.2647479E+00 -0.1398089E+00
 -0.4443360E+01  0.1464780E+02 -0.2568960E-01  0.3051816E+00  0.2662107E+01  0.2707669E+00 -0.1407873E+00
 -0.5857700E+01  0.1414170E+02 -0.2568960E-01  0.3092357E+00  0.2674332E+01  0.2760873E+00 -0.1392928E+00
 -0.7215620E+01  0.1349950E+02 -0.2568960E-01  0.3101592E+00  0.2690870E+01  0.2791844E+00 -0.1351104E+00
 -0.8504060E+01  0.1272720E+02 -0.2568960E-01  0.3135582E+00  0.2704287E+01  0.2840512E+00 -0.1327919E+00
 -0.9710590E+01  0.1183240E+02 -0.2568960E-01  0.3136738E+00  0.2720282E+01  0.2862442E+00 -0.1282790E+00
 -0.1082360E+02  0.1082360E+02 -0.2568960E-01  0.3122034E+00  0.2736552E+01  0.2869419E+00 -0.1230257E+00
 -0.1183240E+02  0.9710590E+01 -0.2568960E-01  0.3108394E+00  0.2750572E+01  0.2873774E+00 -0.1184708E+00
 -0.1272720E+02  0.8504060E+01 -0.2568960E-01  0.3068731E+00  0.2765298E+01  0.2854019E+00 -0.1127688E+00
 -0.1349950E+02  0.7215620E+01 -0.2568960E-01  0.3012919E+00  0.2779191E+01  0.2817225E+00 -0.1068141E+00
 -0.1414170E+02  0.5857690E+01 -0.2568960E-01  0.2962288E+00  0.2787900E+01  0.2778923E+00 -0.1026030E+00
 -0.1464780E+02  0.4443360E+01 -0.2568960E-01  0.2907154E+00  0.2793764E+01  0.2733059E+00 -0.9909245E-01
 -0.1501280E+02  0.2986230E+01 -0.2568960E-01  0.2846833E+00  0.2796726E+01  0.2679213E+00 -0.9624334E-01
 -0.1523320E+02  0.1500340E+01 -0.2568960E-01  0.2778956E+00  0.2797218E+01  0.2615794E+00 -0.9381987E-01
 -0.1530690E+02 -0.1338170E-05 -0.2568960E-01  0.2701410E+00  0.2794579E+01  0.2540385E+00 -0.9187251E-01
 -0.1523320E+02 -0.1500340E+01 -0.2568960E-01  0.2614277E+00  0.2789266E+01  0.2453688E+00 -0.9021416E-01
 -0.1501280E+02 -0.2986230E+01 -0.2568960E-01  0.2519151E+00  0.2781487E+01  0.2357572E+00 -0.8876811E-01
 -0.1464780E+02 -0.4443360E+01 -0.2568960E-01  0.2417436E+00  0.2772131E+01  0.2254312E+00 -0.8729683E-01
 -0.1414170E+02 -0.5857700E+01 -0.2568960E-01  0.2310112E+00  0.2759830E+01  0.2143806E+00 -0.8606488E-01
 -0.1349950E+02 -0.7215620E+01 -0.2568960E-01  0.2196064E+00  0.2741180E+01  0.2022356E+00 -0.8560224E-01
 -0.1272720E+02 -0.8504060E+01 -0.2568960E-01  0.2081043E+00  0.2714164E+01  0.1893822E+00 -0.8626593E-01
 -0.1183240E+02 -0.9710600E+01 -0.2568960E-01  0.1952455E+00  0.2690412E+01  0.1757078E+00 -0.8513261E-01
 -0.1082360E+02 -0.1082360E+02 -0.2568960E-01  0.1808114E+00  0.2678612E+01  0.1617765E+00 -0.8075342E-01
 -0.9710600E+01 -0.1183240E+02 -0.2568960E-01  0.1658570E+00  0.2660177E+01  0.1470057E+00 -0.7679749E-01
 -0.8504050E+01 -0.1272720E+02 -0.2568960E-01  0.1494233E+00  0.2650084E+01  0.1317349E+00 -0.7052131E-01
 -0.7215620E+01 -0.1349950E+02 -0.2568960E-01  0.1304300E+00  0.2669987E+01  0.1161922E+00 -0.5925662E-01
 -0.5857690E+01 -0.1414170E+02 -0.2568960E-01  0.1111065E+00  0.2721908E+01  0.1014644E+00 -0.4527284E-01
 -0.4443360E+01 -0.1464780E+02 -0.2568960E-01  0.9057638E-01  0.2889080E+01  0.8770400E-01 -0.2262937E-01
 -0.2986230E+01 -0.1501280E+02 -0.2568960E-01  0.8343000E-01 -0.2870100E+01  0.8037409E-01  0.2237342E-01
 -0.1500340E+01 -0.1523320E+02 -0.2568960E-01  0.1906951E+00 -0.2123917E+01  0.1001807E+00  0.1622604E+00
  0.1825330E-06 -0.1530690E+02 -0.2568960E-01  0.2443576E+00 -0.1926799E+01  0.8516596E-01  0.2290358E+00
  0.1500340E+01 -0.1523320E+02 -0.2568960E-01  0.2775984E+00 -0.1742176E+01  0.4734223E-01  0.2735317E+00
  0.2986230E+01 -0.1501280E+02 -0.2568960E-01  0.3126119E+00 -0.1444520E+01 -0.3937060E-01  0.3101228E+00
  0.4443360E+01 -0.1464780E+02 -0.2568960E-01  0.3272217E+00 -0.1288516E+01 -0.9114630E-01  0.3142712E+00
  0.5857700E+01 -0.1414170E+02 -0.2568960E-01  0.3400058E+00 -0.1181324E+01 -0.1291004E+00  0.3145425E+00
  0.7215620E+01 -0.1349950E+02 -0.2568960E-01  0.3507435E+00 -0.1092820E+01 -0.1613361E+00  0.3114348E+00
  0.8504060E+01 -0.1272720E+02 -0.2568960E-01  0.3628183E+00 -0.1022205E+01 -0.1892045E+00  0.3095784E+00
  0.9710600E+01 -0.1183240E+02 -0.2568960E-01  0.3723137E+00 -0.9603280E+00 -0.2134293E+00  0.3050663E+00
  0.1082360E+02 -0.1082360E+02 -0.2568960E-01  0.3805403E+00 -0.9057493E+00 -0.2348300E+00  0.2994425E+00
  0.1183240E+02 -0.9710590E+01 -0.2568960E-01  0.3888687E+00 -0.8581416E+00 -0.2542597E+00  0.2942292E+00
  0.1272720E+02 -0.8504060E+01 -0.2568960E-01  0.3948683E+00 -0.8159554E+00 -0.2705531E+00  0.2876144E+00
  0.1349950E+02 -0.7215620E+01 -0.2568960E-01  0.3991264E+00 -0.7793871E+00 -0.2839164E+00  0.2805234E+00
  0.1414170E+02 -0.5857700E+01 -0.2568960E-01  0.4035004E+00 -0.7499976E+00 -0.2952375E+00  0.2750408E+00
  0.1464780E+02 -0.4443350E+01 -0.2568960E-01  0.4072341E+00 -0.7256079E+00 -0.3046502E+00  0.2702366E+00
  0.1501280E+02 -0.2986230E+01 -0.2568960E-01  0.4098732E+00 -0.7062543E+00 -0.3118307E+00  0.2660030E+00
  0.1523320E+02 -0.1500330E+01 -0.2568960E-01  0.4110650E+00 -0.6914442E+00 -0.3166540E+00  0.2621157E+00
  0.1530690E+02  0.0000000E+00 -0.1027320E+00  0.4092407E+00 -0.6813505E+00 -0.3178666E+00  0.2577572E+00
  0.1523320E+02  0.1500340E+01 -0.1027320E+00  0.4079766E+00 -0.6754048E+00 -0.3184070E+00  0.2550724E+00
  0.1501280E+02  0.2986230E+01 -0.1027320E+00  0.4052825E+00 -0.6735573E+00 -0.3167719E+00  0.2528032E+00
  0.1464780E+02  0.4443360E+01 -0.1027320E+00  0.4007480E+00 -0.6754497E+00 -0.3127541E+00  0.2505670E+00
  0.1414170E+02  0.5857700E+01 -0.1027320E+00  0.3948632E+00 -0.6812417E+00 -0.3067263E+00  0.2486683E+00
  0.1349950E+02  0.7215620E+01 -0.1027320E+00  0.3887007E+00 -0.6913222E+00 -0.2994565E+00  0.2478186E+00
  0.1272720E+02  0.8504060E+01 -0.1027320E+00  0.3827237E+00 -0.7061895E+00 -0.2911916E+00  0.2483644E+00
  0.1183240E+02  0.9710600E+01 -0.1027320E+00  0.3735354E+00 -0.7239188E+00 -0.2798587E+00  0.2474021E+00
  0.1082360E+02  0.1082360E+02 -0.1027320E+00  0.3590272E+00 -0.7444376E+00 -0.2640534E+00  0.2432618E+00
  0.9710590E+01  0.1183240E+02 -0.1027320E+00  0.3444847E+00 -0.7689684E+00 -0.2475565E+00  0.2395527E+00
  0.8504060E+01  0.1272720E+02 -0.1027320E+00  0.3263957E+00 -0.7973713E+00 -0.2280168E+00  0.2335434E+00
  0.7215620E+01  0.1349950E+02 -0.1027320E+00  0.3014513E+00 -0.8306904E+00 -0.2032886E+00  0.2225908E+00
  0.5857700E+01  0.1414170E+02 -0.1027320E+00  0.2728893E+00 -0.8706030E+00 -0.1758405E+00  0.2086833E+00
  0.4443360E+01  0.1464780E+02 -0.1027320E+00  0.2327825E+00 -0.9245363E+00 -0.1401828E+00  0.1858400E+00
  0.2986230E+01  0.1501280E+02 -0.1027320E+00  0.1624936E+00 -0.1034511E+01 -0.8302552E-01  0.1396815E+00
  0.1500340E+01  0.1523320E+02 -0.1027320E+00  0.7560641E-01  0.3108773E+01  0.7556570E-01 -0.2480906E-02
 -0.6690860E-06  0.1530690E+02 -0.1027320E+00  0.1755694E+00  0.2742059E+01  0.1617420E+00 -0.6829457E-01
 -0.1500340E+01  0.1523320E+02 -0.1027320E+00  0.2481212E+00  0.2683012E+01  0.2224857E+00 -0.1098373E+00
 -0.2986230E+01  0.1501280E+02 -0.1027320E+00  0.2980972E+00  0.2655651E+01  0.2635881E+00 -0.1392237E+00
 -0.4443360E+01  0.1464780E+02 -0.1027320E+00  0.3038721E+00  0.2661998E+01  0.2695899E+00 -0.1402125E+00
 -0.5857700E+01  0.1414170E+02 -0.1027320E+00  0.3078483E+00  0.2674260E+01  0.2748387E+00 -0.1386878E+00
 -0.7215620E+01  0.1349950E+02 -0.1027320E+00  0.3087890E+00  0.2690759E+01  0.2779362E+00 -0.1345442E+00
 -0.8504060E+01  0.1272720E+02 -0.1027320E+00  0.3120894E+00  0.2704253E+01  0.2827161E+00 -0.1321795E+00
 -0.9710590E+01  0.1183240E+02 -0.1027320E+00  0.3122046E+00  0.2720243E+01  0.2848985E+00 -0.1276894E+00
 -0.1082360E+02  0.1082360E+02 -0.1027320E+00  0.3107567E+00  0.2736481E+01  0.2856036E+00 -0.1224758E+00
 -0.1183240E+02  0.9710590E+01 -0.1027320E+00  0.3093687E+00  0.2750525E+01  0.2860121E+00 -0.1179240E+00
 -0.1272720E+02  0.8504060E+01 -0.1027320E+00  0.3054321E+00  0.2765225E+01  0.2840536E+00 -0.1122600E+00
 -0.1349950E+02  0.7215620E+01 -0.1027320E+00  0.2999207E+00  0.2779029E+01  0.2804231E+00 -0.1063735E+00
 -0.1414170E+02  0.5857690E+01 -0.1027320E+00  0.2948926E+00  0.2787707E+01  0.2766190E+00 -0.1021938E+00
 -0.1464780E+02  0.4443360E+01 -0.1027320E+00  0.2894071E+00  0.2793548E+01  0.2720547E+00 -0.9870522E-01
 -0.1501280E+02  0.2986230E+01 -0.1027320E+00  0.2833987E+00  0.2796492E+01  0.2666898E+00 -0.9587144E-01
 -0.1523320E+02  0.1500340E+01 -0.1027320E+00  0.2766376E+00  0.2796972E+01  0.2603723E+00 -0.9345919E-01
 -0.1530690E+02 -0.1338170E-05 -0.1027320E+00  0.2689143E+00  0.2794323E+01  0.2528616E+00 -0.9152000E-01
 -0.1523320E+02 -0.1500340E+01 -0.1027320E+00  0.2602417E+00  0.2788994E+01  0.2442312E+00 -0.8987132E-01
 -0.1501280E+02 -0.2986230E+01 -0.1027320E+00  0.2507741E+00  0.2781202E+01  0.2346641E+00 -0.8843292E-01
 -0.1464780E+02 -0.4443360E+01 -0.1027320E+00  0.2406495E+00  0.2771807E+01  0.2243828E+00 -0.8697452E-01
 -0.1414170E+02 -0.5857700E+01 -0.1027320E+00  0.2299649E+00  0.2759479E+01  0.2133795E+00 -0.8574998E-01
 -0.1349950E+02 -0.7215620E+01 -0.1027320E+00  0.2186067E+00  0.2740905E+01  0.2012916E+00 -0.8526787E-01
 -0.1272720E+02 -0.8504060E+01 -0.1027320E+00  0.2071362E+00  0.2714098E+01  0.1884955E+00 -0.8587693E-01
 -0.1183240E+02 -0.9710600E+01 -0.1027320E+00  0.1943347E+00  0.2690404E+01  0.1748875E+00 -0.8473676E-01
 -0.1082360E+02 -0.1082360E+02 -0.1027320E+00  0.1799848E+00  0.2678365E+01  0.1610171E+00 -0.8042406E-01
 -0.9710600E+01 -0.1183240E+02 -0.1027320E+00  0.1650936E+00  0.2660053E+01  0.1463196E+00 -0.7646219E-01
 -0.8504050E+01 -0.1272720E+02 -0.1027320E+00  0.1487370E+00  0.2650045E+01  0.1311270E+00 -0.7020245E-01
 -0.7215620E+01 -0.1349950E+02 -0.1027320E+00  0.1298700E+00  0.2669567E+01  0.1156686E+00 -0.5905081E-01
 -0.5857690E+01 -0.1414170E+02 -0.1027320E+00  0.1106289E+00  0.2721203E+01  0.1009964E+00 -0.4514946E-01
 -0.4443360E+01 -0.1464780E+02 -0.1027320E+00  0.9019507E-01  0.2887736E+01  0.8730441E-01 -0.2265147E-01
 -0.2986230E+01 -0.1501280E+02 -0.1027320E+00  0.8306348E-01 -0.2870827E+01  0.8003718E-01  0.2221693E-01
 -0.1500340E+01 -0.1523320E+02 -0.1027320E+00  0.1898262E+00 -0.2124411E+01  0.9980398E-01  0.1614718E+00
  0.1825330E-06 -0.1530690E+02 -0.1027320E+00  0.2433234E+00 -0.1927181E+01  0.8489270E-01  0.2280340E+00
  0.1500340E+01 -0.1523320E+02 -0.1027320E+00  0.2764292E+00 -0.1742483E+01  0.4722646E-01  0.2723651E+00
  0.2986230E+01 -0.1501280E+02 -0.1027320E+00  0.3111802E+00 -0.1444702E+01 -0.3913423E-01  0.3087097E+00
  0.4443360E+01 -0.1464780E+02 -0.1027320E+00  0.3257402E+00 -0.1288621E+01 -0.9070104E-01  0.3128578E+00
  0.5857700E+01 -0.1414170E+02 -0.1027320E+00  0.3384248E+00 -0.1181402E+01 -0.1284757E+00  0.3130900E+00
  0.7215620E+01 -0.1349950E+02 -0.1027320E+00  0.3491191E+00 -0.1092969E+01 -0.1605427E+00  0.3100164E+00
  0.8504060E+01 -0.1272720E+02 -0.1027320E+00  0.3610805E+00 -0.1022281E+01 -0.1882750E+00  0.3081097E+00
  0.9710600E+01 -0.1183240E+02 -0.1027320E+00  0.3705354E+00 -0.9603885E+00 -0.2123915E+00  0.3036220E+00
  0.1082360E+02 -0.1082360E+02 -0.1027320E+00  0.3787380E+00 -0.9058188E+00 -0.2336970E+00  0.2980406E+00
  0.1183240E+02 -0.9710590E+01 -0.1027320E+00  0.3870015E+00 -0.8582026E+00 -0.2530211E+00  0.2928319E+00
  0.1272720E+02 -0.8504060E+01 -0.1027320E+00  0.3929842E+00 -0.8160267E+00 -0.2692417E+00  0.2862612E+00
