 VARIABLES="X" "Y" "Z" "abs(eta) (m)" "angle(phi) (rad)" "PRE1" "PRE2"
ZONE N=   3200 ,E =    3136 ,F=FEPOINT,ET=QUADRILATERAL
  0.1530690E+02  0.0000000E+00  0.0000000E+00  0.3147876E+00 -0.1199956E+01 -0.1140786E+00  0.2933893E+00
  0.1523320E+02  0.1500340E+01  0.0000000E+00  0.3160791E+00 -0.1207607E+01 -0.1122896E+00  0.2954608E+00
  0.1501280E+02  0.2986230E+01  0.0000000E+00  0.3166895E+00 -0.1217458E+01 -0.1095847E+00  0.2971253E+00
  0.1464780E+02  0.4443360E+01  0.0000000E+00  0.3168772E+00 -0.1229508E+01 -0.1060592E+00  0.2986011E+00
  0.1414170E+02  0.5857700E+01  0.0000000E+00  0.3163014E+00 -0.1244035E+01 -0.1015255E+00  0.2995649E+00
  0.1349950E+02  0.7215620E+01  0.0000000E+00  0.3153670E+00 -0.1261643E+01 -0.9595126E-01  0.3004159E+00
  0.1272720E+02  0.8504060E+01  0.0000000E+00  0.3147085E+00 -0.1282606E+01 -0.8944584E-01  0.3017298E+00
  0.1183240E+02  0.9710600E+01  0.0000000E+00  0.3138342E+00 -0.1306707E+01 -0.8192039E-01  0.3029537E+00
  0.1082360E+02  0.1082360E+02  0.0000000E+00  0.3129846E+00 -0.1334646E+01 -0.7322643E-01  0.3042980E+00
  0.9710590E+01  0.1183240E+02  0.0000000E+00  0.3114463E+00 -0.1366338E+01 -0.6323490E-01  0.3049593E+00
  0.8504060E+01  0.1272720E+02  0.0000000E+00  0.3102975E+00 -0.1402085E+01 -0.5210281E-01  0.3058919E+00
  0.7215620E+01  0.1349950E+02  0.0000000E+00  0.3064488E+00 -0.1441068E+01 -0.3964376E-01  0.3038738E+00
  0.5857700E+01  0.1414170E+02  0.0000000E+00  0.3023879E+00 -0.1486415E+01 -0.2548558E-01  0.3013120E+00
  0.4443360E+01  0.1464780E+02  0.0000000E+00  0.2980476E+00 -0.1541455E+01 -0.8743899E-02  0.2979193E+00
  0.2986230E+01  0.1501280E+02  0.0000000E+00  0.2883257E+00 -0.1614097E+01  0.1248083E-01  0.2880554E+00
  0.1500340E+01  0.1523320E+02  0.0000000E+00  0.2416588E+00 -0.1741423E+01  0.4103376E-01  0.2381495E+00
 -0.6690860E-06  0.1530690E+02  0.0000000E+00  0.1915922E+00 -0.1843740E+01  0.5164705E-01  0.1844997E+00
 -0.1500340E+01  0.1523320E+02  0.0000000E+00  0.1239669E+00 -0.2013777E+01  0.5313651E-01  0.1120013E+00
 -0.2986230E+01  0.1501280E+02  0.0000000E+00  0.4666012E-01  0.2539954E+01  0.3846703E-01 -0.2640937E-01
 -0.4443360E+01  0.1464780E+02  0.0000000E+00  0.8207420E-01  0.2099981E+01  0.4143346E-01 -0.7084802E-01
 -0.5857700E+01  0.1414170E+02  0.0000000E+00  0.1054650E+00  0.2040305E+01  0.4771745E-01 -0.9405268E-01
 -0.7215620E+01  0.1349950E+02  0.0000000E+00  0.1230846E+00  0.2034316E+01  0.5503105E-01 -0.1100973E+00
 -0.8504060E+01  0.1272720E+02  0.0000000E+00  0.1381637E+00  0.2038681E+01  0.6231169E-01 -0.1233145E+00
 -0.9710590E+01  0.1183240E+02  0.0000000E+00  0.1488100E+00  0.2059271E+01  0.6983342E-01 -0.1314067E+00
 -0.1082360E+02  0.1082360E+02  0.0000000E+00  0.1593037E+00  0.2075024E+01  0.7696456E-01 -0.1394780E+00
 -0.1183240E+02  0.9710590E+01  0.0000000E+00  0.1677372E+00  0.2095889E+01  0.8408552E-01 -0.1451392E+00
 -0.1272720E+02  0.8504060E+01  0.0000000E+00  0.1753758E+00  0.2115756E+01  0.9091187E-01 -0.1499723E+00
 -0.1349950E+02  0.7215620E+01  0.0000000E+00  0.1827190E+00  0.2132067E+01  0.9725442E-01 -0.1546861E+00
 -0.1414170E+02  0.5857690E+01  0.0000000E+00  0.1904773E+00  0.2142389E+01  0.1030428E+00 -0.1601991E+00
 -0.1464780E+02  0.4443360E+01  0.0000000E+00  0.1976222E+00  0.2152535E+01  0.1085890E+00 -0.1651151E+00
 -0.1501280E+02  0.2986230E+01  0.0000000E+00  0.2039216E+00  0.2163205E+01  0.1138619E+00 -0.1691730E+00
 -0.1523320E+02  0.1500340E+01  0.0000000E+00  0.2093909E+00  0.2174181E+01  0.1188153E+00 -0.1724166E+00
 -0.1530690E+02 -0.1338170E-05  0.0000000E+00  0.2139419E+00  0.2185059E+01  0.1233067E+00 -0.1748331E+00
 -0.1523320E+02 -0.1500340E+01  0.0000000E+00  0.2177918E+00  0.2194544E+01  0.1272080E+00 -0.1767806E+00
 -0.1501280E+02 -0.2986230E+01  0.0000000E+00  0.2208759E+00  0.2202082E+01  0.1303573E+00 -0.1783063E+00
 -0.1464780E+02 -0.4443360E+01  0.0000000E+00  0.2233121E+00  0.2206995E+01  0.1326792E+00 -0.1796233E+00
 -0.1414170E+02 -0.5857700E+01  0.0000000E+00  0.2250025E+00  0.2210894E+01  0.1343882E+00 -0.1804604E+00
 -0.1349950E+02 -0.7215620E+01  0.0000000E+00  0.2263829E+00  0.2213397E+01  0.1356665E+00 -0.1812286E+00
 -0.1272720E+02 -0.8504060E+01  0.0000000E+00  0.2280562E+00  0.2213974E+01  0.1367748E+00 -0.1824892E+00
 -0.1183240E+02 -0.9710600E+01  0.0000000E+00  0.2295244E+00  0.2213686E+01  0.1376024E+00 -0.1837037E+00
 -0.1082360E+02 -0.1082360E+02  0.0000000E+00  0.2310038E+00  0.2212080E+01  0.1381921E+00 -0.1851100E+00
 -0.9710600E+01 -0.1183240E+02  0.0000000E+00  0.2317323E+00  0.2210397E+01  0.1383151E+00 -0.1859268E+00
 -0.8504050E+01 -0.1272720E+02  0.0000000E+00  0.2328182E+00  0.2208354E+01  0.1385815E+00 -0.1870814E+00
 -0.7215620E+01 -0.1349950E+02  0.0000000E+00  0.2309027E+00  0.2209487E+01  0.1376513E+00 -0.1853865E+00
 -0.5857690E+01 -0.1414170E+02  0.0000000E+00  0.2287806E+00  0.2212618E+01  0.1369608E+00 -0.1832547E+00
 -0.4443360E+01 -0.1464780E+02  0.0000000E+00  0.2263881E+00  0.2218878E+01  0.1366610E+00 -0.1804865E+00
 -0.2986230E+01 -0.1501280E+02  0.0000000E+00  0.2184310E+00  0.2237643E+01  0.1351021E+00 -0.1716378E+00
 -0.1500340E+01 -0.1523320E+02  0.0000000E+00  0.1689322E+00  0.2318077E+01  0.1148142E+00 -0.1239184E+00
  0.1825330E-06 -0.1530690E+02  0.0000000E+00  0.1118255E+00  0.2454816E+01  0.8647396E-01 -0.7090273E-01
  0.1500340E+01 -0.1523320E+02  0.0000000E+00  0.4776337E-01 -0.3104590E+01  0.4773068E-01  0.1766985E-02
  0.2986230E+01 -0.1501280E+02  0.0000000E+00  0.1434390E+00 -0.1421630E+01 -0.2131696E-01  0.1418462E+00
  0.4443360E+01 -0.1464780E+02  0.0000000E+00  0.1922399E+00 -0.1338099E+01 -0.4433101E-01  0.1870586E+00
  0.5857700E+01 -0.1414170E+02  0.0000000E+00  0.2185483E+00 -0.1302013E+01 -0.5803739E-01  0.2107013E+00
  0.7215620E+01 -0.1349950E+02  0.0000000E+00  0.2371932E+00 -0.1276987E+01 -0.6869126E-01  0.2270289E+00
  0.8504060E+01 -0.1272720E+02  0.0000000E+00  0.2528875E+00 -0.1256068E+01 -0.7828347E-01  0.2404658E+00
  0.9710600E+01 -0.1183240E+02  0.0000000E+00  0.2629950E+00 -0.1239900E+01 -0.8544470E-01  0.2487279E+00
  0.1082360E+02 -0.1082360E+02  0.0000000E+00  0.2730521E+00 -0.1225639E+01 -0.9238572E-01  0.2569481E+00
  0.1183240E+02 -0.9710590E+01  0.0000000E+00  0.2803689E+00 -0.1214215E+01 -0.9786908E-01  0.2627324E+00
  0.1272720E+02 -0.8504060E+01  0.0000000E+00  0.2866539E+00 -0.1205073E+01 -0.1025146E+00  0.2676962E+00
  0.1349950E+02 -0.7215620E+01  0.0000000E+00  0.2926604E+00 -0.1197972E+01 -0.1066006E+00  0.2725554E+00
  0.1414170E+02 -0.5857700E+01  0.0000000E+00  0.2993265E+00 -0.1193156E+01 -0.1103701E+00  0.2782351E+00
  0.1464780E+02 -0.4443350E+01  0.0000000E+00  0.3050362E+00 -0.1191025E+01 -0.1130793E+00  0.2833023E+00
  0.1501280E+02 -0.2986230E+01  0.0000000E+00  0.3094802E+00 -0.1191564E+01 -0.1145720E+00  0.2874914E+00
  0.1523320E+02 -0.1500330E+01  0.0000000E+00  0.3127217E+00 -0.1194631E+01 -0.1148803E+00  0.2908563E+00
  0.1530690E+02  0.0000000E+00 -0.2568960E-01  0.3144289E+00 -0.1199954E+01 -0.1139491E+00  0.2930548E+00
  0.1523320E+02  0.1500340E+01 -0.2568960E-01  0.3157212E+00 -0.1207606E+01 -0.1121625E+00  0.2951261E+00
  0.1501280E+02  0.2986230E+01 -0.2568960E-01  0.3163357E+00 -0.1217459E+01 -0.1094619E+00  0.2967935E+00
  0.1464780E+02  0.4443360E+01 -0.2568960E-01  0.3165286E+00 -0.1229517E+01 -0.1059398E+00  0.2982736E+00
  0.1414170E+02  0.5857700E+01 -0.2568960E-01  0.3159604E+00 -0.1244048E+01 -0.1014124E+00  0.2992432E+00
  0.1349950E+02  0.7215620E+01 -0.2568960E-01  0.3150324E+00 -0.1261663E+01 -0.9584324E-01  0.3000991E+00
  0.1272720E+02  0.8504060E+01 -0.2568960E-01  0.3143739E+00 -0.1282622E+01 -0.8934572E-01  0.3014105E+00
  0.1183240E+02  0.9710600E+01 -0.2568960E-01  0.3134981E+00 -0.1306724E+01 -0.8182734E-01  0.3026307E+00
  0.1082360E+02  0.1082360E+02 -0.2568960E-01  0.3126482E+00 -0.1334664E+01 -0.7314216E-01  0.3039723E+00
  0.9710590E+01  0.1183240E+02 -0.2568960E-01  0.3111158E+00 -0.1366358E+01 -0.6316192E-01  0.3046369E+00
  0.8504060E+01  0.1272720E+02 -0.2568960E-01  0.3099566E+00 -0.1402099E+01 -0.5204133E-01  0.3055565E+00
  0.7215620E+01  0.1349950E+02 -0.2568960E-01  0.3061354E+00 -0.1441093E+01 -0.3959553E-01  0.3035640E+00
  0.5857700E+01  0.1414170E+02 -0.2568960E-01  0.3020723E+00 -0.1486438E+01 -0.2545222E-01  0.3009982E+00
  0.4443360E+01  0.1464780E+02 -0.2568960E-01  0.2977363E+00 -0.1541465E+01 -0.8731883E-02  0.2976082E+00
  0.2986230E+01  0.1501280E+02 -0.2568960E-01  0.2880315E+00 -0.1614140E+01  0.1248044E-01  0.2877609E+00
  0.1500340E+01  0.1523320E+02 -0.2568960E-01  0.2414225E+00 -0.1741362E+01  0.4097910E-01  0.2379192E+00
 -0.6690860E-06  0.1530690E+02 -0.2568960E-01  0.1914012E+00 -0.1843780E+01  0.5160286E-01  0.1843137E+00
 -0.1500340E+01  0.1523320E+02 -0.2568960E-01  0.1237277E+00 -0.2014016E+01  0.5306068E-01  0.1117725E+00
 -0.2986230E+01  0.1501280E+02 -0.2568960E-01  0.4661270E-01  0.2540321E+01  0.3843763E-01 -0.2636840E-01
 -0.4443360E+01  0.1464780E+02 -0.2568960E-01  0.8200707E-01  0.2099800E+01  0.4138679E-01 -0.7079756E-01
 -0.5857700E+01  0.1414170E+02 -0.2568960E-01  0.1053651E+00  0.2040253E+01  0.4766739E-01 -0.9396607E-01
 -0.7215620E+01  0.1349950E+02 -0.2568960E-01  0.1229787E+00  0.2034181E+01  0.5496879E-01 -0.1100099E+00
 -0.8504060E+01  0.1272720E+02 -0.2568960E-01  0.1380165E+00  0.2038681E+01  0.6224533E-01 -0.1231831E+00
 -0.9710590E+01  0.1183240E+02 -0.2568960E-01  0.1486658E+00  0.2059213E+01  0.6975821E-01 -0.1312834E+00
 -0.1082360E+02  0.1082360E+02 -0.2568960E-01  0.1591388E+00  0.2074998E+01  0.7688129E-01 -0.1393357E+00
 -0.1183240E+02  0.9710590E+01 -0.2568960E-01  0.1675651E+00  0.2095857E+01  0.8399463E-01 -0.1449930E+00
 -0.1272720E+02  0.8504060E+01 -0.2568960E-01  0.1752004E+00  0.2115697E+01  0.9081217E-01 -0.1498277E+00
 -0.1349950E+02  0.7215620E+01 -0.2568960E-01  0.1825362E+00  0.2132003E+01  0.9714717E-01 -0.1545376E+00
 -0.1414170E+02  0.5857690E+01 -0.2568960E-01  0.1902792E+00  0.2142358E+01  0.1029308E+00 -0.1600357E+00
 -0.1464780E+02  0.4443360E+01 -0.2568960E-01  0.1974076E+00  0.2152534E+01  0.1084708E+00 -0.1649359E+00
 -0.1501280E+02  0.2986230E+01 -0.2568960E-01  0.2036942E+00  0.2163221E+01  0.1137376E+00 -0.1689825E+00
 -0.1523320E+02  0.1500340E+01 -0.2568960E-01  0.2091538E+00  0.2174200E+01  0.1186839E+00 -0.1722192E+00
 -0.1530690E+02 -0.1338170E-05 -0.2568960E-01  0.2136985E+00  0.2185070E+01  0.1231683E+00 -0.1746328E+00
 -0.1523320E+02 -0.1500340E+01 -0.2568960E-01  0.2175450E+00  0.2194542E+01  0.1270636E+00 -0.1765805E+00
 -0.1501280E+02 -0.2986230E+01 -0.2568960E-01  0.2206306E+00  0.2202074E+01  0.1302111E+00 -0.1781094E+00
 -0.1464780E+02 -0.4443360E+01 -0.2568960E-01  0.2230698E+00  0.2206978E+01  0.1325321E+00 -0.1794306E+00
 -0.1414170E+02 -0.5857700E+01 -0.2568960E-01  0.2247672E+00  0.2210877E+01  0.1342445E+00 -0.1802740E+00
 -0.1349950E+02 -0.7215620E+01 -0.2568960E-01  0.2261516E+00  0.2213374E+01  0.1355238E+00 -0.1810465E+00
 -0.1272720E+02 -0.8504060E+01 -0.2568960E-01  0.2278233E+00  0.2213956E+01  0.1366317E+00 -0.1823053E+00
 -0.1183240E+02 -0.9710600E+01 -0.2568960E-01  0.2292858E+00  0.2213662E+01  0.1374549E+00 -0.1835160E+00
 -0.1082360E+02 -0.1082360E+02 -0.2568960E-01  0.2307632E+00  0.2212062E+01  0.1380448E+00 -0.1849196E+00
 -0.9710600E+01 -0.1183240E+02 -0.2568960E-01  0.2314953E+00  0.2210375E+01  0.1381697E+00 -0.1857396E+00
 -0.8504050E+01 -0.1272720E+02 -0.2568960E-01  0.2325679E+00  0.2208347E+01  0.1384311E+00 -0.1868814E+00
 -0.7215620E+01 -0.1349950E+02 -0.2568960E-01  0.2306791E+00  0.2209461E+01  0.1375134E+00 -0.1852104E+00
 -0.5857690E+01 -0.1414170E+02 -0.2568960E-01  0.2285522E+00  0.2212600E+01  0.1368206E+00 -0.1830743E+00
 -0.4443360E+01 -0.1464780E+02 -0.2568960E-01  0.2261608E+00  0.2218854E+01  0.1365196E+00 -0.1803084E+00
 -0.2986230E+01 -0.1501280E+02 -0.2568960E-01  0.2182219E+00  0.2237622E+01  0.1349691E+00 -0.1714763E+00
 -0.1500340E+01 -0.1523320E+02 -0.2568960E-01  0.1687825E+00  0.2318006E+01  0.1147036E+00 -0.1238168E+00
  0.1825330E-06 -0.1530690E+02 -0.2568960E-01  0.1117253E+00  0.2454735E+01  0.8639069E-01 -0.7084620E-01
  0.1500340E+01 -0.1523320E+02 -0.2568960E-01  0.4766827E-01 -0.3102386E+01  0.4763164E-01  0.1868435E-02
  0.2986230E+01 -0.1501280E+02 -0.2568960E-01  0.1432630E+00 -0.1421698E+01 -0.2128118E-01  0.1416735E+00
  0.4443360E+01 -0.1464780E+02 -0.2568960E-01  0.1920530E+00 -0.1338084E+01 -0.4429082E-01  0.1868761E+00
  0.5857700E+01 -0.1414170E+02 -0.2568960E-01  0.2183212E+00 -0.1302015E+01 -0.5797658E-01  0.2104824E+00
  0.7215620E+01 -0.1349950E+02 -0.2568960E-01  0.2369642E+00 -0.1276968E+01 -0.6862922E-01  0.2268084E+00
  0.8504060E+01 -0.1272720E+02 -0.2568960E-01  0.2526090E+00 -0.1256079E+01 -0.7819464E-01  0.2402018E+00
  0.9710600E+01 -0.1183240E+02 -0.2568960E-01  0.2627228E+00 -0.1239908E+01 -0.8535425E-01  0.2484712E+00
  0.1082360E+02 -0.1082360E+02 -0.2568960E-01  0.2727583E+00 -0.1225648E+01 -0.9228411E-01  0.2566724E+00
  0.1183240E+02 -0.9710590E+01 -0.2568960E-01  0.2800697E+00 -0.1214223E+01 -0.9776264E-01  0.2624529E+00
  0.1272720E+02 -0.8504060E+01 -0.2568960E-01  0.2863559E+00 -0.1205076E+01 -0.1024072E+00  0.2674182E+00
  0.1349950E+02 -0.7215620E+01 -0.2568960E-01  0.2923571E+00 -0.1197979E+01 -0.1064884E+00  0.2722735E+00
  0.1414170E+02 -0.5857700E+01 -0.2568960E-01  0.2990051E+00 -0.1193168E+01 -0.1102484E+00  0.2779376E+00
  0.1464780E+02 -0.4443350E+01 -0.2568960E-01  0.3046987E+00 -0.1191031E+01 -0.1129527E+00  0.2829894E+00
  0.1501280E+02 -0.2986230E+01 -0.2568960E-01  0.3091304E+00 -0.1191570E+01 -0.1144407E+00  0.2871671E+00
  0.1523320E+02 -0.1500330E+01 -0.2568960E-01  0.3123641E+00 -0.1194633E+01 -0.1147486E+00  0.2905239E+00
  0.1530690E+02  0.0000000E+00 -0.1027320E+00  0.3133438E+00 -0.1199955E+01 -0.1135557E+00  0.2920435E+00
  0.1523320E+02  0.1500340E+01 -0.1027320E+00  0.3146394E+00 -0.1207608E+01 -0.1117777E+00  0.2941151E+00
  0.1501280E+02  0.2986230E+01 -0.1027320E+00  0.3152662E+00 -0.1217461E+01 -0.1090912E+00  0.2957903E+00
  0.1464780E+02  0.4443360E+01 -0.1027320E+00  0.3154750E+00 -0.1229535E+01 -0.1055818E+00  0.2972826E+00
  0.1414170E+02  0.5857700E+01 -0.1027320E+00  0.3149293E+00 -0.1244089E+01 -0.1010690E+00  0.2982709E+00
  0.1349950E+02  0.7215620E+01 -0.1027320E+00  0.3140204E+00 -0.1261713E+01 -0.9552033E-01  0.2991399E+00
  0.1272720E+02  0.8504060E+01 -0.1027320E+00  0.3133635E+00 -0.1282677E+01 -0.8904202E-01  0.3004466E+00
  0.1183240E+02  0.9710600E+01 -0.1027320E+00  0.3124812E+00 -0.1306780E+01 -0.8154517E-01  0.3016536E+00
  0.1082360E+02  0.1082360E+02 -0.1027320E+00  0.3116325E+00 -0.1334714E+01 -0.7288945E-01  0.3029883E+00
  0.9710590E+01  0.1183240E+02 -0.1027320E+00  0.3101195E+00 -0.1366408E+01 -0.6294429E-01  0.3036645E+00
  0.8504060E+01  0.1272720E+02 -0.1027320E+00  0.3089306E+00 -0.1402126E+01 -0.5186075E-01  0.3045465E+00
  0.7215620E+01  0.1349950E+02 -0.1027320E+00  0.3051755E+00 -0.1441152E+01 -0.3945339E-01  0.3026145E+00
  0.5857700E+01  0.1414170E+02 -0.1027320E+00  0.3011260E+00 -0.1486501E+01 -0.2535346E-01  0.3000568E+00
  0.4443360E+01  0.1464780E+02 -0.1027320E+00  0.2967938E+00 -0.1541502E+01 -0.8693180E-02  0.2966664E+00
  0.2986230E+01  0.1501280E+02 -0.1027320E+00  0.2871834E+00 -0.1614257E+01  0.1247729E-01  0.2869122E+00
  0.1500340E+01  0.1523320E+02 -0.1027320E+00  0.2406994E+00 -0.1741368E+01  0.4085767E-01  0.2372064E+00
 -0.6690860E-06  0.1530690E+02 -0.1027320E+00  0.1908133E+00 -0.1843883E+01  0.5146336E-01  0.1837423E+00
 -0.1500340E+01  0.1523320E+02 -0.1027320E+00  0.1232228E+00 -0.2014371E+01  0.5288361E-01  0.1112977E+00
 -0.2986230E+01  0.1501280E+02 -0.1027320E+00  0.4649446E-01  0.2540020E+01  0.3833220E-01 -0.2631306E-01
 -0.4443360E+01  0.1464780E+02 -0.1027320E+00  0.8179978E-01  0.2099365E+01  0.4125141E-01 -0.7063656E-01
 -0.5857700E+01  0.1414170E+02 -0.1027320E+00  0.1050640E+00  0.2040142E+01  0.4752069E-01 -0.9370283E-01
 -0.7215620E+01  0.1349950E+02 -0.1027320E+00  0.1226373E+00  0.2033932E+01  0.5478896E-01 -0.1097182E+00
 -0.8504060E+01  0.1272720E+02 -0.1027320E+00  0.1375698E+00  0.2038719E+01  0.6204859E-01 -0.1227821E+00
 -0.9710590E+01  0.1183240E+02 -0.1027320E+00  0.1482248E+00  0.2059051E+01  0.6953003E-01 -0.1309052E+00
 -0.1082360E+02  0.1082360E+02 -0.1027320E+00  0.1586370E+00  0.2074966E+01  0.7663453E-01 -0.1388987E+00
 -0.1183240E+02  0.9710590E+01 -0.1027320E+00  0.1670386E+00  0.2095795E+01  0.8372167E-01 -0.1445426E+00
 -0.1272720E+02  0.8504060E+01 -0.1027320E+00  0.1746650E+00  0.2115552E+01  0.9051298E-01 -0.1493829E+00
 -0.1349950E+02  0.7215620E+01 -0.1027320E+00  0.1819809E+00  0.2131855E+01  0.9682889E-01 -0.1540819E+00
 -0.1414170E+02  0.5857690E+01 -0.1027320E+00  0.1896750E+00  0.2142299E+01  0.1025946E+00 -0.1595336E+00
 -0.1464780E+02  0.4443360E+01 -0.1027320E+00  0.1967569E+00  0.2152558E+01  0.1081172E+00 -0.1643897E+00
 -0.1501280E+02  0.2986230E+01 -0.1027320E+00  0.2030038E+00  0.2163291E+01  0.1133638E+00 -0.1684019E+00
 -0.1523320E+02  0.1500340E+01 -0.1027320E+00  0.2084344E+00  0.2174281E+01  0.1182897E+00 -0.1716172E+00
 -0.1530690E+02 -0.1338170E-05 -0.1027320E+00  0.2129616E+00  0.2185131E+01  0.1227543E+00 -0.1740231E+00
 -0.1523320E+02 -0.1500340E+01 -0.1027320E+00  0.2168007E+00  0.2194577E+01  0.1266350E+00 -0.1759719E+00
 -0.1501280E+02 -0.2986230E+01 -0.1027320E+00  0.2198884E+00  0.2202083E+01  0.1297745E+00 -0.1775091E+00
 -0.1464780E+02 -0.4443360E+01 -0.1027320E+00  0.2223366E+00  0.2206960E+01  0.1320933E+00 -0.1788433E+00
 -0.1414170E+02 -0.5857700E+01 -0.1027320E+00  0.2240507E+00  0.2210831E+01  0.1338084E+00 -0.1797055E+00
 -0.1349950E+02 -0.7215620E+01 -0.1027320E+00  0.2254481E+00  0.2213311E+01  0.1350909E+00 -0.1804917E+00
 -0.1272720E+02 -0.8504060E+01 -0.1027320E+00  0.2271138E+00  0.2213899E+01  0.1361958E+00 -0.1817454E+00
 -0.1183240E+02 -0.9710600E+01 -0.1027320E+00  0.2285635E+00  0.2213622E+01  0.1370145E+00 -0.1829434E+00
 -0.1082360E+02 -0.1082360E+02 -0.1027320E+00  0.2300331E+00  0.2212023E+01  0.1376009E+00 -0.1843400E+00
 -0.9710600E+01 -0.1183240E+02 -0.1027320E+00  0.2307788E+00  0.2210329E+01  0.1377336E+00 -0.1851710E+00
 -0.8504050E+01 -0.1272720E+02 -0.1027320E+00  0.2318109E+00  0.2208337E+01  0.1379787E+00 -0.1862744E+00
 -0.7215620E+01 -0.1349950E+02 -0.1027320E+00  0.2299874E+00  0.2209405E+01  0.1370906E+00 -0.1846629E+00
 -0.5857690E+01 -0.1414170E+02 -0.1027320E+00  0.2278676E+00  0.2212537E+01  0.1363994E+00 -0.1825345E+00
 -0.4443360E+01 -0.1464780E+02 -0.1027320E+00  0.2254713E+00  0.2218806E+01  0.1360946E+00 -0.1797653E+00
 -0.2986230E+01 -0.1501280E+02 -0.1027320E+00  0.2176310E+00  0.2237522E+01  0.1345865E+00 -0.1710255E+00
 -0.1500340E+01 -0.1523320E+02 -0.1027320E+00  0.1683186E+00  0.2317874E+01  0.1143722E+00 -0.1234916E+00
  0.1825330E-06 -0.1530690E+02 -0.1027320E+00  0.1114133E+00  0.2454565E+01  0.8613754E-01 -0.7066299E-01
  0.1500340E+01 -0.1523320E+02 -0.1027320E+00  0.4747558E-01 -0.3100375E+01  0.4743526E-01  0.1956255E-02
  0.2986230E+01 -0.1501280E+02 -0.1027320E+00  0.1428089E+00 -0.1421695E+01 -0.2121419E-01  0.1412244E+00
  0.4443360E+01 -0.1464780E+02 -0.1027320E+00  0.1914833E+00 -0.1338053E+01 -0.4416518E-01  0.1863205E+00
  0.5857700E+01 -0.1414170E+02 -0.1027320E+00  0.2176361E+00 -0.1302023E+01 -0.5779298E-01  0.2098224E+00
  0.7215620E+01 -0.1349950E+02 -0.1027320E+00  0.2362455E+00 -0.1276962E+01 -0.6842245E-01  0.2261201E+00
  0.8504060E+01 -0.1272720E+02 -0.1027320E+00  0.2517662E+00 -0.1256113E+01 -0.7792550E-01  0.2394031E+00
  0.9710600E+01 -0.1183240E+02 -0.1027320E+00  0.2619002E+00 -0.1239926E+01 -0.8508263E-01  0.2476947E+00
  0.1082360E+02 -0.1082360E+02 -0.1027320E+00  0.2718675E+00 -0.1225672E+01 -0.9197647E-01  0.2558365E+00
  0.1183240E+02 -0.9710590E+01 -0.1027320E+00  0.2791607E+00 -0.1214248E+01 -0.9743883E-01  0.2616035E+00
  0.1272720E+02 -0.8504060E+01 -0.1027320E+00  0.2854500E+00 -0.1205096E+01 -0.1020778E+00  0.2665742E+00
