 VARIABLES="X" "Y" "Z" "abs(eta) (m)" "angle(phi) (rad)" "PRE1" "PRE2"
ZONE N=   3200 ,E =    3136 ,F=FEPOINT,ET=QUADRILATERAL
  0.1672760E+02  0.0000000E+00  0.0000000E+00  0.2328794E+00 -0.9479012E+00 -0.1358593E+00  0.1891430E+00
  0.1664710E+02  0.1639590E+01  0.0000000E+00  0.2293917E+00 -0.9441694E+00 -0.1345189E+00  0.1858096E+00
  0.1640620E+02  0.3263390E+01  0.0000000E+00  0.2249192E+00 -0.9441845E+00 -0.1318935E+00  0.1821888E+00
  0.1600730E+02  0.4855770E+01  0.0000000E+00  0.2205815E+00 -0.9483319E+00 -0.1286077E+00  0.1792102E+00
  0.1545430E+02  0.6401380E+01  0.0000000E+00  0.2166047E+00 -0.9568665E+00 -0.1247825E+00  0.1770506E+00
  0.1475240E+02  0.7885340E+01  0.0000000E+00  0.2122034E+00 -0.9691954E+00 -0.1200993E+00  0.1749469E+00
  0.1390850E+02  0.9293360E+01  0.0000000E+00  0.2056318E+00 -0.9850649E+00 -0.1136751E+00  0.1713546E+00
  0.1293060E+02  0.1061190E+02  0.0000000E+00  0.1950845E+00 -0.1005356E+01 -0.1045238E+00  0.1647201E+00
  0.1182820E+02  0.1182820E+02  0.0000000E+00  0.1844521E+00 -0.1030482E+01 -0.9488329E-01  0.1581763E+00
  0.1061190E+02  0.1293060E+02  0.0000000E+00  0.1726709E+00 -0.1061239E+01 -0.8422720E-01  0.1507349E+00
  0.9293360E+01  0.1390850E+02  0.0000000E+00  0.1572025E+00 -0.1102217E+01 -0.7099573E-01  0.1402578E+00
  0.7885330E+01  0.1475240E+02  0.0000000E+00  0.1398111E+00 -0.1156558E+01 -0.5627298E-01  0.1279863E+00
  0.6401380E+01  0.1545430E+02  0.0000000E+00  0.1169806E+00 -0.1242567E+01 -0.3771077E-01  0.1107356E+00
  0.4855770E+01  0.1600730E+02  0.0000000E+00  0.8630796E-01 -0.1419137E+01 -0.1303928E-01  0.8531729E-01
  0.3263390E+01  0.1640620E+02  0.0000000E+00  0.5085301E-01 -0.2039836E+01  0.2298709E-01  0.4536103E-01
  0.1639590E+01  0.1664710E+02  0.0000000E+00  0.7057211E-01  0.3021027E+01  0.7005981E-01 -0.8487999E-02
 -0.7311870E-06  0.1672760E+02  0.0000000E+00  0.1175060E+00  0.2704547E+01  0.1064612E+00 -0.4973612E-01
 -0.1639590E+01  0.1664710E+02  0.0000000E+00  0.1466262E+00  0.2615874E+01  0.1268264E+00 -0.7358208E-01
 -0.3263390E+01  0.1640620E+02  0.0000000E+00  0.1582488E+00  0.2579958E+01  0.1339395E+00 -0.8427857E-01
 -0.4855770E+01  0.1600730E+02  0.0000000E+00  0.1589127E+00  0.2570559E+01  0.1337001E+00 -0.8589268E-01
 -0.6401380E+01  0.1545430E+02  0.0000000E+00  0.1588962E+00  0.2568272E+01  0.1334893E+00 -0.8618926E-01
 -0.7885340E+01  0.1475240E+02  0.0000000E+00  0.1568046E+00  0.2573758E+01  0.1321969E+00 -0.8433075E-01
 -0.9293360E+01  0.1390850E+02  0.0000000E+00  0.1541775E+00  0.2581952E+01  0.1306571E+00 -0.8185006E-01
 -0.1061190E+02  0.1293060E+02  0.0000000E+00  0.1526512E+00  0.2587482E+01  0.1298098E+00 -0.8032312E-01
 -0.1182820E+02  0.1182820E+02  0.0000000E+00  0.1499871E+00  0.2595682E+01  0.1281872E+00 -0.7787286E-01
 -0.1293060E+02  0.1061190E+02  0.0000000E+00  0.1470578E+00  0.2603804E+01  0.1262997E+00 -0.7532858E-01
 -0.1390850E+02  0.9293360E+01  0.0000000E+00  0.1439631E+00  0.2610359E+01  0.1241225E+00 -0.7293127E-01
 -0.1475240E+02  0.7885330E+01  0.0000000E+00  0.1392193E+00  0.2622007E+01  0.1208458E+00 -0.6912524E-01
 -0.1545430E+02  0.6401370E+01  0.0000000E+00  0.1338369E+00  0.2635560E+01  0.1170637E+00 -0.6487224E-01
 -0.1600730E+02  0.4855770E+01  0.0000000E+00  0.1285675E+00  0.2646406E+01  0.1131240E+00 -0.6109472E-01
 -0.1640620E+02  0.3263390E+01  0.0000000E+00  0.1235053E+00  0.2651859E+01  0.1089882E+00 -0.5809580E-01
 -0.1664710E+02  0.1639590E+01  0.0000000E+00  0.1183046E+00  0.2654670E+01  0.1045549E+00 -0.5535566E-01
 -0.1672760E+02 -0.1462370E-05  0.0000000E+00  0.1128787E+00  0.2657010E+01  0.9988289E-01 -0.5258335E-01
 -0.1664710E+02 -0.1639590E+01  0.0000000E+00  0.1072006E+00  0.2660522E+01  0.9503335E-01 -0.4960484E-01
 -0.1640620E+02 -0.3263400E+01  0.0000000E+00  0.1012607E+00  0.2666410E+01  0.9004196E-01 -0.4632682E-01
 -0.1600730E+02 -0.4855770E+01  0.0000000E+00  0.9510922E-01  0.2666104E+01  0.8455866E-01 -0.4353844E-01
 -0.1545430E+02 -0.6401380E+01  0.0000000E+00  0.8889879E-01  0.2657284E+01  0.7867515E-01 -0.4139101E-01
 -0.1475240E+02 -0.7885340E+01  0.0000000E+00  0.8244340E-01  0.2646264E+01  0.7253473E-01 -0.3918709E-01
 -0.1390850E+02 -0.9293360E+01  0.0000000E+00  0.7533406E-01  0.2650892E+01  0.6644487E-01 -0.3550071E-01
 -0.1293060E+02 -0.1061190E+02  0.0000000E+00  0.6720937E-01  0.2698444E+01  0.6071735E-01 -0.2881845E-01
 -0.1182820E+02 -0.1182820E+02  0.0000000E+00  0.5905372E-01  0.2756297E+01  0.5472434E-01 -0.2219434E-01
 -0.1061190E+02 -0.1293060E+02  0.0000000E+00  0.5087425E-01  0.2849033E+01  0.4871255E-01 -0.1467232E-01
 -0.9293350E+01 -0.1390850E+02  0.0000000E+00  0.4350039E-01  0.3045877E+01  0.4330128E-01 -0.4157317E-02
 -0.7885340E+01 -0.1475240E+02  0.0000000E+00  0.3943517E-01 -0.2935226E+01  0.3859843E-01  0.8080480E-02
 -0.6401370E+01 -0.1545430E+02  0.0000000E+00  0.4347270E-01 -0.2524298E+01  0.3544970E-01  0.2516337E-01
 -0.4855760E+01 -0.1600730E+02  0.0000000E+00  0.6098811E-01 -0.2174050E+01  0.3460006E-01  0.5022336E-01
 -0.3263390E+01 -0.1640620E+02  0.0000000E+00  0.9771229E-01 -0.1984310E+01  0.3926362E-01  0.8947659E-01
 -0.1639590E+01 -0.1664710E+02  0.0000000E+00  0.1500931E+00 -0.1888560E+01  0.4689548E-01  0.1425789E+00
  0.1994750E-06 -0.1672760E+02  0.0000000E+00  0.1891726E+00 -0.1809390E+01  0.4470831E-01  0.1838136E+00
  0.1639600E+01 -0.1664710E+02  0.0000000E+00  0.2104835E+00 -0.1705438E+01  0.2825422E-01  0.2085786E+00
  0.3263390E+01 -0.1640620E+02  0.0000000E+00  0.2208652E+00 -0.1573364E+01  0.5671370E-03  0.2208645E+00
  0.4855770E+01 -0.1600730E+02  0.0000000E+00  0.2253029E+00 -0.1456241E+01 -0.2575325E-01  0.2238262E+00
  0.6401380E+01 -0.1545430E+02  0.0000000E+00  0.2296620E+00 -0.1368579E+01 -0.4612583E-01  0.2249823E+00
  0.7885340E+01 -0.1475240E+02  0.0000000E+00  0.2324428E+00 -0.1295246E+01 -0.6324222E-01  0.2236740E+00
  0.9293360E+01 -0.1390850E+02  0.0000000E+00  0.2347169E+00 -0.1233392E+01 -0.7770053E-01  0.2214828E+00
  0.1061190E+02 -0.1293060E+02  0.0000000E+00  0.2377170E+00 -0.1182544E+01 -0.8999291E-01  0.2200242E+00
  0.1182820E+02 -0.1182820E+02  0.0000000E+00  0.2395741E+00 -0.1137968E+01 -0.1004871E+00  0.2174813E+00
  0.1293060E+02 -0.1061190E+02  0.0000000E+00  0.2410778E+00 -0.1098857E+01 -0.1095975E+00  0.2147252E+00
  0.1390850E+02 -0.9293360E+01  0.0000000E+00  0.2424953E+00 -0.1064205E+01 -0.1176587E+00  0.2120387E+00
  0.1475240E+02 -0.7885330E+01  0.0000000E+00  0.2420140E+00 -0.1032898E+01 -0.1239915E+00  0.2078386E+00
  0.1545430E+02 -0.6401380E+01  0.0000000E+00  0.2404440E+00 -0.1005823E+01 -0.1287320E+00  0.2030798E+00
  0.1600730E+02 -0.4855760E+01  0.0000000E+00  0.2387060E+00 -0.9840801E+00 -0.1321547E+00  0.1987855E+00
  0.1640620E+02 -0.3263390E+01  0.0000000E+00  0.2371831E+00 -0.9677617E+00 -0.1345171E+00  0.1953484E+00
  0.1664710E+02 -0.1639590E+01  0.0000000E+00  0.2354120E+00 -0.9556212E+00 -0.1358566E+00  0.1922545E+00
  0.1672760E+02  0.0000000E+00 -0.2568960E-01  0.2325768E+00 -0.9479333E+00 -0.1356767E+00  0.1889016E+00
  0.1664710E+02  0.1639590E+01 -0.2568960E-01  0.2290952E+00 -0.9441974E+00 -0.1343399E+00  0.1855732E+00
  0.1640620E+02  0.3263390E+01 -0.2568960E-01  0.2246309E+00 -0.9442098E+00 -0.1317198E+00  0.1819586E+00
  0.1600730E+02  0.4855770E+01 -0.2568960E-01  0.2202971E+00 -0.9483485E+00 -0.1284388E+00  0.1789812E+00
  0.1545430E+02  0.6401380E+01 -0.2568960E-01  0.2163160E+00 -0.9568813E+00 -0.1246136E+00  0.1768165E+00
  0.1475240E+02  0.7885340E+01 -0.2568960E-01  0.2119080E+00 -0.9692115E+00 -0.1199293E+00  0.1747054E+00
  0.1390850E+02  0.9293360E+01 -0.2568960E-01  0.2053411E+00 -0.9850758E+00 -0.1135126E+00  0.1711136E+00
  0.1293060E+02  0.1061190E+02 -0.2568960E-01  0.1948230E+00 -0.1005366E+01 -0.1043821E+00  0.1645003E+00
  0.1182820E+02  0.1182820E+02 -0.2568960E-01  0.1842076E+00 -0.1030484E+01 -0.9475717E-01  0.1579668E+00
  0.1061190E+02  0.1293060E+02 -0.2568960E-01  0.1724360E+00 -0.1061255E+01 -0.8411035E-01  0.1505311E+00
  0.9293360E+01  0.1390850E+02 -0.2568960E-01  0.1570006E+00 -0.1102207E+01 -0.7090586E-01  0.1400770E+00
  0.7885330E+01  0.1475240E+02 -0.2568960E-01  0.1396260E+00 -0.1156563E+01 -0.5619780E-01  0.1278171E+00
  0.6401380E+01  0.1545430E+02 -0.2568960E-01  0.1168285E+00 -0.1242569E+01 -0.3766144E-01  0.1105916E+00
  0.4855770E+01  0.1600730E+02 -0.2568960E-01  0.8620317E-01 -0.1419090E+01 -0.1302744E-01  0.8521309E-01
  0.3263390E+01  0.1640620E+02 -0.2568960E-01  0.5078187E-01 -0.2040049E+01  0.2296455E-01  0.4529269E-01
  0.1639590E+01  0.1664710E+02 -0.2568960E-01  0.7050508E-01  0.3020685E+01  0.6999037E-01 -0.8503865E-02
 -0.7311870E-06  0.1672760E+02 -0.2568960E-01  0.1173830E+00  0.2704420E+01  0.1063434E+00 -0.4969760E-01
 -0.1639590E+01  0.1664710E+02 -0.2568960E-01  0.1464773E+00  0.2615770E+01  0.1266899E+00 -0.7352059E-01
 -0.3263390E+01  0.1640620E+02 -0.2568960E-01  0.1580555E+00  0.2579914E+01  0.1337723E+00 -0.8418152E-01
 -0.4855770E+01  0.1600730E+02 -0.2568960E-01  0.1587261E+00  0.2570503E+01  0.1335383E+00 -0.8579920E-01
 -0.6401380E+01  0.1545430E+02 -0.2568960E-01  0.1586946E+00  0.2568243E+01  0.1333176E+00 -0.8608373E-01
 -0.7885340E+01  0.1475240E+02 -0.2568960E-01  0.1566074E+00  0.2573726E+01  0.1320279E+00 -0.8422890E-01
 -0.9293360E+01  0.1390850E+02 -0.2568960E-01  0.1539854E+00  0.2581910E+01  0.1304909E+00 -0.8175346E-01
 -0.1061190E+02  0.1293060E+02 -0.2568960E-01  0.1524532E+00  0.2587467E+01  0.1296403E+00 -0.8022089E-01
 -0.1182820E+02  0.1182820E+02 -0.2568960E-01  0.1497918E+00  0.2595668E+01  0.1280192E+00 -0.7777314E-01
 -0.1293060E+02  0.1061190E+02 -0.2568960E-01  0.1468629E+00  0.2603802E+01  0.1261321E+00 -0.7522905E-01
 -0.1390850E+02  0.9293360E+01 -0.2568960E-01  0.1437663E+00  0.2610378E+01  0.1239542E+00 -0.7282933E-01
 -0.1475240E+02  0.7885330E+01 -0.2568960E-01  0.1390330E+00  0.2622006E+01  0.1206841E+00 -0.6903286E-01
 -0.1545430E+02  0.6401370E+01 -0.2568960E-01  0.1336652E+00  0.2635518E+01  0.1169109E+00 -0.6479389E-01
 -0.1600730E+02  0.4855770E+01 -0.2568960E-01  0.1284073E+00  0.2646326E+01  0.1129782E+00 -0.6102766E-01
 -0.1640620E+02  0.3263390E+01 -0.2568960E-01  0.1233537E+00  0.2651769E+01  0.1088492E+00 -0.5803429E-01
 -0.1664710E+02  0.1639590E+01 -0.2568960E-01  0.1181604E+00  0.2654569E+01  0.1044219E+00 -0.5529877E-01
 -0.1672760E+02 -0.1462370E-05 -0.2568960E-01  0.1127407E+00  0.2656898E+01  0.9975494E-01 -0.5253025E-01
 -0.1664710E+02 -0.1639590E+01 -0.2568960E-01  0.1070695E+00  0.2660395E+01  0.9491082E-01 -0.4955611E-01
 -0.1640620E+02 -0.3263400E+01 -0.2568960E-01  0.1011369E+00  0.2666255E+01  0.8992471E-01 -0.4628419E-01
 -0.1600730E+02 -0.4855770E+01 -0.2568960E-01  0.9499165E-01  0.2665963E+01  0.8444802E-01 -0.4349650E-01
 -0.1545430E+02 -0.6401380E+01 -0.2568960E-01  0.8878610E-01  0.2657209E+01  0.7857233E-01 -0.4134440E-01
 -0.1475240E+02 -0.7885340E+01 -0.2568960E-01  0.8233570E-01  0.2646299E+01  0.7244135E-01 -0.3913334E-01
 -0.1390850E+02 -0.9293360E+01 -0.2568960E-01  0.7523328E-01  0.2650984E+01  0.6635922E-01 -0.3544714E-01
 -0.1293060E+02 -0.1061190E+02 -0.2568960E-01  0.6712303E-01  0.2698361E+01  0.6063696E-01 -0.2878645E-01
 -0.1182820E+02 -0.1182820E+02 -0.2568960E-01  0.5897835E-01  0.2756172E+01  0.5465171E-01 -0.2217287E-01
 -0.1061190E+02 -0.1293060E+02 -0.2568960E-01  0.5081039E-01  0.2848985E+01  0.4865069E-01 -0.1465626E-01
 -0.9293350E+01 -0.1390850E+02 -0.2568960E-01  0.4344589E-01  0.3045592E+01  0.4324584E-01 -0.4164442E-02
 -0.7885340E+01 -0.1475240E+02 -0.2568960E-01  0.3938525E-01 -0.2935450E+01  0.3855137E-01  0.8061606E-02
 -0.6401370E+01 -0.1545430E+02 -0.2568960E-01  0.4341112E-01 -0.2524517E+01  0.3540498E-01  0.2511996E-01
 -0.4855760E+01 -0.1600730E+02 -0.2568960E-01  0.6089590E-01 -0.2174266E+01  0.3455859E-01  0.5013995E-01
 -0.3263390E+01 -0.1640620E+02 -0.2568960E-01  0.9758703E-01 -0.1984402E+01  0.3922154E-01  0.8935827E-01
 -0.1639590E+01 -0.1664710E+02 -0.2568960E-01  0.1499191E+00 -0.1888693E+01  0.4686010E-01  0.1424074E+00
  0.1994750E-06 -0.1672760E+02 -0.2568960E-01  0.1889457E+00 -0.1809489E+01  0.4467297E-01  0.1835886E+00
  0.1639600E+01 -0.1664710E+02 -0.2568960E-01  0.2102351E+00 -0.1705557E+01  0.2824577E-01  0.2083290E+00
  0.3263390E+01 -0.1640620E+02 -0.2568960E-01  0.2205793E+00 -0.1573414E+01  0.5774553E-03  0.2205785E+00
  0.4855770E+01 -0.1600730E+02 -0.2568960E-01  0.2250162E+00 -0.1456280E+01 -0.2571185E-01  0.2235423E+00
  0.6401380E+01 -0.1545430E+02 -0.2568960E-01  0.2293576E+00 -0.1368604E+01 -0.4605892E-01  0.2246853E+00
  0.7885340E+01 -0.1475240E+02 -0.2568960E-01  0.2321349E+00 -0.1295279E+01 -0.6315105E-01  0.2233798E+00
  0.9293360E+01 -0.1390850E+02 -0.2568960E-01  0.2344077E+00 -0.1233422E+01 -0.7759152E-01  0.2211934E+00
  0.1061190E+02 -0.1293060E+02 -0.2568960E-01  0.2373959E+00 -0.1182568E+01 -0.8986606E-01  0.2197292E+00
  0.1182820E+02 -0.1182820E+02 -0.2568960E-01  0.2392502E+00 -0.1137982E+01 -0.1003480E+00  0.2171887E+00
  0.1293060E+02 -0.1061190E+02 -0.2568960E-01  0.2407497E+00 -0.1098866E+01 -0.1094464E+00  0.2144339E+00
  0.1390850E+02 -0.9293360E+01 -0.2568960E-01  0.2421588E+00 -0.1064209E+01 -0.1174946E+00  0.2117449E+00
  0.1475240E+02 -0.7885330E+01 -0.2568960E-01  0.2416817E+00 -0.1032912E+01 -0.1238184E+00  0.2075549E+00
  0.1545430E+02 -0.6401380E+01 -0.2568960E-01  0.2401225E+00 -0.1005846E+01 -0.1285554E+00  0.2028110E+00
  0.1600730E+02 -0.4855760E+01 -0.2568960E-01  0.2383929E+00 -0.9841075E+00 -0.1319759E+00  0.1985284E+00
  0.1640620E+02 -0.3263390E+01 -0.2568960E-01  0.2368740E+00 -0.9677915E+00 -0.1343360E+00  0.1950978E+00
  0.1664710E+02 -0.1639590E+01 -0.2568960E-01  0.2351060E+00 -0.9556504E+00 -0.1356744E+00  0.1920085E+00
  0.1672760E+02  0.0000000E+00 -0.1027320E+00  0.2316923E+00 -0.9480304E+00 -0.1351424E+00  0.1881963E+00
  0.1664710E+02  0.1639590E+01 -0.1027320E+00  0.2282285E+00 -0.9442877E+00 -0.1338149E+00  0.1848832E+00
  0.1640620E+02  0.3263390E+01 -0.1027320E+00  0.2237894E+00 -0.9442849E+00 -0.1312127E+00  0.1812868E+00
  0.1600730E+02  0.4855770E+01 -0.1027320E+00  0.2194632E+00 -0.9484159E+00 -0.1279406E+00  0.1783123E+00
  0.1545430E+02  0.6401380E+01 -0.1027320E+00  0.2154690E+00 -0.9569316E+00 -0.1241168E+00  0.1761304E+00
  0.1475240E+02  0.7885340E+01 -0.1027320E+00  0.2110403E+00 -0.9692481E+00 -0.1194319E+00  0.1739944E+00
  0.1390850E+02  0.9293360E+01 -0.1027320E+00  0.2044836E+00 -0.9851133E+00 -0.1130321E+00  0.1704033E+00
  0.1293060E+02  0.1061190E+02 -0.1027320E+00  0.1940517E+00 -0.1005390E+01 -0.1039649E+00  0.1638517E+00
  0.1182820E+02  0.1182820E+02 -0.1027320E+00  0.1834828E+00 -0.1030506E+01 -0.9438075E-01  0.1573474E+00
  0.1061190E+02  0.1293060E+02 -0.1027320E+00  0.1717403E+00 -0.1061287E+01 -0.8376623E-01  0.1499265E+00
  0.9293360E+01  0.1390850E+02 -0.1027320E+00  0.1563980E+00 -0.1102210E+01 -0.7063329E-01  0.1395395E+00
  0.7885330E+01  0.1475240E+02 -0.1027320E+00  0.1390734E+00 -0.1156582E+01 -0.5597295E-01  0.1273123E+00
  0.6401380E+01  0.1545430E+02 -0.1027320E+00  0.1163747E+00 -0.1242539E+01 -0.3751854E-01  0.1101610E+00
  0.4855770E+01  0.1600730E+02 -0.1027320E+00  0.8588771E-01 -0.1418917E+01 -0.1299443E-01  0.8489902E-01
  0.3263390E+01  0.1640620E+02 -0.1027320E+00  0.5057329E-01 -0.2040380E+01  0.2288518E-01  0.4509906E-01
  0.1639590E+01  0.1664710E+02 -0.1027320E+00  0.7029447E-01  0.3019765E+01  0.6977346E-01 -0.8542640E-02
 -0.7311870E-06  0.1672760E+02 -0.1027320E+00  0.1170027E+00  0.2704066E+01  0.1059813E+00 -0.4957404E-01
 -0.1639590E+01  0.1664710E+02 -0.1027320E+00  0.1460190E+00  0.2615459E+01  0.1262707E+00 -0.7332973E-01
 -0.3263390E+01  0.1640620E+02 -0.1027320E+00  0.1574760E+00  0.2579768E+01  0.1332695E+00 -0.8389238E-01
 -0.4855770E+01  0.1600730E+02 -0.1027320E+00  0.1581625E+00  0.2570308E+01  0.1330474E+00 -0.8552061E-01
 -0.6401380E+01  0.1545430E+02 -0.1027320E+00  0.1580922E+00  0.2568135E+01  0.1328022E+00 -0.8577125E-01
 -0.7885340E+01  0.1475240E+02 -0.1027320E+00  0.1560190E+00  0.2573596E+01  0.1315210E+00 -0.8392953E-01
 -0.9293360E+01  0.1390850E+02 -0.1027320E+00  0.1534158E+00  0.2581757E+01  0.1299958E+00 -0.8147100E-01
 -0.1061190E+02  0.1293060E+02 -0.1027320E+00  0.1518648E+00  0.2587376E+01  0.1291326E+00 -0.7992306E-01
 -0.1182820E+02  0.1182820E+02 -0.1027320E+00  0.1492120E+00  0.2595570E+01  0.1275161E+00 -0.7748459E-01
 -0.1293060E+02  0.1061190E+02 -0.1027320E+00  0.1462870E+00  0.2603719E+01  0.1256312E+00 -0.7494450E-01
 -0.1390850E+02  0.9293360E+01 -0.1027320E+00  0.1431854E+00  0.2610349E+01  0.1234513E+00 -0.7253863E-01
 -0.1475240E+02  0.7885330E+01 -0.1027320E+00  0.1384857E+00  0.2621916E+01  0.1202027E+00 -0.6877197E-01
 -0.1545430E+02  0.6401370E+01 -0.1027320E+00  0.1331618E+00  0.2635296E+01  0.1164562E+00 -0.6457573E-01
 -0.1600730E+02  0.4855770E+01 -0.1027320E+00  0.1279393E+00  0.2645990E+01  0.1125459E+00 -0.6084298E-01
 -0.1640620E+02  0.3263390E+01 -0.1027320E+00  0.1229094E+00  0.2651374E+01  0.1084344E+00 -0.5786802E-01
 -0.1664710E+02  0.1639590E+01 -0.1027320E+00  0.1177364E+00  0.2654146E+01  0.1040239E+00 -0.5514432E-01
 -0.1672760E+02 -0.1462370E-05 -0.1027320E+00  0.1123370E+00  0.2656437E+01  0.9937362E-01 -0.5238794E-01
 -0.1664710E+02 -0.1639590E+01 -0.1027320E+00  0.1066862E+00  0.2659877E+01  0.9454545E-01 -0.4942780E-01
 -0.1640620E+02 -0.3263400E+01 -0.1027320E+00  0.1007741E+00  0.2665652E+01  0.8957430E-01 -0.4617219E-01
 -0.1600730E+02 -0.4855770E+01 -0.1027320E+00  0.9464779E-01  0.2665394E+01  0.8411763E-01 -0.4338696E-01
 -0.1545430E+02 -0.6401380E+01 -0.1027320E+00  0.8845629E-01  0.2656869E+01  0.7826647E-01 -0.4121740E-01
 -0.1475240E+02 -0.7885340E+01 -0.1027320E+00  0.8201657E-01  0.2646288E+01  0.7216014E-01 -0.3898247E-01
 -0.1390850E+02 -0.9293360E+01 -0.1027320E+00  0.7493586E-01  0.2651128E+01  0.6610199E-01 -0.3529746E-01
 -0.1293060E+02 -0.1061190E+02 -0.1027320E+00  0.6686679E-01  0.2697999E+01  0.6039511E-01 -0.2869840E-01
 -0.1182820E+02 -0.1182820E+02 -0.1027320E+00  0.5875622E-01  0.2755714E+01  0.5443576E-01 -0.2211428E-01
 -0.1061190E+02 -0.1293060E+02 -0.1027320E+00  0.5062075E-01  0.2848738E+01  0.4846551E-01 -0.1461353E-01
 -0.9293350E+01 -0.1390850E+02 -0.1027320E+00  0.4328264E-01  0.3044669E+01  0.4307949E-01 -0.4188561E-02
 -0.7885340E+01 -0.1475240E+02 -0.1027320E+00  0.3923341E-01 -0.2936140E+01  0.3840828E-01  0.8004032E-02
 -0.6401370E+01 -0.1545430E+02 -0.1027320E+00  0.4322512E-01 -0.2525178E+01  0.3526983E-01  0.2498901E-01
 -0.4855760E+01 -0.1600730E+02 -0.1027320E+00  0.6062129E-01 -0.2174861E+01  0.3443246E-01  0.4989336E-01
 -0.3263390E+01 -0.1640620E+02 -0.1027320E+00  0.9719999E-01 -0.1984657E+01  0.3908865E-01  0.8899391E-01
 -0.1639590E+01 -0.1664710E+02 -0.1027320E+00  0.1493883E+00 -0.1889025E+01  0.4674132E-01  0.1418877E+00
  0.1994750E-06 -0.1672760E+02 -0.1027320E+00  0.1882562E+00 -0.1809740E+01  0.4455583E-01  0.1829075E+00
  0.1639600E+01 -0.1664710E+02 -0.1027320E+00  0.2094837E+00 -0.1705864E+01  0.2820854E-01  0.2075758E+00
  0.3263390E+01 -0.1640620E+02 -0.1027320E+00  0.2197252E+00 -0.1573529E+01  0.6004939E-03  0.2197244E+00
  0.4855770E+01 -0.1600730E+02 -0.1027320E+00  0.2241593E+00 -0.1456389E+01 -0.2558945E-01  0.2226939E+00
  0.6401380E+01 -0.1545430E+02 -0.1027320E+00  0.2284512E+00 -0.1368663E+01 -0.4586371E-01  0.2238001E+00
  0.7885340E+01 -0.1475240E+02 -0.1027320E+00  0.2312204E+00 -0.1295367E+01 -0.6288273E-01  0.2225054E+00
  0.9293360E+01 -0.1390850E+02 -0.1027320E+00  0.2334908E+00 -0.1233515E+01 -0.7726736E-01  0.2203354E+00
  0.1061190E+02 -0.1293060E+02 -0.1027320E+00  0.2364455E+00 -0.1182634E+01 -0.8949175E-01  0.2188554E+00
  0.1182820E+02 -0.1182820E+02 -0.1027320E+00  0.2382935E+00 -0.1138029E+01 -0.9993668E-01  0.2163249E+00
  0.1293060E+02 -0.1061190E+02 -0.1027320E+00  0.2397820E+00 -0.1098890E+01 -0.1090013E+00  0.2135747E+00
  0.1390850E+02 -0.9293360E+01 -0.1027320E+00  0.2411675E+00 -0.1064228E+01 -0.1170094E+00  0.2108804E+00
