 VARIABLES="X" "Y" "Z" "abs(eta) (m)" "angle(phi) (rad)" "PRE1" "PRE2"
ZONE N=   3200 ,E =    3136 ,F=FEPOINT,ET=QUADRILATERAL
  0.1672760E+02  0.0000000E+00  0.0000000E+00  0.1669815E-01  0.3087524E+01  0.1667375E-01 -0.9024125E-03
  0.1664710E+02  0.1639590E+01  0.0000000E+00  0.1590333E-01 -0.3045563E+01  0.1583006E-01  0.1524854E-02
  0.1640620E+02  0.3263390E+01  0.0000000E+00  0.1541043E-01 -0.2904625E+01  0.1497978E-01  0.3617689E-02
  0.1600730E+02  0.4855770E+01  0.0000000E+00  0.1524976E-01 -0.2764020E+01  0.1417560E-01  0.5622062E-02
  0.1545430E+02  0.6401380E+01  0.0000000E+00  0.1554552E-01 -0.2619052E+01  0.1347104E-01  0.7758508E-02
  0.1475240E+02  0.7885340E+01  0.0000000E+00  0.1671274E-01 -0.2458709E+01  0.1296501E-01  0.1054628E-01
  0.1390850E+02  0.9293360E+01  0.0000000E+00  0.1893897E-01 -0.2307823E+01  0.1272868E-01  0.1402374E-01
  0.1293060E+02  0.1061190E+02  0.0000000E+00  0.2159781E-01 -0.2192428E+01  0.1257775E-01  0.1755750E-01
  0.1182820E+02  0.1182820E+02  0.0000000E+00  0.2459166E-01 -0.2104351E+01  0.1250725E-01  0.2117353E-01
  0.1061190E+02  0.1293060E+02  0.0000000E+00  0.2833545E-01 -0.2033933E+01  0.1265905E-01  0.2535046E-01
  0.9293360E+01  0.1390850E+02  0.0000000E+00  0.3359042E-01 -0.1978964E+01  0.1333300E-01  0.3083095E-01
  0.7885330E+01  0.1475240E+02  0.0000000E+00  0.3974357E-01 -0.1939516E+01  0.1432442E-01  0.3707239E-01
  0.6401380E+01  0.1545430E+02  0.0000000E+00  0.4844487E-01 -0.1910393E+01  0.1613732E-01  0.4567814E-01
  0.4855770E+01  0.1600730E+02  0.0000000E+00  0.6084554E-01 -0.1891431E+01  0.1917663E-01  0.5774458E-01
  0.3263390E+01  0.1640620E+02  0.0000000E+00  0.8048575E-01 -0.1882225E+01  0.2466234E-01  0.7661413E-01
  0.1639590E+01  0.1664710E+02  0.0000000E+00  0.1053970E+00 -0.1876087E+01  0.3167921E-01  0.1005234E+00
 -0.7311870E-06  0.1672760E+02  0.0000000E+00  0.1207310E+00 -0.1863658E+01  0.3485423E-01  0.1155905E+00
 -0.1639590E+01  0.1664710E+02  0.0000000E+00  0.1229955E+00 -0.1839866E+01  0.3269643E-01  0.1185699E+00
 -0.3263390E+01  0.1640620E+02  0.0000000E+00  0.1150302E+00 -0.1801487E+01  0.2630169E-01  0.1119829E+00
 -0.4855770E+01  0.1600730E+02  0.0000000E+00  0.1059741E+00 -0.1762619E+01  0.2020386E-01  0.1040304E+00
 -0.6401380E+01  0.1545430E+02  0.0000000E+00  0.9964793E-01 -0.1731197E+01  0.1591511E-01  0.9836879E-01
 -0.7885340E+01  0.1475240E+02  0.0000000E+00  0.9473635E-01 -0.1704821E+01  0.1265907E-01  0.9388676E-01
 -0.9293360E+01  0.1390850E+02  0.0000000E+00  0.9054568E-01 -0.1682370E+01  0.1008155E-01  0.8998267E-01
 -0.1061190E+02  0.1293060E+02  0.0000000E+00  0.8693496E-01 -0.1662166E+01  0.7932167E-02  0.8657233E-01
 -0.1182820E+02  0.1182820E+02  0.0000000E+00  0.8408962E-01 -0.1646283E+01  0.6341612E-02  0.8385015E-01
 -0.1293060E+02  0.1061190E+02  0.0000000E+00  0.8145141E-01 -0.1632951E+01  0.5059352E-02  0.8129413E-01
 -0.1390850E+02  0.9293360E+01  0.0000000E+00  0.7892168E-01 -0.1621308E+01  0.3984788E-02  0.7882103E-01
 -0.1475240E+02  0.7885330E+01  0.0000000E+00  0.7649627E-01 -0.1611535E+01  0.3115462E-02  0.7643280E-01
 -0.1545430E+02  0.6401370E+01  0.0000000E+00  0.7414299E-01 -0.1605114E+01  0.2543941E-02  0.7409933E-01
 -0.1600730E+02  0.4855770E+01  0.0000000E+00  0.7163103E-01 -0.1601870E+01  0.2225500E-02  0.7159645E-01
 -0.1640620E+02  0.3263390E+01  0.0000000E+00  0.6918304E-01 -0.1601763E+01  0.2142064E-02  0.6914987E-01
 -0.1664710E+02  0.1639590E+01  0.0000000E+00  0.6675266E-01 -0.1604521E+01  0.2250787E-02  0.6671470E-01
 -0.1672760E+02 -0.1462370E-05  0.0000000E+00  0.6420127E-01 -0.1609760E+01  0.2500887E-02  0.6415255E-01
 -0.1664710E+02 -0.1639590E+01  0.0000000E+00  0.6178579E-01 -0.1617561E+01  0.2888338E-02  0.6171825E-01
 -0.1640620E+02 -0.3263400E+01  0.0000000E+00  0.5971512E-01 -0.1626872E+01  0.3346800E-02  0.5962126E-01
 -0.1600730E+02 -0.4855770E+01  0.0000000E+00  0.5774607E-01 -0.1638758E+01  0.3921477E-02  0.5761276E-01
 -0.1545430E+02 -0.6401380E+01  0.0000000E+00  0.5566504E-01 -0.1654676E+01  0.4663690E-02  0.5546933E-01
 -0.1475240E+02 -0.7885340E+01  0.0000000E+00  0.5297599E-01 -0.1678685E+01  0.5704448E-02  0.5266796E-01
 -0.1390850E+02 -0.9293360E+01  0.0000000E+00  0.4967745E-01 -0.1714070E+01  0.7093167E-02  0.4916845E-01
 -0.1293060E+02 -0.1061190E+02  0.0000000E+00  0.4640879E-01 -0.1756848E+01  0.8584686E-02  0.4560789E-01
 -0.1182820E+02 -0.1182820E+02  0.0000000E+00  0.4317353E-01 -0.1808409E+01  0.1016232E-01  0.4196046E-01
 -0.1061190E+02 -0.1293060E+02  0.0000000E+00  0.3960090E-01 -0.1878265E+01  0.1198509E-01  0.3774373E-01
 -0.9293350E+01 -0.1390850E+02  0.0000000E+00  0.3526879E-01 -0.1990425E+01  0.1436925E-01  0.3220889E-01
 -0.7885340E+01 -0.1475240E+02  0.0000000E+00  0.3101489E-01 -0.2153321E+01  0.1706234E-01  0.2589980E-01
 -0.6401370E+01 -0.1545430E+02  0.0000000E+00  0.2689713E-01 -0.2447618E+01  0.2067608E-01  0.1720335E-01
 -0.4855760E+01 -0.1600730E+02  0.0000000E+00  0.2614005E-01 -0.2948605E+01  0.2565477E-01  0.5013461E-02
 -0.3263390E+01 -0.1640620E+02  0.0000000E+00  0.3623793E-01  0.2743893E+01  0.3340972E-01 -0.1403490E-01
 -0.1639590E+01 -0.1664710E+02  0.0000000E+00  0.5753224E-01  0.2416950E+01  0.4307646E-01 -0.3813630E-01
  0.1994750E-06 -0.1672760E+02  0.0000000E+00  0.7212683E-01  0.2310587E+01  0.4862311E-01 -0.5327356E-01
  0.1639600E+01 -0.1664710E+02  0.0000000E+00  0.7416133E-01  0.2282276E+01  0.4842402E-01 -0.5616954E-01
  0.3263390E+01 -0.1640620E+02  0.0000000E+00  0.6586187E-01  0.2293958E+01  0.4358464E-01 -0.4937777E-01
  0.4855770E+01 -0.1600730E+02  0.0000000E+00  0.5643650E-01  0.2322278E+01  0.3853044E-01 -0.4123693E-01
  0.6401380E+01 -0.1545430E+02  0.0000000E+00  0.4978658E-01  0.2349355E+01  0.3496281E-01 -0.3544439E-01
  0.7885340E+01 -0.1475240E+02  0.0000000E+00  0.4460043E-01  0.2377266E+01  0.3219476E-01 -0.3086576E-01
  0.9293360E+01 -0.1390850E+02  0.0000000E+00  0.4019779E-01  0.2408820E+01  0.2987991E-01 -0.2688965E-01
  0.1061190E+02 -0.1293060E+02  0.0000000E+00  0.3638602E-01  0.2442246E+01  0.2784489E-01 -0.2342232E-01
  0.1182820E+02 -0.1182820E+02  0.0000000E+00  0.3336855E-01  0.2473940E+01  0.2620356E-01 -0.2065996E-01
  0.1293060E+02 -0.1061190E+02  0.0000000E+00  0.3061426E-01  0.2510071E+01  0.2470969E-01 -0.1807385E-01
  0.1390850E+02 -0.9293360E+01  0.0000000E+00  0.2801394E-01  0.2551967E+01  0.2328376E-01 -0.1557714E-01
  0.1475240E+02 -0.7885330E+01  0.0000000E+00  0.2558008E-01  0.2600683E+01  0.2192829E-01 -0.1317158E-01
  0.1545430E+02 -0.6401380E+01  0.0000000E+00  0.2336548E-01  0.2659628E+01  0.2070383E-01 -0.1083038E-01
  0.1600730E+02 -0.4855760E+01  0.0000000E+00  0.2125581E-01  0.2739070E+01  0.1955695E-01 -0.8326764E-02
  0.1640620E+02 -0.3263390E+01  0.0000000E+00  0.1943425E-01  0.2833935E+01  0.1852172E-01 -0.5885222E-02
  0.1664710E+02 -0.1639590E+01  0.0000000E+00  0.1790931E-01  0.2947313E+01  0.1757239E-01 -0.3457568E-02
  0.1672760E+02  0.0000000E+00 -0.2568960E-01  0.1668663E-01  0.3087385E+01  0.1666212E-01 -0.9041061E-03
  0.1664710E+02  0.1639590E+01 -0.2568960E-01  0.1589186E-01 -0.3045736E+01  0.1581891E-01  0.1521012E-02
  0.1640620E+02  0.3263390E+01 -0.2568960E-01  0.1539970E-01 -0.2904734E+01  0.1496974E-01  0.3613535E-02
  0.1600730E+02  0.4855770E+01 -0.2568960E-01  0.1524011E-01 -0.2764010E+01  0.1416658E-01  0.5618635E-02
  0.1545430E+02  0.6401380E+01 -0.2568960E-01  0.1553710E-01 -0.2618953E+01  0.1346297E-01  0.7755642E-02
  0.1475240E+02  0.7885340E+01 -0.2568960E-01  0.1670292E-01 -0.2458682E+01  0.1295711E-01  0.1054044E-01
  0.1390850E+02  0.9293360E+01 -0.2568960E-01  0.1892434E-01 -0.2307921E+01  0.1272022E-01  0.1401166E-01
  0.1293060E+02  0.1061190E+02 -0.2568960E-01  0.2158009E-01 -0.2192525E+01  0.1256914E-01  0.1754187E-01
  0.1182820E+02  0.1182820E+02 -0.2568960E-01  0.2457315E-01 -0.2104416E+01  0.1249922E-01  0.2115678E-01
  0.1061190E+02  0.1293060E+02 -0.2568960E-01  0.2831626E-01 -0.2033977E+01  0.1265158E-01  0.2533275E-01
  0.9293360E+01  0.1390850E+02 -0.2568960E-01  0.3356353E-01 -0.1979013E+01  0.1332382E-01  0.3080562E-01
  0.7885330E+01  0.1475240E+02 -0.2568960E-01  0.3971573E-01 -0.1939545E+01  0.1431547E-01  0.3704601E-01
  0.6401380E+01  0.1545430E+02 -0.2568960E-01  0.4840906E-01 -0.1910421E+01  0.1612666E-01  0.4564392E-01
  0.4855770E+01  0.1600730E+02 -0.2568960E-01  0.6080328E-01 -0.1891456E+01  0.1916478E-01  0.5770399E-01
  0.3263390E+01  0.1640620E+02 -0.2568960E-01  0.8044377E-01 -0.1882251E+01  0.2465148E-01  0.7657353E-01
  0.1639590E+01  0.1664710E+02 -0.2568960E-01  0.1053464E+00 -0.1876117E+01  0.3166701E-01  0.1004742E+00
 -0.7311870E-06  0.1672760E+02 -0.2568960E-01  0.1206683E+00 -0.1863688E+01  0.3483964E-01  0.1155294E+00
 -0.1639590E+01  0.1664710E+02 -0.2568960E-01  0.1229293E+00 -0.1839902E+01  0.3268308E-01  0.1185049E+00
 -0.3263390E+01  0.1640620E+02 -0.2568960E-01  0.1149613E+00 -0.1801518E+01  0.2628942E-01  0.1119150E+00
 -0.4855770E+01  0.1600730E+02 -0.2568960E-01  0.1059051E+00 -0.1762635E+01  0.2019231E-01  0.1039623E+00
 -0.6401380E+01  0.1545430E+02 -0.2568960E-01  0.9957956E-01 -0.1731209E+01  0.1590545E-01  0.9830110E-01
 -0.7885340E+01  0.1475240E+02 -0.2568960E-01  0.9466945E-01 -0.1704834E+01  0.1265136E-01  0.9382030E-01
 -0.9293360E+01  0.1390850E+02 -0.2568960E-01  0.9048207E-01 -0.1682381E+01  0.1007545E-01  0.8991936E-01
 -0.1061190E+02  0.1293060E+02 -0.2568960E-01  0.8687434E-01 -0.1662188E+01  0.7928547E-02  0.8651179E-01
 -0.1182820E+02  0.1182820E+02 -0.2568960E-01  0.8402951E-01 -0.1646300E+01  0.6338509E-02  0.8379011E-01
 -0.1293060E+02  0.1061190E+02 -0.2568960E-01  0.8139169E-01 -0.1632959E+01  0.5056228E-02  0.8123448E-01
 -0.1390850E+02  0.9293360E+01 -0.2568960E-01  0.7886304E-01 -0.1621320E+01  0.3982779E-02  0.7876240E-01
 -0.1475240E+02  0.7885330E+01 -0.2568960E-01  0.7643872E-01 -0.1611554E+01  0.3114578E-02  0.7637524E-01
 -0.1545430E+02  0.6401370E+01 -0.2568960E-01  0.7408664E-01 -0.1605133E+01  0.2543382E-02  0.7404298E-01
 -0.1600730E+02  0.4855770E+01 -0.2568960E-01  0.7157756E-01 -0.1601886E+01  0.2224991E-02  0.7154296E-01
 -0.1640620E+02  0.3263390E+01 -0.2568960E-01  0.6913237E-01 -0.1601776E+01  0.2141350E-02  0.6909920E-01
 -0.1664710E+02  0.1639590E+01 -0.2568960E-01  0.6670473E-01 -0.1604526E+01  0.2249470E-02  0.6666679E-01
 -0.1672760E+02 -0.1462370E-05 -0.2568960E-01  0.6415667E-01 -0.1609763E+01  0.2499320E-02  0.6410796E-01
 -0.1664710E+02 -0.1639590E+01 -0.2568960E-01  0.6174349E-01 -0.1617563E+01  0.2886503E-02  0.6167598E-01
 -0.1640620E+02 -0.3263400E+01 -0.2568960E-01  0.5967310E-01 -0.1626878E+01  0.3344784E-02  0.5957929E-01
 -0.1600730E+02 -0.4855770E+01 -0.2568960E-01  0.5770338E-01 -0.1638783E+01  0.3920056E-02  0.5757007E-01
 -0.1545430E+02 -0.6401380E+01 -0.2568960E-01  0.5562176E-01 -0.1654716E+01  0.4662302E-02  0.5542601E-01
 -0.1475240E+02 -0.7885340E+01 -0.2568960E-01  0.5293566E-01 -0.1678725E+01  0.5702193E-02  0.5262764E-01
 -0.1390850E+02 -0.9293360E+01 -0.2568960E-01  0.4964307E-01 -0.1714080E+01  0.7088744E-02  0.4913435E-01
 -0.1293060E+02 -0.1061190E+02 -0.2568960E-01  0.4637788E-01 -0.1756838E+01  0.8578514E-02  0.4557759E-01
 -0.1182820E+02 -0.1182820E+02 -0.2568960E-01  0.4314357E-01 -0.1808420E+01  0.1015574E-01  0.4193124E-01
 -0.1061190E+02 -0.1293060E+02 -0.2568960E-01  0.3957192E-01 -0.1878315E+01  0.1197820E-01  0.3771551E-01
 -0.9293350E+01 -0.1390850E+02 -0.2568960E-01  0.3524574E-01 -0.1990402E+01  0.1435913E-01  0.3218816E-01
 -0.7885340E+01 -0.1475240E+02 -0.2568960E-01  0.3099245E-01 -0.2153378E+01  0.1705148E-01  0.2588009E-01
 -0.6401370E+01 -0.1545430E+02 -0.2568960E-01  0.2687858E-01 -0.2447613E+01  0.2066175E-01  0.1719158E-01
 -0.4855760E+01 -0.1600730E+02 -0.2568960E-01  0.2612275E-01 -0.2948680E+01  0.2563818E-01  0.5008206E-02
 -0.3263390E+01 -0.1640620E+02 -0.2568960E-01  0.3622454E-01  0.2743587E+01  0.3339308E-01 -0.1403994E-01
 -0.1639590E+01 -0.1664710E+02 -0.2568960E-01  0.5751530E-01  0.2416766E+01  0.4305678E-01 -0.3813298E-01
  0.1994750E-06 -0.1672760E+02 -0.2568960E-01  0.7209937E-01  0.2310488E+01  0.4859933E-01 -0.5325808E-01
  0.1639600E+01 -0.1664710E+02 -0.2568960E-01  0.7413098E-01  0.2282200E+01  0.4839996E-01 -0.5615022E-01
  0.3263390E+01 -0.1640620E+02 -0.2568960E-01  0.6582922E-01  0.2293899E+01  0.4356012E-01 -0.4935586E-01
  0.4855770E+01 -0.1600730E+02 -0.2568960E-01  0.5640345E-01  0.2322235E+01  0.3850610E-01 -0.4121443E-01
  0.6401380E+01 -0.1545430E+02 -0.2568960E-01  0.4975495E-01  0.2349331E+01  0.3493978E-01 -0.3542269E-01
  0.7885340E+01 -0.1475240E+02 -0.2568960E-01  0.4457088E-01  0.2377260E+01  0.3217323E-01 -0.3084552E-01
  0.9293360E+01 -0.1390850E+02 -0.2568960E-01  0.4017128E-01  0.2408806E+01  0.2985983E-01 -0.2687233E-01
  0.1061190E+02 -0.1293060E+02 -0.2568960E-01  0.3636298E-01  0.2442231E+01  0.2782690E-01 -0.2340790E-01
  0.1182820E+02 -0.1182820E+02 -0.2568960E-01  0.3334631E-01  0.2473945E+01  0.2618620E-01 -0.2064605E-01
  0.1293060E+02 -0.1061190E+02 -0.2568960E-01  0.3059268E-01  0.2510103E+01  0.2469285E-01 -0.1806032E-01
  0.1390850E+02 -0.9293360E+01 -0.2568960E-01  0.2799381E-01  0.2552028E+01  0.2326797E-01 -0.1556453E-01
  0.1475240E+02 -0.7885330E+01 -0.2568960E-01  0.2556157E-01  0.2600766E+01  0.2191351E-01 -0.1316023E-01
  0.1545430E+02 -0.6401380E+01 -0.2568960E-01  0.2334826E-01  0.2659747E+01  0.2068985E-01 -0.1081994E-01
  0.1600730E+02 -0.4855760E+01 -0.2568960E-01  0.2124086E-01  0.2739139E+01  0.1954378E-01 -0.8319554E-02
  0.1640620E+02 -0.3263390E+01 -0.2568960E-01  0.1942079E-01  0.2833959E+01  0.1850904E-01 -0.5880692E-02
  0.1664710E+02 -0.1639590E+01 -0.2568960E-01  0.1789695E-01  0.2947280E+01  0.1756014E-01 -0.3455757E-02
  0.1672760E+02  0.0000000E+00 -0.1027320E+00  0.1665149E-01  0.3086836E+01  0.1662653E-01 -0.9113253E-03
  0.1664710E+02  0.1639590E+01 -0.1027320E+00  0.1585707E-01 -0.3046436E+01  0.1578533E-01  0.1506622E-02
  0.1640620E+02  0.3263390E+01 -0.1027320E+00  0.1536607E-01 -0.2905202E+01  0.1493873E-01  0.3598660E-02
  0.1600730E+02  0.4855770E+01 -0.1027320E+00  0.1520949E-01 -0.2764094E+01  0.1413858E-01  0.5606166E-02
  0.1545430E+02  0.6401380E+01 -0.1027320E+00  0.1551029E-01 -0.2618727E+01  0.1343799E-01  0.7745289E-02
  0.1475240E+02  0.7885340E+01 -0.1027320E+00  0.1667272E-01 -0.2458640E+01  0.1293324E-01  0.1052193E-01
  0.1390850E+02  0.9293360E+01 -0.1027320E+00  0.1887947E-01 -0.2308192E+01  0.1269385E-01  0.1397500E-01
  0.1293060E+02  0.1061190E+02 -0.1027320E+00  0.2152537E-01 -0.2192816E+01  0.1254236E-01  0.1749374E-01
  0.1182820E+02  0.1182820E+02 -0.1027320E+00  0.2451698E-01 -0.2104592E+01  0.1247435E-01  0.2110623E-01
  0.1061190E+02  0.1293060E+02 -0.1027320E+00  0.2825846E-01 -0.2034096E+01  0.1262878E-01  0.2527953E-01
  0.9293360E+01  0.1390850E+02 -0.1027320E+00  0.3348340E-01 -0.1979140E+01  0.1329592E-01  0.3073039E-01
  0.7885330E+01  0.1475240E+02 -0.1027320E+00  0.3963276E-01 -0.1939615E+01  0.1428816E-01  0.3696761E-01
  0.6401380E+01  0.1545430E+02 -0.1027320E+00  0.4830251E-01 -0.1910487E+01  0.1609418E-01  0.4554240E-01
  0.4855770E+01  0.1600730E+02 -0.1027320E+00  0.6067791E-01 -0.1891522E+01  0.1912905E-01  0.5758375E-01
  0.3263390E+01  0.1640620E+02 -0.1027320E+00  0.8031093E-01 -0.1882321E+01  0.2461616E-01  0.7644534E-01
  0.1639590E+01  0.1664710E+02 -0.1027320E+00  0.1051932E+00 -0.1876193E+01  0.3162860E-01  0.1003257E+00
 -0.7311870E-06  0.1672760E+02 -0.1027320E+00  0.1204766E+00 -0.1863770E+01  0.3479374E-01  0.1153430E+00
 -0.1639590E+01  0.1664710E+02 -0.1027320E+00  0.1227282E+00 -0.1840002E+01  0.3264151E-01  0.1183079E+00
 -0.3263390E+01  0.1640620E+02 -0.1027320E+00  0.1147537E+00 -0.1801596E+01  0.2625060E-01  0.1117109E+00
 -0.4855770E+01  0.1600730E+02 -0.1027320E+00  0.1056992E+00 -0.1762677E+01  0.2015738E-01  0.1037593E+00
 -0.6401380E+01  0.1545430E+02 -0.1027320E+00  0.9937656E-01 -0.1731238E+01  0.1587581E-01  0.9810025E-01
 -0.7885340E+01  0.1475240E+02 -0.1027320E+00  0.9447148E-01 -0.1704868E+01  0.1262801E-01  0.9362368E-01
 -0.9293360E+01  0.1390850E+02 -0.1027320E+00  0.9029329E-01 -0.1682407E+01  0.1005678E-01  0.8973148E-01
 -0.1061190E+02  0.1293060E+02 -0.1027320E+00  0.8669502E-01 -0.1662240E+01  0.7916633E-02  0.8633280E-01
 -0.1182820E+02  0.1182820E+02 -0.1027320E+00  0.8385165E-01 -0.1646337E+01  0.6328221E-02  0.8361252E-01
 -0.1293060E+02  0.1061190E+02 -0.1027320E+00  0.8121575E-01 -0.1632984E+01  0.5047361E-02  0.8105876E-01
 -0.1390850E+02  0.9293360E+01 -0.1027320E+00  0.7868993E-01 -0.1621345E+01  0.3975954E-02  0.7858942E-01
 -0.1475240E+02  0.7885330E+01 -0.1027320E+00  0.7626888E-01 -0.1611596E+01  0.3110904E-02  0.7620541E-01
 -0.1545430E+02  0.6401370E+01 -0.1027320E+00  0.7392030E-01 -0.1605178E+01  0.2540967E-02  0.7387662E-01
 -0.1600730E+02  0.4855770E+01 -0.1027320E+00  0.7142033E-01 -0.1601923E+01  0.2222690E-02  0.7138573E-01
 -0.1640620E+02  0.3263390E+01 -0.1027320E+00  0.6898352E-01 -0.1601792E+01  0.2137883E-02  0.6895038E-01
 -0.1664710E+02  0.1639590E+01 -0.1027320E+00  0.6656405E-01 -0.1604524E+01  0.2244639E-02  0.6652619E-01
 -0.1672760E+02 -0.1462370E-05 -0.1027320E+00  0.6402577E-01 -0.1609744E+01  0.2493036E-02  0.6397721E-01
 -0.1664710E+02 -0.1639590E+01 -0.1027320E+00  0.6161955E-01 -0.1617544E+01  0.2879525E-02  0.6155223E-01
 -0.1640620E+02 -0.3263400E+01 -0.1027320E+00  0.5954975E-01 -0.1626888E+01  0.3338474E-02  0.5945610E-01
 -0.1600730E+02 -0.4855770E+01 -0.1027320E+00  0.5757772E-01 -0.1638835E+01  0.3914509E-02  0.5744450E-01
 -0.1545430E+02 -0.6401380E+01 -0.1027320E+00  0.5549391E-01 -0.1654819E+01  0.4657278E-02  0.5529814E-01
 -0.1475240E+02 -0.7885340E+01 -0.1027320E+00  0.5281588E-01 -0.1678827E+01  0.5694638E-02  0.5250798E-01
 -0.1390850E+02 -0.9293360E+01 -0.1027320E+00  0.4954077E-01 -0.1714079E+01  0.7074073E-02  0.4903311E-01
 -0.1293060E+02 -0.1061190E+02 -0.1027320E+00  0.4628603E-01 -0.1756796E+01  0.8559647E-02  0.4548768E-01
 -0.1182820E+02 -0.1182820E+02 -0.1027320E+00  0.4305384E-01 -0.1808441E+01  0.1013550E-01  0.4184381E-01
 -0.1061190E+02 -0.1293060E+02 -0.1027320E+00  0.3948473E-01 -0.1878439E+01  0.1195649E-01  0.3763092E-01
 -0.9293350E+01 -0.1390850E+02 -0.1027320E+00  0.3517622E-01 -0.1990314E+01  0.1432799E-01  0.3212592E-01
 -0.7885340E+01 -0.1475240E+02 -0.1027320E+00  0.3092472E-01 -0.2153533E+01  0.1701822E-01  0.2582089E-01
 -0.6401370E+01 -0.1545430E+02 -0.1027320E+00  0.2682274E-01 -0.2447623E+01  0.2061899E-01  0.1715566E-01
 -0.4855760E+01 -0.1600730E+02 -0.1027320E+00  0.2606991E-01 -0.2948955E+01  0.2558769E-01  0.4991034E-02
 -0.3263390E+01 -0.1640620E+02 -0.1027320E+00  0.3617889E-01  0.2742783E+01  0.3333972E-01 -0.1404904E-01
 -0.1639590E+01 -0.1664710E+02 -0.1027320E+00  0.5746229E-01  0.2416215E+01  0.4299611E-01 -0.3812151E-01
  0.1994750E-06 -0.1672760E+02 -0.1027320E+00  0.7201326E-01  0.2310190E+01  0.4852540E-01 -0.5320897E-01
  0.1639600E+01 -0.1664710E+02 -0.1027320E+00  0.7403708E-01  0.2281965E+01  0.4832545E-01 -0.5609046E-01
  0.3263390E+01 -0.1640620E+02 -0.1027320E+00  0.6572951E-01  0.2293718E+01  0.4348524E-01 -0.4928898E-01
  0.4855770E+01 -0.1600730E+02 -0.1027320E+00  0.5630578E-01  0.2322086E+01  0.3843329E-01 -0.4114880E-01
  0.6401380E+01 -0.1545430E+02 -0.1027320E+00  0.4966101E-01  0.2349230E+01  0.3487023E-01 -0.3535934E-01
  0.7885340E+01 -0.1475240E+02 -0.1027320E+00  0.4448297E-01  0.2377206E+01  0.3210811E-01 -0.3078642E-01
  0.9293360E+01 -0.1390850E+02 -0.1027320E+00  0.4009292E-01  0.2408722E+01  0.2979934E-01 -0.2682240E-01
  0.1061190E+02 -0.1293060E+02 -0.1027320E+00  0.3629509E-01  0.2442138E+01  0.2777277E-01 -0.2336679E-01
  0.1182820E+02 -0.1182820E+02 -0.1027320E+00  0.3328054E-01  0.2473904E+01  0.2613371E-01 -0.2060640E-01
  0.1293060E+02 -0.1061190E+02 -0.1027320E+00  0.3052952E-01  0.2510117E+01  0.2464213E-01 -0.1802268E-01
  0.1390850E+02 -0.9293360E+01 -0.1027320E+00  0.2793446E-01  0.2552102E+01  0.2321980E-01 -0.1552981E-01
