 VARIABLES="X" "Y" "Z" "abs(eta) (m)" "angle(phi) (rad)" "PRE1" "PRE2"
ZONE N=   3200 ,E =    3136 ,F=FEPOINT,ET=QUADRILATERAL
  0.1672760E+02  0.0000000E+00  0.0000000E+00  0.4888228E+00 -0.1144510E+01 -0.2021247E+00  0.4450768E+00
  0.1664710E+02  0.1639590E+01  0.0000000E+00  0.4890142E+00 -0.1146262E+01 -0.2014232E+00  0.4456047E+00
  0.1640620E+02  0.3263390E+01  0.0000000E+00  0.4887711E+00 -0.1151034E+01 -0.1991952E+00  0.4463389E+00
  0.1600730E+02  0.4855770E+01  0.0000000E+00  0.4860230E+00 -0.1157421E+01 -0.1952367E+00  0.4450854E+00
  0.1545430E+02  0.6401380E+01  0.0000000E+00  0.4803494E+00 -0.1165212E+01 -0.1895248E+00  0.4413795E+00
  0.1475240E+02  0.7885340E+01  0.0000000E+00  0.4720576E+00 -0.1174621E+01 -0.1821636E+00  0.4354938E+00
  0.1390850E+02  0.9293360E+01  0.0000000E+00  0.4632084E+00 -0.1186904E+01 -0.1734867E+00  0.4294932E+00
  0.1293060E+02  0.1061190E+02  0.0000000E+00  0.4545016E+00 -0.1202613E+01 -0.1635845E+00  0.4240423E+00
  0.1182820E+02  0.1182820E+02  0.0000000E+00  0.4444512E+00 -0.1221005E+01 -0.1523143E+00  0.4175371E+00
  0.1061190E+02  0.1293060E+02  0.0000000E+00  0.4317861E+00 -0.1241269E+01 -0.1397241E+00  0.4085540E+00
  0.9293360E+01  0.1390850E+02  0.0000000E+00  0.4173579E+00 -0.1264449E+01 -0.1258659E+00  0.3979264E+00
  0.7885330E+01  0.1475240E+02  0.0000000E+00  0.3982927E+00 -0.1290172E+01 -0.1103094E+00  0.3827126E+00
  0.6401380E+01  0.1545430E+02  0.0000000E+00  0.3687997E+00 -0.1317976E+01 -0.9224977E-01  0.3570759E+00
  0.4855770E+01  0.1600730E+02  0.0000000E+00  0.3292893E+00 -0.1349429E+01 -0.7230002E-01  0.3212541E+00
  0.3263390E+01  0.1640620E+02  0.0000000E+00  0.2624685E+00 -0.1387614E+01 -0.4781102E-01  0.2580772E+00
  0.1639590E+01  0.1664710E+02  0.0000000E+00  0.1628532E+00 -0.1460832E+01 -0.1787205E-01  0.1618695E+00
 -0.7311870E-06  0.1672760E+02  0.0000000E+00  0.6256395E-01 -0.1804115E+01  0.1446525E-01  0.6086875E-01
 -0.1639590E+01  0.1664710E+02  0.0000000E+00  0.6304237E-01  0.2458753E+01  0.4890727E-01 -0.3977963E-01
 -0.3263390E+01  0.1640620E+02  0.0000000E+00  0.1588400E+00  0.2125035E+01  0.8359681E-01 -0.1350619E+00
 -0.4855770E+01  0.1600730E+02  0.0000000E+00  0.2261402E+00  0.2080726E+01  0.1103827E+00 -0.1973703E+00
 -0.6401380E+01  0.1545430E+02  0.0000000E+00  0.2665605E+00  0.2081392E+01  0.1302673E+00 -0.2325617E+00
 -0.7885340E+01  0.1475240E+02  0.0000000E+00  0.2967128E+00  0.2089165E+01  0.1470105E+00 -0.2577333E+00
 -0.9293360E+01  0.1390850E+02  0.0000000E+00  0.3165289E+00  0.2104163E+01  0.1609346E+00 -0.2725630E+00
 -0.1061190E+02  0.1293060E+02  0.0000000E+00  0.3316985E+00  0.2120202E+01  0.1732065E+00 -0.2828841E+00
 -0.1182820E+02  0.1182820E+02  0.0000000E+00  0.3449662E+00  0.2134439E+01  0.1843048E+00 -0.2916049E+00
 -0.1293060E+02  0.1061190E+02  0.0000000E+00  0.3553676E+00  0.2147439E+01  0.1937509E+00 -0.2979038E+00
 -0.1390850E+02  0.9293360E+01  0.0000000E+00  0.3643612E+00  0.2158703E+01  0.2020820E+00 -0.3031863E+00
 -0.1475240E+02  0.7885330E+01  0.0000000E+00  0.3734236E+00  0.2166796E+01  0.2096161E+00 -0.3090409E+00
 -0.1545430E+02  0.6401370E+01  0.0000000E+00  0.3818499E+00  0.2172382E+01  0.2161081E+00 -0.3148121E+00
 -0.1600730E+02  0.4855770E+01  0.0000000E+00  0.3876521E+00  0.2177651E+01  0.2210727E+00 -0.3184352E+00
 -0.1640620E+02  0.3263390E+01  0.0000000E+00  0.3905579E+00  0.2182965E+01  0.2244317E+00 -0.3196340E+00
 -0.1664710E+02  0.1639590E+01  0.0000000E+00  0.3909542E+00  0.2187794E+01  0.2262017E+00 -0.3188698E+00
 -0.1672760E+02 -0.1462370E-05  0.0000000E+00  0.3908298E+00  0.2189719E+01  0.2267430E+00 -0.3183324E+00
 -0.1664710E+02 -0.1639590E+01  0.0000000E+00  0.3909546E+00  0.2187795E+01  0.2262022E+00 -0.3188699E+00
 -0.1640620E+02 -0.3263400E+01  0.0000000E+00  0.3905577E+00  0.2182964E+01  0.2244313E+00 -0.3196341E+00
 -0.1600730E+02 -0.4855770E+01  0.0000000E+00  0.3876526E+00  0.2177653E+01  0.2210736E+00 -0.3184353E+00
 -0.1545430E+02 -0.6401380E+01  0.0000000E+00  0.3818499E+00  0.2172382E+01  0.2161080E+00 -0.3148121E+00
 -0.1475240E+02 -0.7885340E+01  0.0000000E+00  0.3734236E+00  0.2166795E+01  0.2096159E+00 -0.3090411E+00
 -0.1390850E+02 -0.9293360E+01  0.0000000E+00  0.3643617E+00  0.2158703E+01  0.2020823E+00 -0.3031867E+00
 -0.1293060E+02 -0.1061190E+02  0.0000000E+00  0.3553675E+00  0.2147438E+01  0.1937506E+00 -0.2979040E+00
 -0.1182820E+02 -0.1182820E+02  0.0000000E+00  0.3449664E+00  0.2134440E+01  0.1843052E+00 -0.2916049E+00
 -0.1061190E+02 -0.1293060E+02  0.0000000E+00  0.3316981E+00  0.2120198E+01  0.1732053E+00 -0.2828844E+00
 -0.9293350E+01 -0.1390850E+02  0.0000000E+00  0.3165292E+00  0.2104166E+01  0.1609354E+00 -0.2725629E+00
 -0.7885340E+01 -0.1475240E+02  0.0000000E+00  0.2967134E+00  0.2089166E+01  0.1470111E+00 -0.2577336E+00
 -0.6401370E+01 -0.1545430E+02  0.0000000E+00  0.2665611E+00  0.2081395E+01  0.1302683E+00 -0.2325618E+00
 -0.4855760E+01 -0.1600730E+02  0.0000000E+00  0.2261404E+00  0.2080728E+01  0.1103831E+00 -0.1973704E+00
 -0.3263390E+01 -0.1640620E+02  0.0000000E+00  0.1588405E+00  0.2125036E+01  0.8359733E-01 -0.1350622E+00
 -0.1639590E+01 -0.1664710E+02  0.0000000E+00  0.6304237E-01  0.2458742E+01  0.4890683E-01 -0.3978018E-01
  0.1994750E-06 -0.1672760E+02  0.0000000E+00  0.6256381E-01 -0.1804127E+01  0.1446595E-01  0.6086844E-01
  0.1639600E+01 -0.1664710E+02  0.0000000E+00  0.1628536E+00 -0.1460827E+01 -0.1787283E-01  0.1618698E+00
  0.3263390E+01 -0.1640620E+02  0.0000000E+00  0.2624685E+00 -0.1387614E+01 -0.4781105E-01  0.2580771E+00
  0.4855770E+01 -0.1600730E+02  0.0000000E+00  0.3292897E+00 -0.1349427E+01 -0.7230075E-01  0.3212543E+00
  0.6401380E+01 -0.1545430E+02  0.0000000E+00  0.3687991E+00 -0.1317978E+01 -0.9224924E-01  0.3570755E+00
  0.7885340E+01 -0.1475240E+02  0.0000000E+00  0.3982921E+00 -0.1290173E+01 -0.1103089E+00  0.3827121E+00
  0.9293360E+01 -0.1390850E+02  0.0000000E+00  0.4173577E+00 -0.1264449E+01 -0.1258658E+00  0.3979262E+00
  0.1061190E+02 -0.1293060E+02  0.0000000E+00  0.4317861E+00 -0.1241269E+01 -0.1397242E+00  0.4085540E+00
  0.1182820E+02 -0.1182820E+02  0.0000000E+00  0.4444508E+00 -0.1221007E+01 -0.1523133E+00  0.4175370E+00
  0.1293060E+02 -0.1061190E+02  0.0000000E+00  0.4545014E+00 -0.1202614E+01 -0.1635841E+00  0.4240421E+00
  0.1390850E+02 -0.9293360E+01  0.0000000E+00  0.4632084E+00 -0.1186906E+01 -0.1734858E+00  0.4294936E+00
  0.1475240E+02 -0.7885330E+01  0.0000000E+00  0.4720576E+00 -0.1174621E+01 -0.1821634E+00  0.4354938E+00
  0.1545430E+02 -0.6401380E+01  0.0000000E+00  0.4803496E+00 -0.1165210E+01 -0.1895255E+00  0.4413794E+00
  0.1600730E+02 -0.4855760E+01  0.0000000E+00  0.4860238E+00 -0.1157419E+01 -0.1952380E+00  0.4450856E+00
  0.1640620E+02 -0.3263390E+01  0.0000000E+00  0.4887710E+00 -0.1151034E+01 -0.1991953E+00  0.4463388E+00
  0.1664710E+02 -0.1639590E+01  0.0000000E+00  0.4890136E+00 -0.1146264E+01 -0.2014219E+00  0.4456047E+00
  0.1672760E+02  0.0000000E+00 -0.2568960E-01  0.4882510E+00 -0.1144500E+01 -0.2018923E+00  0.4445544E+00
  0.1664710E+02  0.1639590E+01 -0.2568960E-01  0.4884394E+00 -0.1146252E+01 -0.2011910E+00  0.4450789E+00
  0.1640620E+02  0.3263390E+01 -0.2568960E-01  0.4881907E+00 -0.1151023E+01 -0.1989639E+00  0.4458066E+00
  0.1600730E+02  0.4855770E+01 -0.2568960E-01  0.4854513E+00 -0.1157407E+01 -0.1950134E+00  0.4445590E+00
  0.1545430E+02  0.6401380E+01 -0.2568960E-01  0.4797994E+00 -0.1165209E+01 -0.1893090E+00  0.4408737E+00
  0.1475240E+02  0.7885340E+01 -0.2568960E-01  0.4715394E+00 -0.1174627E+01 -0.1819610E+00  0.4350168E+00
  0.1390850E+02  0.9293360E+01 -0.2568960E-01  0.4627146E+00 -0.1186923E+01 -0.1732932E+00  0.4290388E+00
  0.1293060E+02  0.1061190E+02 -0.2568960E-01  0.4540186E+00 -0.1202632E+01 -0.1634027E+00  0.4235946E+00
  0.1182820E+02  0.1182820E+02 -0.2568960E-01  0.4439745E+00 -0.1221014E+01 -0.1521471E+00  0.4170906E+00
  0.1061190E+02  0.1293060E+02 -0.2568960E-01  0.4313321E+00 -0.1241282E+01 -0.1395721E+00  0.4081261E+00
  0.9293360E+01  0.1390850E+02 -0.2568960E-01  0.4169131E+00 -0.1264464E+01 -0.1257260E+00  0.3975041E+00
  0.7885330E+01  0.1475240E+02 -0.2568960E-01  0.3978579E+00 -0.1290179E+01 -0.1101863E+00  0.3822955E+00
  0.6401380E+01  0.1545430E+02 -0.2568960E-01  0.3684203E+00 -0.1317989E+01 -0.9215049E-01  0.3567097E+00
  0.4855770E+01  0.1600730E+02 -0.2568960E-01  0.3289438E+00 -0.1349437E+01 -0.7222142E-01  0.3209176E+00
  0.3263390E+01  0.1640620E+02 -0.2568960E-01  0.2621961E+00 -0.1387619E+01 -0.4776030E-01  0.2578095E+00
  0.1639590E+01  0.1664710E+02 -0.2568960E-01  0.1626592E+00 -0.1460825E+01 -0.1785186E-01  0.1616766E+00
 -0.7311870E-06  0.1672760E+02 -0.2568960E-01  0.6249206E-01 -0.1804101E+01  0.1444778E-01  0.6079901E-01
 -0.1639590E+01  0.1664710E+02 -0.2568960E-01  0.6296310E-01  0.2458833E+01  0.4884895E-01 -0.3972570E-01
 -0.3263390E+01  0.1640620E+02 -0.2568960E-01  0.1586870E+00  0.2125001E+01  0.8351181E-01 -0.1349346E+00
 -0.4855770E+01  0.1600730E+02 -0.2568960E-01  0.2259115E+00  0.2080698E+01  0.1102654E+00 -0.1971739E+00
 -0.6401380E+01  0.1545430E+02 -0.2568960E-01  0.2662972E+00  0.2081354E+01  0.1301298E+00 -0.2323369E+00
 -0.7885340E+01  0.1475240E+02 -0.2568960E-01  0.2963944E+00  0.2089157E+01  0.1468506E+00 -0.2574578E+00
 -0.9293360E+01  0.1390850E+02 -0.2568960E-01  0.3161995E+00  0.2104148E+01  0.1607629E+00 -0.2722819E+00
 -0.1061190E+02  0.1293060E+02 -0.2568960E-01  0.3313565E+00  0.2120169E+01  0.1730186E+00 -0.2825982E+00
 -0.1182820E+02  0.1182820E+02 -0.2568960E-01  0.3446026E+00  0.2134422E+01  0.1841054E+00 -0.2913007E+00
 -0.1293060E+02  0.1061190E+02 -0.2568960E-01  0.3549975E+00  0.2147412E+01  0.1935411E+00 -0.2975988E+00
 -0.1390850E+02  0.9293360E+01 -0.2568960E-01  0.3639820E+00  0.2158680E+01  0.2018650E+00 -0.3028752E+00
 -0.1475240E+02  0.7885330E+01 -0.2568960E-01  0.3730183E+00  0.2166783E+01  0.2093848E+00 -0.3087080E+00
 -0.1545430E+02  0.6401370E+01 -0.2568960E-01  0.3814126E+00  0.2172391E+01  0.2158636E+00 -0.3144495E+00
 -0.1600730E+02  0.4855770E+01 -0.2568960E-01  0.3871940E+00  0.2177680E+01  0.2208207E+00 -0.3180526E+00
 -0.1640620E+02  0.3263390E+01 -0.2568960E-01  0.3900915E+00  0.2182997E+01  0.2241739E+00 -0.3192452E+00
 -0.1664710E+02  0.1639590E+01 -0.2568960E-01  0.3904935E+00  0.2187824E+01  0.2259450E+00 -0.3184871E+00
 -0.1672760E+02 -0.1462370E-05 -0.2568960E-01  0.3903712E+00  0.2189745E+01  0.2264852E+00 -0.3179531E+00
 -0.1664710E+02 -0.1639590E+01 -0.2568960E-01  0.3904942E+00  0.2187827E+01  0.2259460E+00 -0.3184872E+00
 -0.1640620E+02 -0.3263400E+01 -0.2568960E-01  0.3900920E+00  0.2182998E+01  0.2241743E+00 -0.3192454E+00
 -0.1600730E+02 -0.4855770E+01 -0.2568960E-01  0.3871937E+00  0.2177678E+01  0.2208199E+00 -0.3180528E+00
 -0.1545430E+02 -0.6401380E+01 -0.2568960E-01  0.3814129E+00  0.2172392E+01  0.2158640E+00 -0.3144495E+00
 -0.1475240E+02 -0.7885340E+01 -0.2568960E-01  0.3730186E+00  0.2166784E+01  0.2093851E+00 -0.3087082E+00
 -0.1390850E+02 -0.9293360E+01 -0.2568960E-01  0.3639821E+00  0.2158680E+01  0.2018650E+00 -0.3028754E+00
 -0.1293060E+02 -0.1061190E+02 -0.2568960E-01  0.3549978E+00  0.2147413E+01  0.1935414E+00 -0.2975990E+00
 -0.1182820E+02 -0.1182820E+02 -0.2568960E-01  0.3446024E+00  0.2134421E+01  0.1841052E+00 -0.2913007E+00
 -0.1061190E+02 -0.1293060E+02 -0.2568960E-01  0.3313570E+00  0.2120170E+01  0.1730192E+00 -0.2825984E+00
 -0.9293350E+01 -0.1390850E+02 -0.2568960E-01  0.3161997E+00  0.2104147E+01  0.1607627E+00 -0.2722822E+00
 -0.7885340E+01 -0.1475240E+02 -0.2568960E-01  0.2963944E+00  0.2089156E+01  0.1468505E+00 -0.2574580E+00
 -0.6401370E+01 -0.1545430E+02 -0.2568960E-01  0.2662979E+00  0.2081357E+01  0.1301309E+00 -0.2323371E+00
 -0.4855760E+01 -0.1600730E+02 -0.2568960E-01  0.2259122E+00  0.2080700E+01  0.1102662E+00 -0.1971743E+00
 -0.3263390E+01 -0.1640620E+02 -0.2568960E-01  0.1586870E+00  0.2125001E+01  0.8351175E-01 -0.1349346E+00
 -0.1639590E+01 -0.1664710E+02 -0.2568960E-01  0.6296319E-01  0.2458833E+01  0.4884899E-01 -0.3972579E-01
  0.1994750E-06 -0.1672760E+02 -0.2568960E-01  0.6249182E-01 -0.1804114E+01  0.1444852E-01  0.6079859E-01
  0.1639600E+01 -0.1664710E+02 -0.2568960E-01  0.1626596E+00 -0.1460819E+01 -0.1785290E-01  0.1616769E+00
  0.3263390E+01 -0.1640620E+02 -0.2568960E-01  0.2621956E+00 -0.1387615E+01 -0.4776110E-01  0.2578089E+00
  0.4855770E+01 -0.1600730E+02 -0.2568960E-01  0.3289434E+00 -0.1349437E+01 -0.7222145E-01  0.3209171E+00
  0.6401380E+01 -0.1545430E+02 -0.2568960E-01  0.3684202E+00 -0.1317990E+01 -0.9215014E-01  0.3567097E+00
  0.7885340E+01 -0.1475240E+02 -0.2568960E-01  0.3978579E+00 -0.1290179E+01 -0.1101864E+00  0.3822955E+00
  0.9293360E+01 -0.1390850E+02 -0.2568960E-01  0.4169129E+00 -0.1264463E+01 -0.1257261E+00  0.3975039E+00
  0.1061190E+02 -0.1293060E+02 -0.2568960E-01  0.4313321E+00 -0.1241282E+01 -0.1395721E+00  0.4081262E+00
  0.1182820E+02 -0.1182820E+02 -0.2568960E-01  0.4439745E+00 -0.1221013E+01 -0.1521474E+00  0.4170906E+00
  0.1293060E+02 -0.1061190E+02 -0.2568960E-01  0.4540187E+00 -0.1202632E+01 -0.1634029E+00  0.4235946E+00
  0.1390850E+02 -0.9293360E+01 -0.2568960E-01  0.4627145E+00 -0.1186925E+01 -0.1732925E+00  0.4290389E+00
  0.1475240E+02 -0.7885330E+01 -0.2568960E-01  0.4715391E+00 -0.1174630E+01 -0.1819598E+00  0.4350170E+00
  0.1545430E+02 -0.6401380E+01 -0.2568960E-01  0.4797991E+00 -0.1165211E+01 -0.1893078E+00  0.4408739E+00
  0.1600730E+02 -0.4855760E+01 -0.2568960E-01  0.4854517E+00 -0.1157407E+01 -0.1950134E+00  0.4445595E+00
  0.1640620E+02 -0.3263390E+01 -0.2568960E-01  0.4881907E+00 -0.1151023E+01 -0.1989639E+00  0.4458066E+00
  0.1664710E+02 -0.1639590E+01 -0.2568960E-01  0.4884394E+00 -0.1146252E+01 -0.2011908E+00  0.4450789E+00
  0.1672760E+02  0.0000000E+00 -0.1027320E+00  0.4865279E+00 -0.1144479E+01 -0.2011894E+00  0.4429811E+00
  0.1664710E+02  0.1639590E+01 -0.1027320E+00  0.4867056E+00 -0.1146222E+01 -0.2004900E+00  0.4434931E+00
  0.1640620E+02  0.3263390E+01 -0.1027320E+00  0.4864444E+00 -0.1150977E+01 -0.1982723E+00  0.4442029E+00
  0.1600730E+02  0.4855770E+01 -0.1027320E+00  0.4837266E+00 -0.1157376E+01 -0.1943342E+00  0.4429737E+00
  0.1545430E+02  0.6401380E+01 -0.1027320E+00  0.4781400E+00 -0.1165202E+01 -0.1886572E+00  0.4393476E+00
  0.1475240E+02  0.7885340E+01 -0.1027320E+00  0.4699755E+00 -0.1174655E+01 -0.1813454E+00  0.4335790E+00
  0.1390850E+02  0.9293360E+01 -0.1027320E+00  0.4612256E+00 -0.1186966E+01 -0.1727175E+00  0.4276654E+00
  0.1293060E+02  0.1061190E+02 -0.1027320E+00  0.4525588E+00 -0.1202672E+01 -0.1628603E+00  0.4222392E+00
  0.1182820E+02  0.1182820E+02 -0.1027320E+00  0.4425316E+00 -0.1221042E+01 -0.1516409E+00  0.4157394E+00
  0.1061190E+02  0.1293060E+02 -0.1027320E+00  0.4299602E+00 -0.1241320E+01 -0.1391126E+00  0.4068334E+00
  0.9293360E+01  0.1390850E+02 -0.1027320E+00  0.4155690E+00 -0.1264498E+01 -0.1253071E+00  0.3962269E+00
  0.7885330E+01  0.1475240E+02 -0.1027320E+00  0.3965463E+00 -0.1290206E+01 -0.1098129E+00  0.3810382E+00
  0.6401380E+01  0.1545430E+02 -0.1027320E+00  0.3672774E+00 -0.1318025E+01 -0.9185170E-01  0.3556065E+00
  0.4855770E+01  0.1600730E+02 -0.1027320E+00  0.3278961E+00 -0.1349459E+01 -0.7198441E-01  0.3198970E+00
  0.3263390E+01  0.1640620E+02 -0.1027320E+00  0.2613956E+00 -0.1387639E+01 -0.4760918E-01  0.2570234E+00
  0.1639590E+01  0.1664710E+02 -0.1027320E+00  0.1620739E+00 -0.1460853E+01 -0.1778305E-01  0.1610953E+00
 -0.7311870E-06  0.1672760E+02 -0.1027320E+00  0.6227849E-01 -0.1804142E+01  0.1440090E-01  0.6059063E-01
 -0.1639590E+01  0.1664710E+02 -0.1027320E+00  0.6272922E-01  0.2459167E+01  0.4868072E-01 -0.3956188E-01
 -0.3263390E+01  0.1640620E+02 -0.1027320E+00  0.1582383E+00  0.2124832E+01  0.8325288E-01 -0.1345671E+00
 -0.4855770E+01  0.1600730E+02 -0.1027320E+00  0.2252180E+00  0.2080640E+01  0.1099156E+00 -0.1965749E+00
 -0.6401380E+01  0.1545430E+02 -0.1027320E+00  0.2655031E+00  0.2081259E+01  0.1297197E+00 -0.2316565E+00
 -0.7885340E+01  0.1475240E+02 -0.1027320E+00  0.2954333E+00  0.2089149E+01  0.1463722E+00 -0.2566242E+00
 -0.9293360E+01  0.1390850E+02 -0.1027320E+00  0.3152018E+00  0.2104093E+01  0.1602407E+00 -0.2714316E+00
 -0.1061190E+02  0.1293060E+02 -0.1027320E+00  0.3303261E+00  0.2120103E+01  0.1724621E+00 -0.2817307E+00
 -0.1182820E+02  0.1182820E+02 -0.1027320E+00  0.3434987E+00  0.2134368E+01  0.1835002E+00 -0.2903774E+00
 -0.1293060E+02  0.1061190E+02 -0.1027320E+00  0.3538771E+00  0.2147348E+01  0.1929113E+00 -0.2966720E+00
 -0.1390850E+02  0.9293360E+01 -0.1027320E+00  0.3628311E+00  0.2158619E+01  0.2012083E+00 -0.3019298E+00
 -0.1475240E+02  0.7885330E+01 -0.1027320E+00  0.3717946E+00  0.2166768E+01  0.2086933E+00 -0.3076984E+00
 -0.1545430E+02  0.6401370E+01 -0.1027320E+00  0.3800952E+00  0.2172444E+01  0.2151346E+00 -0.3133520E+00
 -0.1600730E+02  0.4855770E+01 -0.1027320E+00  0.3858138E+00  0.2177780E+01  0.2200654E+00 -0.3168966E+00
 -0.1640620E+02  0.3263390E+01 -0.1027320E+00  0.3886887E+00  0.2183112E+01  0.2234044E+00 -0.3180713E+00
 -0.1664710E+02  0.1639590E+01 -0.1027320E+00  0.3891042E+00  0.2187927E+01  0.2251735E+00 -0.3173310E+00
 -0.1672760E+02 -0.1462370E-05 -0.1027320E+00  0.3889934E+00  0.2189843E+01  0.2257170E+00 -0.3168086E+00
 -0.1664710E+02 -0.1639590E+01 -0.1027320E+00  0.3891045E+00  0.2187928E+01  0.2251742E+00 -0.3173308E+00
 -0.1640620E+02 -0.3263400E+01 -0.1027320E+00  0.3886886E+00  0.2183113E+01  0.2234044E+00 -0.3180712E+00
 -0.1600730E+02 -0.4855770E+01 -0.1027320E+00  0.3858138E+00  0.2177780E+01  0.2200653E+00 -0.3168968E+00
 -0.1545430E+02 -0.6401380E+01 -0.1027320E+00  0.3800952E+00  0.2172443E+01  0.2151343E+00 -0.3133522E+00
 -0.1475240E+02 -0.7885340E+01 -0.1027320E+00  0.3717950E+00  0.2166770E+01  0.2086939E+00 -0.3076985E+00
 -0.1390850E+02 -0.9293360E+01 -0.1027320E+00  0.3628309E+00  0.2158618E+01  0.2012078E+00 -0.3019300E+00
 -0.1293060E+02 -0.1061190E+02 -0.1027320E+00  0.3538766E+00  0.2147347E+01  0.1929107E+00 -0.2966718E+00
 -0.1182820E+02 -0.1182820E+02 -0.1027320E+00  0.3434989E+00  0.2134367E+01  0.1835000E+00 -0.2903778E+00
 -0.1061190E+02 -0.1293060E+02 -0.1027320E+00  0.3303259E+00  0.2120103E+01  0.1724617E+00 -0.2817306E+00
 -0.9293350E+01 -0.1390850E+02 -0.1027320E+00  0.3152021E+00  0.2104093E+01  0.1602408E+00 -0.2714318E+00
 -0.7885340E+01 -0.1475240E+02 -0.1027320E+00  0.2954330E+00  0.2089146E+01  0.1463714E+00 -0.2566244E+00
 -0.6401370E+01 -0.1545430E+02 -0.1027320E+00  0.2655030E+00  0.2081255E+01  0.1297188E+00 -0.2316569E+00
 -0.4855760E+01 -0.1600730E+02 -0.1027320E+00  0.2252186E+00  0.2080642E+01  0.1099163E+00 -0.1965753E+00
 -0.3263390E+01 -0.1640620E+02 -0.1027320E+00  0.1582389E+00  0.2124835E+01  0.8325367E-01 -0.1345674E+00
 -0.1639590E+01 -0.1664710E+02 -0.1027320E+00  0.6272928E-01  0.2459167E+01  0.4868074E-01 -0.3956196E-01
  0.1994750E-06 -0.1672760E+02 -0.1027320E+00  0.6227809E-01 -0.1804137E+01  0.1440050E-01  0.6059032E-01
  0.1639600E+01 -0.1664710E+02 -0.1027320E+00  0.1620744E+00 -0.1460848E+01 -0.1778387E-01  0.1610958E+00
  0.3263390E+01 -0.1640620E+02 -0.1027320E+00  0.2613954E+00 -0.1387641E+01 -0.4760873E-01  0.2570233E+00
  0.4855770E+01 -0.1600730E+02 -0.1027320E+00  0.3278960E+00 -0.1349461E+01 -0.7198380E-01  0.3198971E+00
  0.6401380E+01 -0.1545430E+02 -0.1027320E+00  0.3672775E+00 -0.1318024E+01 -0.9185196E-01  0.3556065E+00
  0.7885340E+01 -0.1475240E+02 -0.1027320E+00  0.3965461E+00 -0.1290205E+01 -0.1098131E+00  0.3810379E+00
  0.9293360E+01 -0.1390850E+02 -0.1027320E+00  0.4155689E+00 -0.1264498E+01 -0.1253071E+00  0.3962268E+00
  0.1061190E+02 -0.1293060E+02 -0.1027320E+00  0.4299600E+00 -0.1241319E+01 -0.1391129E+00  0.4068332E+00
  0.1182820E+02 -0.1182820E+02 -0.1027320E+00  0.4425316E+00 -0.1221042E+01 -0.1516412E+00  0.4157393E+00
  0.1293060E+02 -0.1061190E+02 -0.1027320E+00  0.4525592E+00 -0.1202672E+01 -0.1628608E+00  0.4222395E+00
  0.1390850E+02 -0.9293360E+01 -0.1027320E+00  0.4612257E+00 -0.1186966E+01 -0.1727173E+00  0.4276656E+00
