 VARIABLES="X" "Y" "Z" "abs(eta) (m)" "angle(phi) (rad)" "PRE1" "PRE2"
ZONE N=   3200 ,E =    3136 ,F=FEPOINT,ET=QUADRILATERAL
  0.1672760E+02  0.0000000E+00  0.0000000E+00  0.1249940E+00  0.1941805E+01  0.4531728E-01 -0.1164896E+00
  0.1664710E+02  0.1639590E+01  0.0000000E+00  0.1230982E+00  0.1935702E+01  0.4392896E-01 -0.1149931E+00
  0.1640620E+02  0.3263390E+01  0.0000000E+00  0.1217449E+00  0.1925724E+01  0.4230910E-01 -0.1141568E+00
  0.1600730E+02  0.4855770E+01  0.0000000E+00  0.1205905E+00  0.1913146E+01  0.4048235E-01 -0.1135924E+00
  0.1545430E+02  0.6401380E+01  0.0000000E+00  0.1191817E+00  0.1899572E+01  0.3848195E-01 -0.1127981E+00
  0.1475240E+02  0.7885340E+01  0.0000000E+00  0.1158283E+00  0.1890747E+01  0.3643030E-01 -0.1099501E+00
  0.1390850E+02  0.9293360E+01  0.0000000E+00  0.1108432E+00  0.1886465E+01  0.3441153E-01 -0.1053663E+00
  0.1293060E+02  0.1061190E+02  0.0000000E+00  0.1058504E+00  0.1880580E+01  0.3226880E-01 -0.1008118E+00
  0.1182820E+02  0.1182820E+02  0.0000000E+00  0.1007867E+00  0.1872940E+01  0.2999086E-01 -0.9622117E-01
  0.1061190E+02  0.1293060E+02  0.0000000E+00  0.9461118E-01  0.1867659E+01  0.2767581E-01 -0.9047278E-01
  0.9293360E+01  0.1390850E+02  0.0000000E+00  0.8640677E-01  0.1870069E+01  0.2547493E-01 -0.8256608E-01
  0.7885330E+01  0.1475240E+02  0.0000000E+00  0.7719390E-01  0.1876874E+01  0.2326012E-01 -0.7360615E-01
  0.6401380E+01  0.1545430E+02  0.0000000E+00  0.6321341E-01  0.1918192E+01  0.2152104E-01 -0.5943719E-01
  0.4855770E+01  0.1600730E+02  0.0000000E+00  0.4340652E-01  0.2061760E+01  0.2046515E-01 -0.3827929E-01
  0.3263390E+01  0.1640620E+02  0.0000000E+00  0.2130819E-01  0.2989289E+01  0.2106153E-01 -0.3232785E-02
  0.1639590E+01  0.1664710E+02  0.0000000E+00  0.5363377E-01 -0.2026580E+01  0.2360776E-01  0.4815864E-01
 -0.7311870E-06  0.1672760E+02  0.0000000E+00  0.9764825E-01 -0.1829563E+01  0.2498710E-01  0.9439716E-01
 -0.1639590E+01  0.1664710E+02  0.0000000E+00  0.1336757E+00 -0.1752149E+01  0.2410976E-01  0.1314835E+00
 -0.3263390E+01  0.1640620E+02  0.0000000E+00  0.1611971E+00 -0.1700386E+01  0.2083109E-01  0.1598454E+00
 -0.4855770E+01  0.1600730E+02  0.0000000E+00  0.1755128E+00 -0.1662332E+01  0.1604334E-01  0.1747780E+00
 -0.6401380E+01  0.1545430E+02  0.0000000E+00  0.1831196E+00 -0.1632290E+01  0.1125367E-01  0.1827735E+00
 -0.7885340E+01  0.1475240E+02  0.0000000E+00  0.1874197E+00 -0.1606897E+01  0.6764526E-02  0.1872976E+00
 -0.9293360E+01  0.1390850E+02  0.0000000E+00  0.1888505E+00 -0.1584043E+01  0.2501624E-02  0.1888339E+00
 -0.1061190E+02  0.1293060E+02  0.0000000E+00  0.1902472E+00 -0.1563861E+01 -0.1319351E-02  0.1902426E+00
 -0.1182820E+02  0.1182820E+02  0.0000000E+00  0.1910709E+00 -0.1545813E+01 -0.4773058E-02  0.1910113E+00
 -0.1293060E+02  0.1061190E+02  0.0000000E+00  0.1913184E+00 -0.1529717E+01 -0.7857070E-02  0.1911570E+00
 -0.1390850E+02  0.9293360E+01  0.0000000E+00  0.1916656E+00 -0.1515650E+01 -0.1056422E-01  0.1913742E+00
 -0.1475240E+02  0.7885330E+01  0.0000000E+00  0.1921468E+00 -0.1503586E+01 -0.1290446E-01  0.1917130E+00
 -0.1545430E+02  0.6401370E+01  0.0000000E+00  0.1914612E+00 -0.1492590E+01 -0.1495827E-01  0.1908760E+00
 -0.1600730E+02  0.4855770E+01  0.0000000E+00  0.1890850E+00 -0.1482347E+01 -0.1670256E-01  0.1883459E+00
 -0.1640620E+02  0.3263390E+01  0.0000000E+00  0.1865995E+00 -0.1473900E+01 -0.1805259E-01  0.1857242E+00
 -0.1664710E+02  0.1639590E+01  0.0000000E+00  0.1842938E+00 -0.1467430E+01 -0.1901587E-01  0.1833102E+00
 -0.1672760E+02 -0.1462370E-05  0.0000000E+00  0.1822595E+00 -0.1462967E+01 -0.1961480E-01  0.1812009E+00
 -0.1664710E+02 -0.1639590E+01  0.0000000E+00  0.1807836E+00 -0.1460246E+01 -0.1994502E-01  0.1796800E+00
 -0.1640620E+02 -0.3263400E+01  0.0000000E+00  0.1799522E+00 -0.1458731E+01 -0.2012427E-01  0.1788234E+00
 -0.1600730E+02 -0.4855770E+01  0.0000000E+00  0.1793710E+00 -0.1458396E+01 -0.2011893E-01  0.1782391E+00
 -0.1545430E+02 -0.6401380E+01  0.0000000E+00  0.1785335E+00 -0.1459263E+01 -0.1987118E-01  0.1774242E+00
 -0.1475240E+02 -0.7885340E+01  0.0000000E+00  0.1755891E+00 -0.1461977E+01 -0.1906974E-01  0.1745505E+00
 -0.1390850E+02 -0.9293360E+01  0.0000000E+00  0.1708520E+00 -0.1466966E+01 -0.1770774E-01  0.1699319E+00
 -0.1293060E+02 -0.1061190E+02  0.0000000E+00  0.1661280E+00 -0.1473340E+01 -0.1616468E-01  0.1653397E+00
 -0.1182820E+02 -0.1182820E+02  0.0000000E+00  0.1613587E+00 -0.1480989E+01 -0.1447172E-01  0.1607084E+00
 -0.1061190E+02 -0.1293060E+02  0.0000000E+00  0.1554113E+00 -0.1490639E+01 -0.1244402E-01  0.1549123E+00
 -0.9293350E+01 -0.1390850E+02  0.0000000E+00  0.1472775E+00 -0.1503652E+01 -0.9881405E-02  0.1469456E+00
 -0.7885340E+01 -0.1475240E+02  0.0000000E+00  0.1380962E+00 -0.1519578E+01 -0.7069943E-02  0.1379151E+00
 -0.6401370E+01 -0.1545430E+02  0.0000000E+00  0.1236929E+00 -0.1545852E+01 -0.3085081E-02  0.1236544E+00
 -0.4855760E+01 -0.1600730E+02  0.0000000E+00  0.1024006E+00 -0.1594233E+01  0.2399727E-02  0.1023725E+00
 -0.3263390E+01 -0.1640620E+02  0.0000000E+00  0.6804956E-01 -0.1733638E+01  0.1103239E-01  0.6714930E-01
 -0.1639590E+01 -0.1664710E+02  0.0000000E+00  0.2828377E-01 -0.2558626E+01  0.2361223E-01  0.1557030E-01
  0.1994750E-06 -0.1672760E+02  0.0000000E+00  0.4662139E-01  0.2422006E+01  0.3506294E-01 -0.3072693E-01
  0.1639600E+01 -0.1664710E+02  0.0000000E+00  0.8072816E-01  0.2146574E+01  0.4395547E-01 -0.6771228E-01
  0.3263390E+01 -0.1640620E+02  0.0000000E+00  0.1080617E+00  0.2050895E+01  0.4991013E-01 -0.9584527E-01
  0.4855770E+01 -0.1600730E+02  0.0000000E+00  0.1222977E+00  0.2012332E+01  0.5226128E-01 -0.1105689E+00
  0.6401380E+01 -0.1545430E+02  0.0000000E+00  0.1297856E+00  0.1992480E+01  0.5312087E-01 -0.1184166E+00
  0.7885340E+01 -0.1475240E+02  0.0000000E+00  0.1339330E+00  0.1980858E+01  0.5339454E-01 -0.1228294E+00
  0.9293360E+01 -0.1390850E+02  0.0000000E+00  0.1351506E+00  0.1974604E+01  0.5310379E-01 -0.1242806E+00
  0.1061190E+02 -0.1293060E+02  0.0000000E+00  0.1362963E+00  0.1969218E+01  0.5287810E-01 -0.1256209E+00
  0.1182820E+02 -0.1182820E+02  0.0000000E+00  0.1368173E+00  0.1964676E+01  0.5250688E-01 -0.1263408E+00
  0.1293060E+02 -0.1061190E+02  0.0000000E+00  0.1367368E+00  0.1961168E+01  0.5203271E-01 -0.1264498E+00
  0.1390850E+02 -0.9293360E+01  0.0000000E+00  0.1367314E+00  0.1957395E+01  0.5155328E-01 -0.1266401E+00
  0.1475240E+02 -0.7885330E+01  0.0000000E+00  0.1368383E+00  0.1953102E+01  0.5104895E-01 -0.1269596E+00
  0.1545430E+02 -0.6401380E+01  0.0000000E+00  0.1357521E+00  0.1949877E+01  0.5023734E-01 -0.1261144E+00
  0.1600730E+02 -0.4855760E+01  0.0000000E+00  0.1329730E+00  0.1948806E+01  0.4907651E-01 -0.1235853E+00
  0.1640620E+02 -0.3263390E+01  0.0000000E+00  0.1300938E+00  0.1947475E+01  0.4785297E-01 -0.1209731E+00
  0.1664710E+02 -0.1639590E+01  0.0000000E+00  0.1274044E+00  0.1945237E+01  0.4659840E-01 -0.1185769E+00
  0.1672760E+02  0.0000000E+00 -0.2568960E-01  0.1249121E+00  0.1941791E+01  0.4528595E-01 -0.1164140E+00
  0.1664710E+02  0.1639590E+01 -0.2568960E-01  0.1230166E+00  0.1935683E+01  0.4389761E-01 -0.1149177E+00
  0.1640620E+02  0.3263390E+01 -0.2568960E-01  0.1216602E+00  0.1925725E+01  0.4227980E-01 -0.1140773E+00
  0.1600730E+02  0.4855770E+01 -0.2568960E-01  0.1204987E+00  0.1913168E+01  0.4045413E-01 -0.1135051E+00
  0.1545430E+02  0.6401380E+01 -0.2568960E-01  0.1190839E+00  0.1899624E+01  0.3845618E-01 -0.1127035E+00
  0.1475240E+02  0.7885340E+01 -0.2568960E-01  0.1157363E+00  0.1890785E+01  0.3640554E-01 -0.1098614E+00
  0.1390850E+02  0.9293360E+01 -0.2568960E-01  0.1107654E+00  0.1886470E+01  0.3438794E-01 -0.1052922E+00
  0.1293060E+02  0.1061190E+02 -0.2568960E-01  0.1057803E+00  0.1880564E+01  0.3224579E-01 -0.1007456E+00
  0.1182820E+02  0.1182820E+02 -0.2568960E-01  0.1007186E+00  0.1872923E+01  0.2996891E-01 -0.9615660E-01
  0.1061190E+02  0.1293060E+02 -0.2568960E-01  0.9454560E-01  0.1867661E+01  0.2765677E-01 -0.9041003E-01
  0.9293360E+01  0.1390850E+02 -0.2568960E-01  0.8635560E-01  0.1870030E+01  0.2545662E-01 -0.8251818E-01
  0.7885330E+01  0.1475240E+02 -0.2568960E-01  0.7714015E-01  0.1876880E+01  0.2324438E-01 -0.7355475E-01
  0.6401380E+01  0.1545430E+02 -0.2568960E-01  0.6317756E-01  0.1918154E+01  0.2150655E-01 -0.5940431E-01
  0.4855770E+01  0.1600730E+02 -0.2568960E-01  0.4338501E-01  0.2061655E+01  0.2045097E-01 -0.3826247E-01
  0.3263390E+01  0.1640620E+02 -0.2568960E-01  0.2129420E-01  0.2989993E+01  0.2104997E-01 -0.3215838E-02
  0.1639590E+01  0.1664710E+02 -0.2568960E-01  0.5361900E-01 -0.2026467E+01  0.2359584E-01  0.4814804E-01
 -0.7311870E-06  0.1672760E+02 -0.2568960E-01  0.9759533E-01 -0.1829563E+01  0.2497352E-01  0.9434602E-01
 -0.1639590E+01  0.1664710E+02 -0.2568960E-01  0.1335897E+00 -0.1752172E+01  0.2409727E-01  0.1313984E+00
 -0.3263390E+01  0.1640620E+02 -0.2568960E-01  0.1610868E+00 -0.1700407E+01  0.2082009E-01  0.1597356E+00
 -0.4855770E+01  0.1600730E+02 -0.2568960E-01  0.1754026E+00 -0.1662344E+01  0.1603536E-01  0.1746681E+00
 -0.6401380E+01  0.1545430E+02 -0.2568960E-01  0.1829983E+00 -0.1632303E+01  0.1124861E-01  0.1826523E+00
 -0.7885340E+01  0.1475240E+02 -0.2568960E-01  0.1872878E+00 -0.1606908E+01  0.6761879E-02  0.1871657E+00
 -0.9293360E+01  0.1390850E+02 -0.2568960E-01  0.1887240E+00 -0.1584048E+01  0.2500869E-02  0.1887074E+00
 -0.1061190E+02  0.1293060E+02 -0.2568960E-01  0.1901142E+00 -0.1563868E+01 -0.1317193E-02  0.1901097E+00
 -0.1182820E+02  0.1182820E+02 -0.2568960E-01  0.1909374E+00 -0.1545824E+01 -0.4767640E-02  0.1908778E+00
 -0.1293060E+02  0.1061190E+02 -0.2568960E-01  0.1911838E+00 -0.1529722E+01 -0.7850491E-02  0.1910225E+00
 -0.1390850E+02  0.9293360E+01 -0.2568960E-01  0.1915259E+00 -0.1515657E+01 -0.1055519E-01  0.1912348E+00
 -0.1475240E+02  0.7885330E+01 -0.2568960E-01  0.1919978E+00 -0.1503582E+01 -0.1289536E-01  0.1915642E+00
 -0.1545430E+02  0.6401370E+01 -0.2568960E-01  0.1913090E+00 -0.1492589E+01 -0.1494660E-01  0.1907243E+00
 -0.1600730E+02  0.4855770E+01 -0.2568960E-01  0.1889426E+00 -0.1482347E+01 -0.1669003E-01  0.1882040E+00
 -0.1640620E+02  0.3263390E+01 -0.2568960E-01  0.1864657E+00 -0.1473906E+01 -0.1803851E-01  0.1855911E+00
 -0.1664710E+02  0.1639590E+01 -0.2568960E-01  0.1841668E+00 -0.1467432E+01 -0.1900234E-01  0.1831839E+00
 -0.1672760E+02 -0.1462370E-05 -0.2568960E-01  0.1821363E+00 -0.1462973E+01 -0.1960042E-01  0.1810785E+00
 -0.1664710E+02 -0.1639590E+01 -0.2568960E-01  0.1806609E+00 -0.1460252E+01 -0.1993044E-01  0.1795582E+00
 -0.1640620E+02 -0.3263400E+01 -0.2568960E-01  0.1798246E+00 -0.1458734E+01 -0.2010950E-01  0.1786967E+00
 -0.1600730E+02 -0.4855770E+01 -0.2568960E-01  0.1792361E+00 -0.1458394E+01 -0.2010420E-01  0.1781050E+00
 -0.1545430E+02 -0.6401380E+01 -0.2568960E-01  0.1783911E+00 -0.1459268E+01 -0.1985436E-01  0.1772828E+00
 -0.1475240E+02 -0.7885340E+01 -0.2568960E-01  0.1754517E+00 -0.1461980E+01 -0.1905441E-01  0.1744139E+00
 -0.1390850E+02 -0.9293360E+01 -0.2568960E-01  0.1707303E+00 -0.1466969E+01 -0.1769462E-01  0.1698109E+00
 -0.1293060E+02 -0.1061190E+02 -0.2568960E-01  0.1660145E+00 -0.1473339E+01 -0.1615370E-01  0.1652267E+00
 -0.1182820E+02 -0.1182820E+02 -0.2568960E-01  0.1612467E+00 -0.1480990E+01 -0.1446153E-01  0.1605968E+00
 -0.1061190E+02 -0.1293060E+02 -0.2568960E-01  0.1553009E+00 -0.1490643E+01 -0.1243453E-01  0.1548023E+00
 -0.9293350E+01 -0.1390850E+02 -0.2568960E-01  0.1471820E+00 -0.1503646E+01 -0.9875817E-02  0.1468503E+00
 -0.7885340E+01 -0.1475240E+02 -0.2568960E-01  0.1379979E+00 -0.1519582E+01 -0.7064443E-02  0.1378170E+00
 -0.6401370E+01 -0.1545430E+02 -0.2568960E-01  0.1236124E+00 -0.1545839E+01 -0.3084748E-02  0.1235739E+00
 -0.4855760E+01 -0.1600730E+02 -0.2568960E-01  0.1023369E+00 -0.1594215E+01  0.2396353E-02  0.1023088E+00
 -0.3263390E+01 -0.1640620E+02 -0.2568960E-01  0.6798644E-01 -0.1733744E+01  0.1102925E-01  0.6708585E-01
 -0.1639590E+01 -0.1664710E+02 -0.2568960E-01  0.2825534E-01 -0.2559498E+01  0.2360206E-01  0.1553407E-01
  0.1994750E-06 -0.1672760E+02 -0.2568960E-01  0.4660383E-01  0.2421801E+01  0.3504343E-01 -0.3072255E-01
  0.1639600E+01 -0.1664710E+02 -0.2568960E-01  0.8068020E-01  0.2146549E+01  0.4392767E-01 -0.6767314E-01
  0.3263390E+01 -0.1640620E+02 -0.2568960E-01  0.1079915E+00  0.2050894E+01  0.4987760E-01 -0.9578302E-01
  0.4855770E+01 -0.1600730E+02 -0.2568960E-01  0.1222269E+00  0.2012314E+01  0.5222901E-01 -0.1105059E+00
  0.6401380E+01 -0.1545430E+02 -0.2568960E-01  0.1297037E+00  0.1992469E+01  0.5308606E-01 -0.1183424E+00
  0.7885340E+01 -0.1475240E+02 -0.2568960E-01  0.1338400E+00  0.1980860E+01  0.5335775E-01 -0.1227441E+00
  0.9293360E+01 -0.1390850E+02 -0.2568960E-01  0.1350640E+00  0.1974595E+01  0.5306859E-01 -0.1242015E+00
  0.1061190E+02 -0.1293060E+02 -0.2568960E-01  0.1362035E+00  0.1969213E+01  0.5284148E-01 -0.1255355E+00
  0.1182820E+02 -0.1182820E+02 -0.2568960E-01  0.1367235E+00  0.1964678E+01  0.5247118E-01 -0.1262541E+00
  0.1293060E+02 -0.1061190E+02 -0.2568960E-01  0.1366426E+00  0.1961165E+01  0.5199651E-01 -0.1263628E+00
  0.1390850E+02 -0.9293360E+01 -0.2568960E-01  0.1366324E+00  0.1957411E+01  0.5151790E-01 -0.1265477E+00
  0.1475240E+02 -0.7885330E+01 -0.2568960E-01  0.1367306E+00  0.1953132E+01  0.5101259E-01 -0.1268581E+00
  0.1545430E+02 -0.6401380E+01 -0.2568960E-01  0.1356414E+00  0.1949906E+01  0.5020002E-01 -0.1260101E+00
  0.1600730E+02 -0.4855760E+01 -0.2568960E-01  0.1328720E+00  0.1948824E+01  0.4904152E-01 -0.1234905E+00
  0.1640620E+02 -0.3263390E+01 -0.2568960E-01  0.1300023E+00  0.1947483E+01  0.4782019E-01 -0.1208876E+00
  0.1664710E+02 -0.1639590E+01 -0.2568960E-01  0.1273189E+00  0.1945224E+01  0.4656560E-01 -0.1184979E+00
  0.1672760E+02  0.0000000E+00 -0.1027320E+00  0.1246805E+00  0.1941702E+01  0.4519159E-01 -0.1162022E+00
  0.1664710E+02  0.1639590E+01 -0.1027320E+00  0.1227852E+00  0.1935596E+01  0.4380515E-01 -0.1147054E+00
  0.1640620E+02  0.3263390E+01 -0.1027320E+00  0.1214169E+00  0.1925685E+01  0.4219069E-01 -0.1138509E+00
  0.1600730E+02  0.4855770E+01 -0.1027320E+00  0.1202353E+00  0.1913196E+01  0.4036886E-01 -0.1132559E+00
  0.1545430E+02  0.6401380E+01 -0.1027320E+00  0.1188001E+00  0.1899729E+01  0.3837634E-01 -0.1124309E+00
  0.1475240E+02  0.7885340E+01 -0.1027320E+00  0.1154677E+00  0.1890871E+01  0.3633048E-01 -0.1096034E+00
  0.1390850E+02  0.9293360E+01 -0.1027320E+00  0.1105384E+00  0.1886449E+01  0.3431520E-01 -0.1050772E+00
  0.1293060E+02  0.1061190E+02 -0.1027320E+00  0.1055767E+00  0.1880481E+01  0.3217540E-01 -0.1005544E+00
  0.1182820E+02  0.1182820E+02 -0.1027320E+00  0.1005201E+00  0.1872869E+01  0.2990475E-01 -0.9596876E-01
  0.1061190E+02  0.1293060E+02 -0.1027320E+00  0.9435256E-01  0.1867649E+01  0.2759925E-01 -0.9022575E-01
  0.9293360E+01  0.1390850E+02 -0.1027320E+00  0.8620390E-01  0.1869899E+01  0.2540109E-01 -0.8237655E-01
  0.7885330E+01  0.1475240E+02 -0.1027320E+00  0.7698122E-01  0.1876893E+01  0.2319742E-01 -0.7340292E-01
  0.6401380E+01  0.1545430E+02 -0.1027320E+00  0.6306862E-01  0.1917977E+01  0.2145897E-01 -0.5930568E-01
  0.4855770E+01  0.1600730E+02 -0.1027320E+00  0.4331809E-01  0.2061353E+01  0.2040791E-01 -0.3820961E-01
  0.3263390E+01  0.1640620E+02 -0.1027320E+00  0.2125284E-01  0.2991297E+01  0.2101326E-01 -0.3182196E-02
  0.1639590E+01  0.1664710E+02 -0.1027320E+00  0.5357155E-01 -0.2026158E+01  0.2356009E-01  0.4811271E-01
 -0.7311870E-06  0.1672760E+02 -0.1027320E+00  0.9743440E-01 -0.1829573E+01  0.2493331E-01  0.9419020E-01
 -0.1639590E+01  0.1664710E+02 -0.1027320E+00  0.1333295E+00 -0.1752227E+01  0.2405757E-01  0.1311411E+00
 -0.3263390E+01  0.1640620E+02 -0.1027320E+00  0.1607689E+00 -0.1700441E+01  0.2078454E-01  0.1594197E+00
 -0.4855770E+01  0.1600730E+02 -0.1027320E+00  0.1750730E+00 -0.1662366E+01  0.1600890E-01  0.1743395E+00
 -0.6401380E+01  0.1545430E+02 -0.1027320E+00  0.1826396E+00 -0.1632323E+01  0.1123004E-01  0.1822941E+00
 -0.7885340E+01  0.1475240E+02 -0.1027320E+00  0.1868952E+00 -0.1606918E+01  0.6749462E-02  0.1867733E+00
 -0.9293360E+01  0.1390850E+02 -0.1027320E+00  0.1883507E+00 -0.1584075E+01  0.2500973E-02  0.1883341E+00
 -0.1061190E+02  0.1293060E+02 -0.1027320E+00  0.1897219E+00 -0.1563886E+01 -0.1311019E-02  0.1897173E+00
 -0.1182820E+02  0.1182820E+02 -0.1027320E+00  0.1905427E+00 -0.1545850E+01 -0.4752924E-02  0.1904834E+00
 -0.1293060E+02  0.1061190E+02 -0.1027320E+00  0.1907892E+00 -0.1529745E+01 -0.7829952E-02  0.1906285E+00
 -0.1390850E+02  0.9293360E+01 -0.1027320E+00  0.1911169E+00 -0.1515675E+01 -0.1052936E-01  0.1908267E+00
 -0.1475240E+02  0.7885330E+01 -0.1027320E+00  0.1915617E+00 -0.1503587E+01 -0.1286507E-01  0.1911292E+00
 -0.1545430E+02  0.6401370E+01 -0.1027320E+00  0.1908663E+00 -0.1492582E+01 -0.1491330E-01  0.1902828E+00
 -0.1600730E+02  0.4855770E+01 -0.1027320E+00  0.1885278E+00 -0.1482350E+01 -0.1665287E-01  0.1877909E+00
 -0.1640620E+02  0.3263390E+01 -0.1027320E+00  0.1860774E+00 -0.1473922E+01 -0.1799802E-01  0.1852049E+00
 -0.1664710E+02  0.1639590E+01 -0.1027320E+00  0.1837990E+00 -0.1467450E+01 -0.1896123E-01  0.1828183E+00
 -0.1672760E+02 -0.1462370E-05 -0.1027320E+00  0.1817812E+00 -0.1462984E+01 -0.1956036E-01  0.1807257E+00
 -0.1664710E+02 -0.1639590E+01 -0.1027320E+00  0.1803052E+00 -0.1460263E+01 -0.1988922E-01  0.1792048E+00
 -0.1640620E+02 -0.3263400E+01 -0.1027320E+00  0.1794546E+00 -0.1458742E+01 -0.2006657E-01  0.1783291E+00
 -0.1600730E+02 -0.4855770E+01 -0.1027320E+00  0.1788429E+00 -0.1458410E+01 -0.2005729E-01  0.1777147E+00
 -0.1545430E+02 -0.6401380E+01 -0.1027320E+00  0.1779739E+00 -0.1459292E+01 -0.1980375E-01  0.1768686E+00
 -0.1475240E+02 -0.7885340E+01 -0.1027320E+00  0.1750501E+00 -0.1462003E+01 -0.1900670E-01  0.1740152E+00
 -0.1390850E+02 -0.9293360E+01 -0.1027320E+00  0.1703721E+00 -0.1466974E+01 -0.1765667E-01  0.1694547E+00
 -0.1293060E+02 -0.1061190E+02 -0.1027320E+00  0.1656812E+00 -0.1473335E+01 -0.1612193E-01  0.1648949E+00
 -0.1182820E+02 -0.1182820E+02 -0.1027320E+00  0.1609163E+00 -0.1480991E+01 -0.1443167E-01  0.1602678E+00
 -0.1061190E+02 -0.1293060E+02 -0.1027320E+00  0.1549753E+00 -0.1490646E+01 -0.1240802E-01  0.1544778E+00
 -0.9293350E+01 -0.1390850E+02 -0.1027320E+00  0.1468995E+00 -0.1503624E+01 -0.9860207E-02  0.1465682E+00
 -0.7885340E+01 -0.1475240E+02 -0.1027320E+00  0.1377051E+00 -0.1519597E+01 -0.7047383E-02  0.1375246E+00
 -0.6401370E+01 -0.1545430E+02 -0.1027320E+00  0.1233740E+00 -0.1545809E+01 -0.3082451E-02  0.1233355E+00
 -0.4855760E+01 -0.1600730E+02 -0.1027320E+00  0.1021437E+00 -0.1594173E+01  0.2387551E-02  0.1021158E+00
 -0.3263390E+01 -0.1640620E+02 -0.1027320E+00  0.6781204E-01 -0.1733943E+01  0.1101432E-01  0.6691156E-01
 -0.1639590E+01 -0.1664710E+02 -0.1027320E+00  0.2817129E-01 -0.2561989E+01  0.2357034E-01  0.1542921E-01
  0.1994750E-06 -0.1672760E+02 -0.1027320E+00  0.4654705E-01  0.2421198E+01  0.3498221E-01 -0.3070623E-01
  0.1639600E+01 -0.1664710E+02 -0.1027320E+00  0.8053627E-01  0.2146463E+01  0.4384346E-01 -0.6755621E-01
  0.3263390E+01 -0.1640620E+02 -0.1027320E+00  0.1077902E+00  0.2050847E+01  0.4978012E-01 -0.9560683E-01
  0.4855770E+01 -0.1600730E+02 -0.1027320E+00  0.1220150E+00  0.2012238E+01  0.5213004E-01 -0.1103183E+00
  0.6401380E+01 -0.1545430E+02 -0.1027320E+00  0.1294629E+00  0.1992432E+01  0.5298316E-01 -0.1181246E+00
  0.7885340E+01 -0.1475240E+02 -0.1027320E+00  0.1335657E+00  0.1980845E+01  0.5324652E-01 -0.1224933E+00
  0.9293360E+01 -0.1390850E+02 -0.1027320E+00  0.1348091E+00  0.1974564E+01  0.5296462E-01 -0.1239687E+00
  0.1061190E+02 -0.1293060E+02 -0.1027320E+00  0.1359299E+00  0.1969197E+01  0.5273323E-01 -0.1252842E+00
  0.1182820E+02 -0.1182820E+02 -0.1027320E+00  0.1364488E+00  0.1964669E+01  0.5236461E-01 -0.1260009E+00
  0.1293060E+02 -0.1061190E+02 -0.1027320E+00  0.1363686E+00  0.1961156E+01  0.5189115E-01 -0.1261099E+00
  0.1390850E+02 -0.9293360E+01 -0.1027320E+00  0.1363445E+00  0.1957417E+01  0.5141012E-01 -0.1262808E+00
