 VARIABLES="X" "Y" "Z" "abs(eta) (m)" "angle(phi) (rad)" "PRE1" "PRE2"
ZONE N=   3200 ,E =    3136 ,F=FEPOINT,ET=QUADRILATERAL
  0.1530690E+02  0.0000000E+00  0.0000000E+00  0.2195683E-01  0.2990296E+01  0.2170600E-01 -0.3309340E-02
  0.1523320E+02  0.1500340E+01  0.0000000E+00  0.2403109E-01  0.2887100E+01  0.2325708E-01 -0.6049928E-02
  0.1501280E+02  0.2986230E+01  0.0000000E+00  0.2645063E-01  0.2804332E+01  0.2496053E-01 -0.8752599E-02
  0.1464780E+02  0.4443360E+01  0.0000000E+00  0.2915360E-01  0.2737559E+01  0.2680623E-01 -0.1146118E-01
  0.1414170E+02  0.5857700E+01  0.0000000E+00  0.3198521E-01  0.2682965E+01  0.2867988E-01 -0.1416043E-01
  0.1349950E+02  0.7215620E+01  0.0000000E+00  0.3511744E-01  0.2632884E+01  0.3067066E-01 -0.1710394E-01
  0.1272720E+02  0.8504060E+01  0.0000000E+00  0.3846864E-01  0.2590523E+01  0.3277392E-01 -0.2014215E-01
  0.1183240E+02  0.9710600E+01  0.0000000E+00  0.4202977E-01  0.2554983E+01  0.3500333E-01 -0.2326518E-01
  0.1082360E+02  0.1082360E+02  0.0000000E+00  0.4594535E-01  0.2519492E+01  0.3733777E-01 -0.2677435E-01
  0.9710590E+01  0.1183240E+02  0.0000000E+00  0.5006994E-01  0.2487951E+01  0.3974925E-01 -0.3044661E-01
  0.8504060E+01  0.1272720E+02  0.0000000E+00  0.5463958E-01  0.2461840E+01  0.4249473E-01 -0.3434649E-01
  0.7215620E+01  0.1349950E+02  0.0000000E+00  0.6016451E-01  0.2435265E+01  0.4577020E-01 -0.3904942E-01
  0.5857700E+01  0.1414170E+02  0.0000000E+00  0.6733643E-01  0.2407468E+01  0.4999172E-01 -0.4511123E-01
  0.4443360E+01  0.1464780E+02  0.0000000E+00  0.7622043E-01  0.2383029E+01  0.5532266E-01 -0.5243050E-01
  0.2986230E+01  0.1501280E+02  0.0000000E+00  0.9275641E-01  0.2348756E+01  0.6509899E-01 -0.6607476E-01
  0.1500340E+01  0.1523320E+02  0.0000000E+00  0.1243946E+00  0.2315608E+01  0.8431876E-01 -0.9145682E-01
 -0.6690860E-06  0.1530690E+02  0.0000000E+00  0.1224826E+00  0.2335045E+01  0.8475728E-01 -0.8842053E-01
 -0.1500340E+01  0.1523320E+02  0.0000000E+00  0.9845720E-01  0.2413266E+01  0.7347757E-01 -0.6553523E-01
 -0.2986230E+01  0.1501280E+02  0.0000000E+00  0.3953004E-01  0.3122171E+01  0.3952259E-01 -0.7676953E-03
 -0.4443360E+01  0.1464780E+02  0.0000000E+00  0.3570241E-01 -0.2426265E+01  0.2695097E-01  0.2341596E-01
 -0.5857700E+01  0.1414170E+02  0.0000000E+00  0.4163155E-01 -0.2076863E+01  0.2018050E-01  0.3641336E-01
 -0.7215620E+01  0.1349950E+02  0.0000000E+00  0.4825378E-01 -0.1889202E+01  0.1510596E-01  0.4582835E-01
 -0.8504060E+01  0.1272720E+02  0.0000000E+00  0.5401086E-01 -0.1781057E+01  0.1127287E-01  0.5282136E-01
 -0.9710590E+01  0.1183240E+02  0.0000000E+00  0.5967758E-01 -0.1701630E+01  0.7785599E-02  0.5916754E-01
 -0.1082360E+02  0.1082360E+02  0.0000000E+00  0.6412342E-01 -0.1650348E+01  0.5095749E-02  0.6392062E-01
 -0.1183240E+02  0.9710590E+01  0.0000000E+00  0.6870779E-01 -0.1606682E+01  0.2465083E-02  0.6866356E-01
 -0.1272720E+02  0.8504060E+01  0.0000000E+00  0.7298499E-01 -0.1571356E+01  0.4087109E-04  0.7298497E-01
 -0.1349950E+02  0.7215620E+01  0.0000000E+00  0.7606891E-01 -0.1547569E+01 -0.1766713E-02  0.7604839E-01
 -0.1414170E+02  0.5857690E+01  0.0000000E+00  0.7863920E-01 -0.1529470E+01 -0.3248936E-02  0.7857206E-01
 -0.1464780E+02  0.4443360E+01  0.0000000E+00  0.8148619E-01 -0.1513678E+01 -0.4651817E-02  0.8135330E-01
 -0.1501280E+02  0.2986230E+01  0.0000000E+00  0.8476593E-01 -0.1499716E+01 -0.6020087E-02  0.8455189E-01
 -0.1523320E+02  0.1500340E+01  0.0000000E+00  0.8790264E-01 -0.1490141E+01 -0.7082110E-02  0.8761688E-01
 -0.1530690E+02 -0.1338170E-05  0.0000000E+00  0.9083196E-01 -0.1484923E+01 -0.7790450E-02  0.9049726E-01
 -0.1523320E+02 -0.1500340E+01  0.0000000E+00  0.9360445E-01 -0.1483664E+01 -0.8145700E-02  0.9324934E-01
 -0.1501280E+02 -0.2986230E+01  0.0000000E+00  0.9629679E-01 -0.1486224E+01 -0.8134305E-02  0.9595262E-01
 -0.1464780E+02 -0.4443360E+01  0.0000000E+00  0.9895717E-01 -0.1492277E+01 -0.7762095E-02  0.9865227E-01
 -0.1414170E+02 -0.5857700E+01  0.0000000E+00  0.1015978E+00 -0.1500050E+01 -0.7181720E-02  0.1013436E+00
 -0.1349950E+02 -0.7215620E+01  0.0000000E+00  0.1044655E+00 -0.1510421E+01 -0.6303278E-02  0.1042751E+00
 -0.1272720E+02 -0.8504060E+01  0.0000000E+00  0.1074099E+00 -0.1524052E+01 -0.5018944E-02  0.1072925E+00
 -0.1183240E+02 -0.9710600E+01  0.0000000E+00  0.1104277E+00 -0.1541517E+01 -0.3232788E-02  0.1103804E+00
 -0.1082360E+02 -0.1082360E+02  0.0000000E+00  0.1138537E+00 -0.1561368E+01 -0.1073451E-02  0.1138486E+00
 -0.9710600E+01 -0.1183240E+02  0.0000000E+00  0.1174733E+00 -0.1582716E+01  0.1400265E-02  0.1174649E+00
 -0.8504050E+01 -0.1272720E+02  0.0000000E+00  0.1213593E+00 -0.1608556E+01  0.4581406E-02  0.1212728E+00
 -0.7215620E+01 -0.1349950E+02  0.0000000E+00  0.1261351E+00 -0.1638202E+01  0.8495847E-02  0.1258487E+00
 -0.5857690E+01 -0.1414170E+02  0.0000000E+00  0.1324289E+00 -0.1674113E+01  0.1365783E-01  0.1317227E+00
 -0.4443360E+01 -0.1464780E+02  0.0000000E+00  0.1402601E+00 -0.1716327E+01  0.2034022E-01  0.1387774E+00
 -0.2986230E+01 -0.1501280E+02  0.0000000E+00  0.1552667E+00 -0.1777865E+01  0.3192158E-01  0.1519498E+00
 -0.1500340E+01 -0.1523320E+02  0.0000000E+00  0.1848922E+00 -0.1875985E+01  0.5555514E-01  0.1763484E+00
  0.1825330E-06 -0.1530690E+02  0.0000000E+00  0.1833205E+00 -0.1906586E+01  0.6040689E-01  0.1730821E+00
  0.1500340E+01 -0.1523320E+02  0.0000000E+00  0.1599434E+00 -0.1918322E+01  0.5447227E-01  0.1503817E+00
  0.2986230E+01 -0.1501280E+02  0.0000000E+00  0.9123371E-01 -0.1892737E+01  0.2886707E-01  0.8654641E-01
  0.4443360E+01 -0.1464780E+02  0.0000000E+00  0.6604916E-01 -0.1885214E+01  0.2042654E-01  0.6281121E-01
  0.5857700E+01 -0.1414170E+02  0.0000000E+00  0.5287958E-01 -0.1898837E+01  0.1703722E-01  0.5005980E-01
  0.7215620E+01 -0.1349950E+02  0.0000000E+00  0.4352155E-01 -0.1925052E+01  0.1509730E-01  0.4081908E-01
  0.8504060E+01 -0.1272720E+02  0.0000000E+00  0.3682833E-01 -0.1969198E+01  0.1428740E-01  0.3394401E-01
  0.9710600E+01 -0.1183240E+02  0.0000000E+00  0.3096788E-01 -0.2035208E+01  0.1387042E-01  0.2768792E-01
  0.1082360E+02 -0.1082360E+02  0.0000000E+00  0.2696707E-01 -0.2120524E+01  0.1408908E-01  0.2299393E-01
  0.1183240E+02 -0.9710590E+01  0.0000000E+00  0.2327544E-01 -0.2236984E+01  0.1438407E-01  0.1829876E-01
  0.1272720E+02 -0.8504060E+01  0.0000000E+00  0.2043269E-01 -0.2385311E+01  0.1486259E-01  0.1402135E-01
  0.1349950E+02 -0.7215620E+01  0.0000000E+00  0.1922202E-01 -0.2533040E+01  0.1577121E-01  0.1098885E-01
  0.1414170E+02 -0.5857700E+01  0.0000000E+00  0.1889068E-01 -0.2675279E+01  0.1687375E-01  0.8493192E-02
  0.1464780E+02 -0.4443350E+01  0.0000000E+00  0.1889556E-01 -0.2832750E+01  0.1800154E-01  0.5743433E-02
  0.1501280E+02 -0.2986230E+01  0.0000000E+00  0.1925288E-01 -0.3006971E+01  0.1907868E-01  0.2584031E-02
  0.1523320E+02 -0.1500330E+01  0.0000000E+00  0.2031147E-01  0.3119437E+01  0.2030648E-01 -0.4499732E-03
  0.1530690E+02  0.0000000E+00 -0.2568960E-01  0.2194018E-01  0.2990163E+01  0.2168910E-01 -0.3309702E-02
  0.1523320E+02  0.1500340E+01 -0.2568960E-01  0.2401279E-01  0.2887009E+01  0.2323882E-01 -0.6047437E-02
  0.1501280E+02  0.2986230E+01 -0.2568960E-01  0.2642995E-01  0.2804278E+01  0.2494054E-01 -0.8747110E-02
  0.1464780E+02  0.4443360E+01 -0.2568960E-01  0.2912972E-01  0.2737524E+01  0.2678387E-01 -0.1145272E-01
  0.1414170E+02  0.5857700E+01 -0.2568960E-01  0.3195864E-01  0.2682951E+01  0.2865586E-01 -0.1414907E-01
  0.1349950E+02  0.7215620E+01 -0.2568960E-01  0.3508709E-01  0.2632901E+01  0.3064444E-01 -0.1708865E-01
  0.1272720E+02  0.8504060E+01 -0.2568960E-01  0.3843512E-01  0.2590551E+01  0.3274594E-01 -0.2012367E-01
  0.1183240E+02  0.9710600E+01 -0.2568960E-01  0.4199325E-01  0.2554988E+01  0.3497303E-01 -0.2324479E-01
  0.1082360E+02  0.1082360E+02 -0.2568960E-01  0.4590504E-01  0.2519505E+01  0.3730536E-01 -0.2675039E-01
  0.9710590E+01  0.1183240E+02 -0.2568960E-01  0.5002705E-01  0.2487973E+01  0.3971588E-01 -0.3041963E-01
  0.8504060E+01  0.1272720E+02 -0.2568960E-01  0.5459447E-01  0.2461845E+01  0.4245985E-01 -0.3431789E-01
  0.7215620E+01  0.1349950E+02 -0.2568960E-01  0.6011616E-01  0.2435264E+01  0.4573337E-01 -0.3901810E-01
  0.5857700E+01  0.1414170E+02 -0.2568960E-01  0.6727850E-01  0.2407496E+01  0.4995001E-01 -0.4507098E-01
  0.4443360E+01  0.1464780E+02 -0.2568960E-01  0.7616290E-01  0.2383016E+01  0.5528025E-01 -0.5239161E-01
  0.2986230E+01  0.1501280E+02 -0.2568960E-01  0.9269242E-01  0.2348736E+01  0.6505277E-01 -0.6603047E-01
  0.1500340E+01  0.1523320E+02 -0.2568960E-01  0.1243386E+00  0.2315538E+01  0.8427450E-01 -0.9142155E-01
 -0.6690860E-06  0.1530690E+02 -0.2568960E-01  0.1223963E+00  0.2335025E+01  0.8469583E-01 -0.8835988E-01
 -0.1500340E+01  0.1523320E+02 -0.2568960E-01  0.9842009E-01  0.2413138E+01  0.7344146E-01 -0.6551997E-01
 -0.2986230E+01  0.1501280E+02 -0.2568960E-01  0.3950329E-01  0.3122020E+01  0.3949573E-01 -0.7731350E-03
 -0.4443360E+01  0.1464780E+02 -0.2568960E-01  0.3567415E-01 -0.2426308E+01  0.2693065E-01  0.2339626E-01
 -0.5857700E+01  0.1414170E+02 -0.2568960E-01  0.4159765E-01 -0.2076872E+01  0.2016438E-01  0.3638354E-01
 -0.7215620E+01  0.1349950E+02 -0.2568960E-01  0.4821372E-01 -0.1889235E+01  0.1509494E-01  0.4578979E-01
 -0.8504060E+01  0.1272720E+02 -0.2568960E-01  0.5396748E-01 -0.1781063E+01  0.1126415E-01  0.5277886E-01
 -0.9710590E+01  0.1183240E+02 -0.2568960E-01  0.5962333E-01 -0.1701678E+01  0.7781329E-02  0.5911338E-01
 -0.1082360E+02  0.1082360E+02 -0.2568960E-01  0.6406894E-01 -0.1650348E+01  0.5091395E-02  0.6386632E-01
 -0.1183240E+02  0.9710590E+01 -0.2568960E-01  0.6864677E-01 -0.1606693E+01  0.2463648E-02  0.6860255E-01
 -0.1272720E+02  0.8504060E+01 -0.2568960E-01  0.7291543E-01 -0.1571398E+01  0.4384633E-04  0.7291541E-01
 -0.1349950E+02  0.7215620E+01 -0.2568960E-01  0.7599899E-01 -0.1547596E+01 -0.1763066E-02  0.7597854E-01
 -0.1414170E+02  0.5857690E+01 -0.2568960E-01  0.7857181E-01 -0.1529478E+01 -0.3245566E-02  0.7850475E-01
 -0.1464780E+02  0.4443360E+01 -0.2568960E-01  0.8141836E-01 -0.1513685E+01 -0.4647418E-02  0.8128561E-01
 -0.1501280E+02  0.2986230E+01 -0.2568960E-01  0.8469403E-01 -0.1499735E+01 -0.6013420E-02  0.8448028E-01
 -0.1523320E+02  0.1500340E+01 -0.2568960E-01  0.8782664E-01 -0.1490163E+01 -0.7074111E-02  0.8754128E-01
 -0.1530690E+02 -0.1338170E-05 -0.2568960E-01  0.9075253E-01 -0.1484951E+01 -0.7781087E-02  0.9041834E-01
 -0.1523320E+02 -0.1500340E+01 -0.2568960E-01  0.9352206E-01 -0.1483689E+01 -0.8136178E-02  0.9316748E-01
 -0.1501280E+02 -0.2986230E+01 -0.2568960E-01  0.9621151E-01 -0.1486247E+01 -0.8124962E-02  0.9586782E-01
 -0.1464780E+02 -0.4443360E+01 -0.2568960E-01  0.9886910E-01 -0.1492295E+01 -0.7753362E-02  0.9856462E-01
 -0.1414170E+02 -0.5857700E+01 -0.2568960E-01  0.1015071E+00 -0.1500066E+01 -0.7173648E-02  0.1012533E+00
 -0.1349950E+02 -0.7215620E+01 -0.2568960E-01  0.1043707E+00 -0.1510440E+01 -0.6295634E-02  0.1041806E+00
 -0.1272720E+02 -0.8504060E+01 -0.2568960E-01  0.1073120E+00 -0.1524076E+01 -0.5011872E-02  0.1071949E+00
 -0.1183240E+02 -0.9710600E+01 -0.2568960E-01  0.1103280E+00 -0.1541534E+01 -0.3227975E-02  0.1102808E+00
 -0.1082360E+02 -0.1082360E+02 -0.2568960E-01  0.1137506E+00 -0.1561383E+01 -0.1070753E-02  0.1137455E+00
 -0.9710600E+01 -0.1183240E+02 -0.2568960E-01  0.1173671E+00 -0.1582741E+01  0.1401911E-02  0.1173588E+00
 -0.8504050E+01 -0.1272720E+02 -0.2568960E-01  0.1212519E+00 -0.1608580E+01  0.4580298E-02  0.1211653E+00
 -0.7215620E+01 -0.1349950E+02 -0.2568960E-01  0.1260246E+00 -0.1638232E+01  0.8492145E-02  0.1257382E+00
 -0.5857690E+01 -0.1414170E+02 -0.2568960E-01  0.1323096E+00 -0.1674142E+01  0.1364928E-01  0.1316037E+00
 -0.4443360E+01 -0.1464780E+02 -0.2568960E-01  0.1401426E+00 -0.1716368E+01  0.2032884E-01  0.1386603E+00
 -0.2986230E+01 -0.1501280E+02 -0.2568960E-01  0.1551427E+00 -0.1777921E+01  0.3190456E-01  0.1518267E+00
 -0.1500340E+01 -0.1523320E+02 -0.2568960E-01  0.1847777E+00 -0.1876071E+01  0.5553582E-01  0.1762344E+00
  0.1825330E-06 -0.1530690E+02 -0.2568960E-01  0.1831770E+00 -0.1906634E+01  0.6036784E-01  0.1729437E+00
  0.1500340E+01 -0.1523320E+02 -0.2568960E-01  0.1598484E+00 -0.1918403E+01  0.5445216E-01  0.1502879E+00
  0.2986230E+01 -0.1501280E+02 -0.2568960E-01  0.9115935E-01 -0.1892818E+01  0.2885059E-01  0.8647352E-01
  0.4443360E+01 -0.1464780E+02 -0.2568960E-01  0.6598896E-01 -0.1885297E+01  0.2041314E-01  0.6275226E-01
  0.5857700E+01 -0.1414170E+02 -0.2568960E-01  0.5282918E-01 -0.1898911E+01  0.1702470E-01  0.5001082E-01
  0.7215620E+01 -0.1349950E+02 -0.2568960E-01  0.4348018E-01 -0.1925150E+01  0.1508692E-01  0.4077881E-01
  0.8504060E+01 -0.1272720E+02 -0.2568960E-01  0.3679084E-01 -0.1969304E+01  0.1427645E-01  0.3390795E-01
  0.9710600E+01 -0.1183240E+02 -0.2568960E-01  0.3094120E-01 -0.2035283E+01  0.1386053E-01  0.2766304E-01
  0.1082360E+02 -0.1082360E+02 -0.2568960E-01  0.2693999E-01 -0.2120639E+01  0.1407759E-01  0.2296921E-01
  0.1183240E+02 -0.9710590E+01 -0.2568960E-01  0.2325408E-01 -0.2237051E+01  0.1437209E-01  0.1828101E-01
  0.1272720E+02 -0.8504060E+01 -0.2568960E-01  0.2041835E-01 -0.2385280E+01  0.1485172E-01  0.1401198E-01
  0.1349950E+02 -0.7215620E+01 -0.2568960E-01  0.1920673E-01 -0.2533062E+01  0.1575890E-01  0.1097977E-01
  0.1414170E+02 -0.5857700E+01 -0.2568960E-01  0.1887260E-01 -0.2675501E+01  0.1685949E-01  0.8481316E-02
  0.1464780E+02 -0.4443350E+01 -0.2568960E-01  0.1887736E-01 -0.2833071E+01  0.1798604E-01  0.5732108E-02
  0.1501280E+02 -0.2986230E+01 -0.2568960E-01  0.1923620E-01 -0.3007248E+01  0.1906287E-01  0.2576517E-02
  0.1523320E+02 -0.1500330E+01 -0.2568960E-01  0.2029557E-01  0.3119242E+01  0.2029050E-01 -0.4535840E-03
  0.1530690E+02  0.0000000E+00 -0.1027320E+00  0.2188946E-01  0.2989611E+01  0.2163715E-01 -0.3313996E-02
  0.1523320E+02  0.1500340E+01 -0.1027320E+00  0.2395777E-01  0.2886590E+01  0.2318304E-01 -0.6043301E-02
  0.1501280E+02  0.2986230E+01 -0.1027320E+00  0.2636802E-01  0.2803960E+01  0.2487932E-01 -0.8734525E-02
  0.1464780E+02  0.4443360E+01 -0.1027320E+00  0.2905946E-01  0.2737290E+01  0.2671660E-01 -0.1143134E-01
  0.1414170E+02  0.5857700E+01 -0.1027320E+00  0.3188074E-01  0.2682770E+01  0.2858345E-01 -0.1411976E-01
  0.1349950E+02  0.7215620E+01 -0.1027320E+00  0.3499827E-01  0.2632843E+01  0.3056589E-01 -0.1704715E-01
  0.1272720E+02  0.8504060E+01 -0.1027320E+00  0.3833645E-01  0.2590526E+01  0.3266137E-01 -0.2007283E-01
  0.1183240E+02  0.9710600E+01 -0.1027320E+00  0.4188566E-01  0.2554920E+01  0.3488183E-01 -0.2318762E-01
  0.1082360E+02  0.1082360E+02 -0.1027320E+00  0.4578653E-01  0.2519469E+01  0.3720809E-01 -0.2668267E-01
  0.9710590E+01  0.1183240E+02 -0.1027320E+00  0.4990069E-01  0.2487978E+01  0.3961570E-01 -0.3034264E-01
  0.8504060E+01  0.1272720E+02 -0.1027320E+00  0.5446080E-01  0.2461802E+01  0.4235439E-01 -0.3423572E-01
  0.7215620E+01  0.1349950E+02 -0.1027320E+00  0.5997181E-01  0.2435242E+01  0.4562268E-01 -0.3892544E-01
  0.5857700E+01  0.1414170E+02 -0.1027320E+00  0.6710796E-01  0.2407532E+01  0.4982500E-01 -0.4495495E-01
  0.4443360E+01  0.1464780E+02 -0.1027320E+00  0.7599132E-01  0.2382965E+01  0.5515302E-01 -0.5227643E-01
  0.2986230E+01  0.1501280E+02 -0.1027320E+00  0.9249347E-01  0.2348688E+01  0.6490995E-01 -0.6589188E-01
  0.1500340E+01  0.1523320E+02 -0.1027320E+00  0.1240727E+00  0.2315472E+01  0.8408822E-01 -0.9123156E-01
 -0.6690860E-06  0.1530690E+02 -0.1027320E+00  0.1221287E+00  0.2334989E+01  0.8450744E-01 -0.8816976E-01
 -0.1500340E+01  0.1523320E+02 -0.1027320E+00  0.9818134E-01  0.2413190E+01  0.7326672E-01 -0.6535719E-01
 -0.2986230E+01  0.1501280E+02 -0.1027320E+00  0.3942140E-01  0.3121498E+01  0.3941344E-01 -0.7920969E-03
 -0.4443360E+01  0.1464780E+02 -0.1027320E+00  0.3558925E-01 -0.2426351E+01  0.2686757E-01  0.2333943E-01
 -0.5857700E+01  0.1414170E+02 -0.1027320E+00  0.4149451E-01 -0.2076917E+01  0.2011603E-01  0.3629242E-01
 -0.7215620E+01  0.1349950E+02 -0.1027320E+00  0.4808598E-01 -0.1889433E+01  0.1506402E-01  0.4566549E-01
 -0.8504060E+01  0.1272720E+02 -0.1027320E+00  0.5383574E-01 -0.1781024E+01  0.1123457E-01  0.5265046E-01
 -0.9710590E+01  0.1183240E+02 -0.1027320E+00  0.5946058E-01 -0.1701810E+01  0.7767892E-02  0.5895101E-01
 -0.1082360E+02  0.1082360E+02 -0.1027320E+00  0.6390629E-01 -0.1650339E+01  0.5077914E-02  0.6370423E-01
 -0.1183240E+02  0.9710590E+01 -0.1027320E+00  0.6846484E-01 -0.1606723E+01  0.2459166E-02  0.6842066E-01
 -0.1272720E+02  0.8504060E+01 -0.1027320E+00  0.7270861E-01 -0.1571502E+01  0.5131142E-04  0.7270860E-01
 -0.1349950E+02  0.7215620E+01 -0.1027320E+00  0.7579173E-01 -0.1547663E+01 -0.1753153E-02  0.7577145E-01
 -0.1414170E+02  0.5857690E+01 -0.1027320E+00  0.7837284E-01 -0.1529483E+01 -0.3236939E-02  0.7830597E-01
 -0.1464780E+02  0.4443360E+01 -0.1027320E+00  0.8121879E-01 -0.1513680E+01 -0.4636383E-02  0.8108635E-01
 -0.1501280E+02  0.2986230E+01 -0.1027320E+00  0.8448216E-01 -0.1499761E+01 -0.5996133E-02  0.8426910E-01
 -0.1523320E+02  0.1500340E+01 -0.1027320E+00  0.8760276E-01 -0.1490215E+01 -0.7051473E-02  0.8731849E-01
 -0.1530690E+02 -0.1338170E-05 -0.1027320E+00  0.9051871E-01 -0.1485016E+01 -0.7755220E-02  0.9018589E-01
 -0.1523320E+02 -0.1500340E+01 -0.1027320E+00  0.9327965E-01 -0.1483755E+01 -0.8108916E-02  0.9292652E-01
 -0.1501280E+02 -0.2986230E+01 -0.1027320E+00  0.9596099E-01 -0.1486303E+01 -0.8098423E-02  0.9561866E-01
 -0.1464780E+02 -0.4443360E+01 -0.1027320E+00  0.9861017E-01 -0.1492334E+01 -0.7729195E-02  0.9830679E-01
 -0.1414170E+02 -0.5857700E+01 -0.1027320E+00  0.1012400E+00 -0.1500111E+01 -0.7150250E-02  0.1009872E+00
 -0.1349950E+02 -0.7215620E+01 -0.1027320E+00  0.1040916E+00 -0.1510492E+01 -0.6273413E-02  0.1039024E+00
 -0.1272720E+02 -0.8504060E+01 -0.1027320E+00  0.1070238E+00 -0.1524127E+01 -0.4992954E-02  0.1069073E+00
 -0.1183240E+02 -0.9710600E+01 -0.1027320E+00  0.1100340E+00 -0.1541568E+01 -0.3215638E-02  0.1099870E+00
 -0.1082360E+02 -0.1082360E+02 -0.1027320E+00  0.1134461E+00 -0.1561411E+01 -0.1064683E-02  0.1134411E+00
 -0.9710600E+01 -0.1183240E+02 -0.1027320E+00  0.1170536E+00 -0.1582810E+01  0.1406189E-02  0.1170452E+00
 -0.8504050E+01 -0.1272720E+02 -0.1027320E+00  0.1209333E+00 -0.1608643E+01  0.4575844E-02  0.1208467E+00
 -0.7215620E+01 -0.1349950E+02 -0.1027320E+00  0.1256957E+00 -0.1638327E+01  0.8481805E-02  0.1254092E+00
 -0.5857690E+01 -0.1414170E+02 -0.1027320E+00  0.1319568E+00 -0.1674215E+01  0.1362249E-01  0.1312517E+00
 -0.4443360E+01 -0.1464780E+02 -0.1027320E+00  0.1397903E+00 -0.1716480E+01  0.2029324E-01  0.1383095E+00
 -0.2986230E+01 -0.1501280E+02 -0.1027320E+00  0.1547658E+00 -0.1778065E+01  0.3184892E-01  0.1514533E+00
 -0.1500340E+01 -0.1523320E+02 -0.1027320E+00  0.1843409E+00 -0.1876168E+01  0.5542175E-01  0.1758124E+00
  0.1825330E-06 -0.1530690E+02 -0.1027320E+00  0.1827381E+00 -0.1906756E+01  0.6024432E-01  0.1725220E+00
  0.1500340E+01 -0.1523320E+02 -0.1027320E+00  0.1594366E+00 -0.1918548E+01  0.5433354E-01  0.1498930E+00
  0.2986230E+01 -0.1501280E+02 -0.1027320E+00  0.9093842E-01 -0.1893031E+01  0.2879902E-01  0.8625783E-01
  0.4443360E+01 -0.1464780E+02 -0.1027320E+00  0.6580660E-01 -0.1885535E+01  0.2037162E-01  0.6257400E-01
  0.5857700E+01 -0.1414170E+02 -0.1027320E+00  0.5268043E-01 -0.1899117E+01  0.1698701E-01  0.4986651E-01
  0.7215620E+01 -0.1349950E+02 -0.1027320E+00  0.4336560E-01 -0.1925421E+01  0.1505821E-01  0.4066726E-01
  0.8504060E+01 -0.1272720E+02 -0.1027320E+00  0.3667810E-01 -0.1969586E+01  0.1424222E-01  0.3380003E-01
  0.9710600E+01 -0.1183240E+02 -0.1027320E+00  0.3086200E-01 -0.2035501E+01  0.1383108E-01  0.2758921E-01
  0.1082360E+02 -0.1082360E+02 -0.1027320E+00  0.2685791E-01 -0.2120924E+01  0.1404120E-01  0.2289524E-01
  0.1183240E+02 -0.9710590E+01 -0.1027320E+00  0.2318913E-01 -0.2237290E+01  0.1433630E-01  0.1822653E-01
  0.1272720E+02 -0.8504060E+01 -0.1027320E+00  0.2037333E-01 -0.2385220E+01  0.1481814E-01  0.1398197E-01
