 VARIABLES="X" "Y" "Z" "abs(eta) (m)" "angle(phi) (rad)" "PRE1" "PRE2"
ZONE N=   3200 ,E =    3136 ,F=FEPOINT,ET=QUADRILATERAL
  0.1530690E+02  0.0000000E+00  0.0000000E+00  0.3290303E+00 -0.1356038E+01 -0.7012001E-01  0.3214718E+00
  0.1523320E+02  0.1500340E+01  0.0000000E+00  0.3274775E+00 -0.1353701E+01 -0.7053676E-01  0.3197907E+00
  0.1501280E+02  0.2986230E+01  0.0000000E+00  0.3251039E+00 -0.1352983E+01 -0.7025333E-01  0.3174225E+00
  0.1464780E+02  0.4443360E+01  0.0000000E+00  0.3222036E+00 -0.1353909E+01 -0.6933516E-01  0.3146551E+00
  0.1414170E+02  0.5857700E+01  0.0000000E+00  0.3205528E+00 -0.1356729E+01 -0.6809703E-01  0.3132361E+00
  0.1349950E+02  0.7215620E+01  0.0000000E+00  0.3203474E+00 -0.1361232E+01 -0.6664310E-01  0.3133387E+00
  0.1272720E+02  0.8504060E+01  0.0000000E+00  0.3186253E+00 -0.1366941E+01 -0.6450439E-01  0.3120277E+00
  0.1183240E+02  0.9710600E+01  0.0000000E+00  0.3129600E+00 -0.1374038E+01 -0.6118082E-01  0.3069216E+00
  0.1082360E+02  0.1082360E+02  0.0000000E+00  0.3069608E+00 -0.1382805E+01 -0.5736671E-01  0.3015526E+00
  0.9710590E+01  0.1183240E+02  0.0000000E+00  0.3014297E+00 -0.1393127E+01 -0.5327339E-01  0.2966847E+00
  0.8504060E+01  0.1272720E+02  0.0000000E+00  0.2913346E+00 -0.1405180E+01 -0.4802948E-01  0.2873483E+00
  0.7215620E+01  0.1349950E+02  0.0000000E+00  0.2815196E+00 -0.1418095E+01 -0.4282147E-01  0.2782438E+00
  0.5857700E+01  0.1414170E+02  0.0000000E+00  0.2676328E+00 -0.1433123E+01 -0.3672955E-01  0.2651005E+00
  0.4443360E+01  0.1464780E+02  0.0000000E+00  0.2457122E+00 -0.1452040E+01 -0.2911139E-01  0.2439816E+00
  0.2986230E+01  0.1501280E+02  0.0000000E+00  0.2048641E+00 -0.1481054E+01 -0.1836021E-01  0.2040397E+00
  0.1500340E+01  0.1523320E+02  0.0000000E+00  0.6391861E-01 -0.1785391E+01  0.1361155E-01  0.6245250E-01
 -0.6690860E-06  0.1530690E+02  0.0000000E+00  0.4212612E-01  0.2617486E+01  0.3647159E-01 -0.2108159E-01
 -0.1500340E+01  0.1523320E+02  0.0000000E+00  0.1106321E+00  0.2127396E+01  0.5844719E-01 -0.9393291E-01
 -0.2986230E+01  0.1501280E+02  0.0000000E+00  0.2060877E+00  0.2003031E+01  0.8633030E-01 -0.1871342E+00
 -0.4443360E+01  0.1464780E+02  0.0000000E+00  0.2271456E+00  0.1989962E+01  0.9244785E-01 -0.2074813E+00
 -0.5857700E+01  0.1414170E+02  0.0000000E+00  0.2386148E+00  0.1985789E+01  0.9620557E-01 -0.2183609E+00
 -0.7215620E+01  0.1349950E+02  0.0000000E+00  0.2446577E+00  0.1986915E+01  0.9889381E-01 -0.2237798E+00
 -0.8504060E+01  0.1272720E+02  0.0000000E+00  0.2485901E+00  0.1989276E+01  0.1010200E+00 -0.2271388E+00
 -0.9710590E+01  0.1183240E+02  0.0000000E+00  0.2535096E+00  0.1990796E+01  0.1033712E+00 -0.2314769E+00
 -0.1082360E+02  0.1082360E+02  0.0000000E+00  0.2548381E+00  0.1994526E+01  0.1047801E+00 -0.2323007E+00
 -0.1183240E+02  0.9710590E+01  0.0000000E+00  0.2566658E+00  0.1997258E+01  0.1061702E+00 -0.2336776E+00
 -0.1272720E+02  0.8504060E+01  0.0000000E+00  0.2585230E+00  0.1998854E+01  0.1073140E+00 -0.2351974E+00
 -0.1349950E+02  0.7215620E+01  0.0000000E+00  0.2571546E+00  0.2001776E+01  0.1074292E+00 -0.2336395E+00
 -0.1414170E+02  0.5857690E+01  0.0000000E+00  0.2545820E+00  0.2004505E+01  0.1069854E+00 -0.2310111E+00
 -0.1464780E+02  0.4443360E+01  0.0000000E+00  0.2533575E+00  0.2004536E+01  0.1064779E+00 -0.2298967E+00
 -0.1501280E+02  0.2986230E+01  0.0000000E+00  0.2530973E+00  0.2002285E+01  0.1058511E+00 -0.2298995E+00
 -0.1523320E+02  0.1500340E+01  0.0000000E+00  0.2523771E+00  0.1999093E+01  0.1048176E+00 -0.2295810E+00
 -0.1530690E+02 -0.1338170E-05  0.0000000E+00  0.2509148E+00  0.1995150E+01  0.1033095E+00 -0.2286600E+00
 -0.1523320E+02 -0.1500340E+01  0.0000000E+00  0.2486156E+00  0.1990592E+01  0.1013292E+00 -0.2270288E+00
 -0.1501280E+02 -0.2986230E+01  0.0000000E+00  0.2455195E+00  0.1985356E+01  0.9889214E-01 -0.2247225E+00
 -0.1464780E+02 -0.4443360E+01  0.0000000E+00  0.2418958E+00  0.1978921E+01  0.9600570E-01 -0.2220282E+00
 -0.1414170E+02 -0.5857700E+01  0.0000000E+00  0.2393524E+00  0.1968415E+01  0.9268290E-01 -0.2206796E+00
 -0.1349950E+02 -0.7215620E+01  0.0000000E+00  0.2380744E+00  0.1953533E+01  0.8891136E-01 -0.2208488E+00
 -0.1272720E+02 -0.8504060E+01  0.0000000E+00  0.2353501E+00  0.1938573E+01  0.8461824E-01 -0.2196120E+00
 -0.1183240E+02 -0.9710600E+01  0.0000000E+00  0.2289883E+00  0.1927207E+01  0.7989688E-01 -0.2145976E+00
 -0.1082360E+02 -0.1082360E+02  0.0000000E+00  0.2223222E+00  0.1914293E+01  0.7487412E-01 -0.2093348E+00
 -0.9710600E+01 -0.1183240E+02  0.0000000E+00  0.2160800E+00  0.1898475E+01  0.6954458E-01 -0.2045828E+00
 -0.8504050E+01 -0.1272720E+02  0.0000000E+00  0.2055531E+00  0.1886606E+01  0.6384195E-01 -0.1953875E+00
 -0.7215620E+01 -0.1349950E+02  0.0000000E+00  0.1951723E+00  0.1870966E+01  0.5770891E-01 -0.1864454E+00
 -0.5857690E+01 -0.1414170E+02  0.0000000E+00  0.1809362E+00  0.1858187E+01  0.5128656E-01 -0.1735154E+00
 -0.4443360E+01 -0.1464780E+02  0.0000000E+00  0.1590281E+00  0.1854386E+01  0.4449666E-01 -0.1526760E+00
 -0.2986230E+01 -0.1501280E+02  0.0000000E+00  0.1191911E+00  0.1888519E+01  0.3723575E-01 -0.1132255E+00
 -0.1500340E+01 -0.1523320E+02  0.0000000E+00  0.4114104E-01 -0.2414173E+01  0.3072795E-01  0.2735651E-01
  0.1825330E-06 -0.1530690E+02  0.0000000E+00  0.1134333E+00 -0.1790078E+01  0.2467499E-01  0.1107170E+00
  0.1500340E+01 -0.1523320E+02  0.0000000E+00  0.1847609E+00 -0.1669400E+01  0.1818858E-01  0.1838634E+00
  0.2986230E+01 -0.1501280E+02  0.0000000E+00  0.2783664E+00 -0.1604929E+01  0.9499442E-02  0.2782042E+00
  0.4443360E+01 -0.1464780E+02  0.0000000E+00  0.2991102E+00 -0.1566548E+01 -0.1270769E-02  0.2991075E+00
  0.5857700E+01 -0.1414170E+02  0.0000000E+00  0.3105094E+00 -0.1535572E+01 -0.1093528E-01  0.3103168E+00
  0.7215620E+01 -0.1349950E+02  0.0000000E+00  0.3165975E+00 -0.1508532E+01 -0.1970003E-01  0.3159840E+00
  0.8504060E+01 -0.1272720E+02  0.0000000E+00  0.3207327E+00 -0.1484140E+01 -0.2775882E-01  0.3195292E+00
  0.9710600E+01 -0.1183240E+02  0.0000000E+00  0.3259076E+00 -0.1462954E+01 -0.3507848E-01  0.3240143E+00
  0.1082360E+02 -0.1082360E+02  0.0000000E+00  0.3276119E+00 -0.1443120E+01 -0.4171460E-01  0.3249453E+00
  0.1183240E+02 -0.9710590E+01  0.0000000E+00  0.3298719E+00 -0.1425804E+01 -0.4766136E-01  0.3264106E+00
  0.1272720E+02 -0.8504060E+01  0.0000000E+00  0.3322438E+00 -0.1410776E+01 -0.5293925E-01  0.3279991E+00
  0.1349950E+02 -0.7215620E+01  0.0000000E+00  0.3315193E+00 -0.1396333E+01 -0.5754504E-01  0.3264868E+00
  0.1414170E+02 -0.5857700E+01  0.0000000E+00  0.3296554E+00 -0.1383386E+01 -0.6141996E-01  0.3238831E+00
  0.1464780E+02 -0.4443350E+01  0.0000000E+00  0.3291827E+00 -0.1373167E+01 -0.6463354E-01  0.3227750E+00
  0.1501280E+02 -0.2986230E+01  0.0000000E+00  0.3296850E+00 -0.1365623E+01 -0.6716885E-01  0.3227701E+00
  0.1523320E+02 -0.1500330E+01  0.0000000E+00  0.3297284E+00 -0.1359993E+01 -0.6899434E-01  0.3224292E+00
  0.1530690E+02  0.0000000E+00 -0.2568960E-01  0.3287498E+00 -0.1356051E+01 -0.7005602E-01  0.3211987E+00
  0.1523320E+02  0.1500340E+01 -0.2568960E-01  0.3271992E+00 -0.1353714E+01 -0.7047258E-01  0.3195198E+00
  0.1501280E+02  0.2986230E+01 -0.2568960E-01  0.3248308E+00 -0.1352995E+01 -0.7019069E-01  0.3171566E+00
  0.1464780E+02  0.4443360E+01 -0.2568960E-01  0.3219361E+00 -0.1353920E+01 -0.6927418E-01  0.3143946E+00
  0.1414170E+02  0.5857700E+01 -0.2568960E-01  0.3202792E+00 -0.1356738E+01 -0.6803608E-01  0.3129694E+00
  0.1349950E+02  0.7215620E+01 -0.2568960E-01  0.3200539E+00 -0.1361236E+01 -0.6658079E-01  0.3130519E+00
  0.1272720E+02  0.8504060E+01 -0.2568960E-01  0.3183254E+00 -0.1366952E+01 -0.6444048E-01  0.3117346E+00
  0.1183240E+02  0.9710600E+01 -0.2568960E-01  0.3126822E+00 -0.1374055E+01 -0.6112138E-01  0.3066501E+00
  0.1082360E+02  0.1082360E+02 -0.2568960E-01  0.3066946E+00 -0.1382814E+01 -0.5731434E-01  0.3012916E+00
  0.9710590E+01  0.1183240E+02 -0.2568960E-01  0.3011562E+00 -0.1393134E+01 -0.5322316E-01  0.2964158E+00
  0.8504060E+01  0.1272720E+02 -0.2568960E-01  0.2910941E+00 -0.1405185E+01 -0.4798840E-01  0.2871113E+00
  0.7215620E+01  0.1349950E+02 -0.2568960E-01  0.2812844E+00 -0.1418106E+01 -0.4278261E-01  0.2780118E+00
  0.5857700E+01  0.1414170E+02 -0.2568960E-01  0.2674021E+00 -0.1433141E+01 -0.3669324E-01  0.2648726E+00
  0.4443360E+01  0.1464780E+02 -0.2568960E-01  0.2455197E+00 -0.1452040E+01 -0.2908842E-01  0.2437905E+00
  0.2986230E+01  0.1501280E+02 -0.2568960E-01  0.2047001E+00 -0.1481053E+01 -0.1834574E-01  0.2038763E+00
  0.1500340E+01  0.1523320E+02 -0.2568960E-01  0.6384716E-01 -0.1785470E+01  0.1360129E-01  0.6238161E-01
 -0.6690860E-06  0.1530690E+02 -0.2568960E-01  0.4209819E-01  0.2617356E+01  0.3644467E-01 -0.2107235E-01
 -0.1500340E+01  0.1523320E+02 -0.2568960E-01  0.1105686E+00  0.2127313E+01  0.5840581E-01 -0.9388381E-01
 -0.2986230E+01  0.1501280E+02 -0.2568960E-01  0.2059368E+00  0.2003015E+01  0.8626416E-01 -0.1869985E+00
 -0.4443360E+01  0.1464780E+02 -0.2568960E-01  0.2269754E+00  0.1989955E+01  0.9237719E-01 -0.2073265E+00
 -0.5857700E+01  0.1414170E+02 -0.2568960E-01  0.2384105E+00  0.1985790E+01  0.9612338E-01 -0.2181739E+00
 -0.7215620E+01  0.1349950E+02 -0.2568960E-01  0.2444574E+00  0.1986902E+01  0.9881015E-01 -0.2235978E+00
 -0.8504060E+01  0.1272720E+02 -0.2568960E-01  0.2483892E+00  0.1989265E+01  0.1009358E+00 -0.2269564E+00
 -0.9710590E+01  0.1183240E+02 -0.2568960E-01  0.2532820E+00  0.1990807E+01  0.1032809E+00 -0.2312679E+00
 -0.1082360E+02  0.1082360E+02 -0.2568960E-01  0.2546185E+00  0.1994523E+01  0.1046890E+00 -0.2321008E+00
 -0.1183240E+02  0.9710590E+01 -0.2568960E-01  0.2564393E+00  0.1997262E+01  0.1060775E+00 -0.2334709E+00
 -0.1272720E+02  0.8504060E+01 -0.2568960E-01  0.2582797E+00  0.1998870E+01  0.1072167E+00 -0.2349744E+00
 -0.1349950E+02  0.7215620E+01 -0.2568960E-01  0.2569208E+00  0.2001783E+01  0.1073332E+00 -0.2334263E+00
 -0.1414170E+02  0.5857690E+01 -0.2568960E-01  0.2543679E+00  0.2004499E+01  0.1068938E+00 -0.2308175E+00
 -0.1464780E+02  0.4443360E+01 -0.2568960E-01  0.2531505E+00  0.2004520E+01  0.1063872E+00 -0.2297105E+00
 -0.1501280E+02  0.2986230E+01 -0.2568960E-01  0.2528879E+00  0.2002264E+01  0.1057588E+00 -0.2297114E+00
 -0.1523320E+02  0.1500340E+01 -0.2568960E-01  0.2521664E+00  0.1999074E+01  0.1047258E+00 -0.2293914E+00
 -0.1530690E+02 -0.1338170E-05 -0.2568960E-01  0.2507058E+00  0.1995134E+01  0.1032199E+00 -0.2284711E+00
 -0.1523320E+02 -0.1500340E+01 -0.2568960E-01  0.2484088E+00  0.1990570E+01  0.1012399E+00 -0.2268422E+00
 -0.1501280E+02 -0.2986230E+01 -0.2568960E-01  0.2453187E+00  0.1985329E+01  0.9880515E-01 -0.2245413E+00
 -0.1464780E+02 -0.4443360E+01 -0.2568960E-01  0.2416990E+00  0.1978878E+01  0.9591809E-01 -0.2218516E+00
 -0.1414170E+02 -0.5857700E+01 -0.2568960E-01  0.2391506E+00  0.1968392E+01  0.9259973E-01 -0.2204956E+00
 -0.1349950E+02 -0.7215620E+01 -0.2568960E-01  0.2378568E+00  0.1953537E+01  0.8883113E-01 -0.2206466E+00
 -0.1272720E+02 -0.8504060E+01 -0.2568960E-01  0.2351258E+00  0.1938592E+01  0.8454168E-01 -0.2194011E+00
 -0.1183240E+02 -0.9710600E+01 -0.2568960E-01  0.2287873E+00  0.1927212E+01  0.7982782E-01 -0.2144088E+00
 -0.1082360E+02 -0.1082360E+02 -0.2568960E-01  0.2221328E+00  0.1914284E+01  0.7480824E-01 -0.2091572E+00
 -0.9710600E+01 -0.1183240E+02 -0.2568960E-01  0.2158851E+00  0.1898480E+01  0.6948280E-01 -0.2043980E+00
 -0.8504050E+01 -0.1272720E+02 -0.2568960E-01  0.2053912E+00  0.1886579E+01  0.6378631E-01 -0.1952353E+00
 -0.7215620E+01 -0.1349950E+02 -0.2568960E-01  0.1950155E+00  0.1870955E+01  0.5766056E-01 -0.1862963E+00
 -0.5857690E+01 -0.1414170E+02 -0.2568960E-01  0.1807861E+00  0.1858195E+01  0.5124534E-01 -0.1733711E+00
 -0.4443360E+01 -0.1464780E+02 -0.2568960E-01  0.1589146E+00  0.1854361E+01  0.4446109E-01 -0.1525682E+00
 -0.2986230E+01 -0.1501280E+02 -0.2568960E-01  0.1191065E+00  0.1888498E+01  0.3720694E-01 -0.1131460E+00
 -0.1500340E+01 -0.1523320E+02 -0.2568960E-01  0.4111687E-01 -0.2414034E+01  0.3070609E-01  0.2734470E-01
  0.1825330E-06 -0.1530690E+02 -0.2568960E-01  0.1133411E+00 -0.1790097E+01  0.2465705E-01  0.1106265E+00
  0.1500340E+01 -0.1523320E+02 -0.2568960E-01  0.1846274E+00 -0.1669424E+01  0.1817993E-01  0.1837301E+00
  0.2986230E+01 -0.1501280E+02 -0.2568960E-01  0.2781475E+00 -0.1604951E+01  0.9498147E-02  0.2779853E+00
  0.4443360E+01 -0.1464780E+02 -0.2568960E-01  0.2988710E+00 -0.1566567E+01 -0.1263947E-02  0.2988683E+00
  0.5857700E+01 -0.1414170E+02 -0.2568960E-01  0.3102385E+00 -0.1535587E+01 -0.1092095E-01  0.3100462E+00
  0.7215620E+01 -0.1349950E+02 -0.2568960E-01  0.3163310E+00 -0.1508550E+01 -0.1967771E-01  0.3157184E+00
  0.8504060E+01 -0.1272720E+02 -0.2568960E-01  0.3204638E+00 -0.1484157E+01 -0.2773003E-01  0.3192618E+00
  0.9710600E+01 -0.1183240E+02 -0.2568960E-01  0.3256121E+00 -0.1462958E+01 -0.3504553E-01  0.3237207E+00
  0.1082360E+02 -0.1082360E+02 -0.2568960E-01  0.3273257E+00 -0.1443128E+01 -0.4167562E-01  0.3246618E+00
  0.1183240E+02 -0.9710590E+01 -0.2568960E-01  0.3295776E+00 -0.1425814E+01 -0.4761562E-01  0.3261198E+00
  0.1272720E+02 -0.8504060E+01 -0.2568960E-01  0.3319324E+00 -0.1410779E+01 -0.5288862E-01  0.3276918E+00
  0.1349950E+02 -0.7215620E+01 -0.2568960E-01  0.3312167E+00 -0.1396342E+01 -0.5748967E-01  0.3261893E+00
  0.1414170E+02 -0.5857700E+01 -0.2568960E-01  0.3293716E+00 -0.1383402E+01 -0.6136174E-01  0.3236053E+00
  0.1464780E+02 -0.4443350E+01 -0.2568960E-01  0.3289053E+00 -0.1373183E+01 -0.6457386E-01  0.3225041E+00
  0.1501280E+02 -0.2986230E+01 -0.2568960E-01  0.3294060E+00 -0.1365643E+01 -0.6710568E-01  0.3224982E+00
  0.1523320E+02 -0.1500330E+01 -0.2568960E-01  0.3294482E+00 -0.1360008E+01 -0.6893079E-01  0.3221562E+00
  0.1530690E+02  0.0000000E+00 -0.1027320E+00  0.3279318E+00 -0.1356094E+01 -0.6986810E-01  0.3204024E+00
  0.1523320E+02  0.1500340E+01 -0.1027320E+00  0.3263905E+00 -0.1353751E+01 -0.7028656E-01  0.3187327E+00
  0.1501280E+02  0.2986230E+01 -0.1027320E+00  0.3240369E+00 -0.1353026E+01 -0.7000928E-01  0.3163837E+00
  0.1464780E+02  0.4443360E+01 -0.1027320E+00  0.3211560E+00 -0.1353952E+01 -0.6909629E-01  0.3136349E+00
  0.1414170E+02  0.5857700E+01 -0.1027320E+00  0.3194793E+00 -0.1356761E+01 -0.6785905E-01  0.3121894E+00
  0.1349950E+02  0.7215620E+01 -0.1027320E+00  0.3191939E+00 -0.1361260E+01 -0.6639435E-01  0.3122123E+00
  0.1272720E+02  0.8504060E+01 -0.1027320E+00  0.3174399E+00 -0.1366973E+01 -0.6425461E-01  0.3108688E+00
  0.1183240E+02  0.9710600E+01 -0.1027320E+00  0.3118618E+00 -0.1374078E+01 -0.6095416E-01  0.3058470E+00
  0.1082360E+02  0.1082360E+02 -0.1027320E+00  0.3059114E+00 -0.1382838E+01 -0.5716048E-01  0.3005236E+00
  0.9710590E+01  0.1183240E+02 -0.1027320E+00  0.3003452E+00 -0.1393162E+01 -0.5307150E-01  0.2956192E+00
  0.8504060E+01  0.1272720E+02 -0.1027320E+00  0.2903820E+00 -0.1405203E+01 -0.4786587E-01  0.2864098E+00
  0.7215620E+01  0.1349950E+02 -0.1027320E+00  0.2805547E+00 -0.1418139E+01 -0.4266268E-01  0.2772920E+00
  0.5857700E+01  0.1414170E+02 -0.1027320E+00  0.2667184E+00 -0.1433168E+01 -0.3659235E-01  0.2641964E+00
  0.4443360E+01  0.1464780E+02 -0.1027320E+00  0.2449497E+00 -0.1452035E+01 -0.2902229E-01  0.2432243E+00
  0.2986230E+01  0.1501280E+02 -0.1027320E+00  0.2041880E+00 -0.1481081E+01 -0.1829433E-01  0.2033668E+00
  0.1500340E+01  0.1523320E+02 -0.1027320E+00  0.6377932E-01 -0.1784825E+01  0.1354663E-01  0.6232407E-01
 -0.6690860E-06  0.1530690E+02 -0.1027320E+00  0.4200906E-01  0.2616956E+01  0.3635910E-01 -0.2104226E-01
 -0.1500340E+01  0.1523320E+02 -0.1027320E+00  0.1104209E+00  0.2126959E+01  0.5829462E-01 -0.9377907E-01
 -0.2986230E+01  0.1501280E+02 -0.1027320E+00  0.2054602E+00  0.2002998E+01  0.8606131E-01 -0.1865673E+00
 -0.4443360E+01  0.1464780E+02 -0.1027320E+00  0.2264698E+00  0.1989893E+01  0.9215863E-01 -0.2068704E+00
 -0.5857700E+01  0.1414170E+02 -0.1027320E+00  0.2378088E+00  0.1985793E+01  0.9588130E-01 -0.2176230E+00
 -0.7215620E+01  0.1349950E+02 -0.1027320E+00  0.2438384E+00  0.1986883E+01  0.9855565E-01 -0.2230335E+00
 -0.8504060E+01  0.1272720E+02 -0.1027320E+00  0.2477932E+00  0.1989219E+01  0.1006834E+00 -0.2264163E+00
 -0.9710590E+01  0.1183240E+02 -0.1027320E+00  0.2526081E+00  0.1990801E+01  0.1030047E+00 -0.2306532E+00
 -0.1082360E+02  0.1082360E+02 -0.1027320E+00  0.2539750E+00  0.1994502E+01  0.1044195E+00 -0.2315165E+00
 -0.1183240E+02  0.9710590E+01 -0.1027320E+00  0.2557753E+00  0.1997243E+01  0.1057985E+00 -0.2328683E+00
 -0.1272720E+02  0.8504060E+01 -0.1027320E+00  0.2575672E+00  0.1998879E+01  0.1069232E+00 -0.2343251E+00
 -0.1349950E+02  0.7215620E+01 -0.1027320E+00  0.2562376E+00  0.2001768E+01  0.1070443E+00 -0.2328073E+00
 -0.1414170E+02  0.5857690E+01 -0.1027320E+00  0.2537443E+00  0.2004437E+01  0.1066176E+00 -0.2302582E+00
 -0.1464780E+02  0.4443360E+01 -0.1027320E+00  0.2525509E+00  0.2004438E+01  0.1061164E+00 -0.2291752E+00
 -0.1501280E+02  0.2986230E+01 -0.1027320E+00  0.2522838E+00  0.2002178E+01  0.1054865E+00 -0.2291718E+00
 -0.1523320E+02  0.1500340E+01 -0.1027320E+00  0.2515578E+00  0.1998987E+01  0.1044531E+00 -0.2288468E+00
 -0.1530690E+02 -0.1338170E-05 -0.1027320E+00  0.2500989E+00  0.1995046E+01  0.1029499E+00 -0.2279271E+00
 -0.1523320E+02 -0.1500340E+01 -0.1027320E+00  0.2478100E+00  0.1990466E+01  0.1009724E+00 -0.2263059E+00
 -0.1501280E+02 -0.2986230E+01 -0.1027320E+00  0.2447356E+00  0.1985207E+01  0.9854289E-01 -0.2240196E+00
 -0.1464780E+02 -0.4443360E+01 -0.1027320E+00  0.2411325E+00  0.1978750E+01  0.9566493E-01 -0.2213438E+00
 -0.1414170E+02 -0.5857700E+01 -0.1027320E+00  0.2385685E+00  0.1968299E+01  0.9235383E-01 -0.2199675E+00
 -0.1349950E+02 -0.7215620E+01 -0.1027320E+00  0.2372228E+00  0.1953539E+01  0.8859470E-01 -0.2200583E+00
 -0.1272720E+02 -0.8504060E+01 -0.1027320E+00  0.2344723E+00  0.1938640E+01  0.8431727E-01 -0.2187872E+00
 -0.1183240E+02 -0.9710600E+01 -0.1027320E+00  0.2281968E+00  0.1927188E+01  0.7961661E-01 -0.2138574E+00
 -0.1082360E+02 -0.1082360E+02 -0.1027320E+00  0.2215796E+00  0.1914242E+01  0.7461328E-01 -0.2086394E+00
 -0.9710600E+01 -0.1183240E+02 -0.1027320E+00  0.2153112E+00  0.1898508E+01  0.6930383E-01 -0.2038526E+00
 -0.8504050E+01 -0.1272720E+02 -0.1027320E+00  0.2049107E+00  0.1886495E+01  0.6362081E-01 -0.1947840E+00
 -0.7215620E+01 -0.1349950E+02 -0.1027320E+00  0.1945242E+00  0.1870949E+01  0.5751425E-01 -0.1858272E+00
 -0.5857690E+01 -0.1414170E+02 -0.1027320E+00  0.1803390E+00  0.1858174E+01  0.5111498E-01 -0.1729434E+00
 -0.4443360E+01 -0.1464780E+02 -0.1027320E+00  0.1585794E+00  0.1854253E+01  0.4435085E-01 -0.1522512E+00
 -0.2986230E+01 -0.1501280E+02 -0.1027320E+00  0.1188312E+00  0.1888474E+01  0.3711828E-01 -0.1128852E+00
 -0.1500340E+01 -0.1523320E+02 -0.1027320E+00  0.4093958E-01 -0.2416326E+01  0.3063602E-01  0.2715664E-01
  0.1825330E-06 -0.1530690E+02 -0.1027320E+00  0.1130597E+00 -0.1790169E+01  0.2460380E-01  0.1103502E+00
  0.1500340E+01 -0.1523320E+02 -0.1027320E+00  0.1842749E+00 -0.1669437E+01  0.1814754E-01  0.1833791E+00
  0.2986230E+01 -0.1501280E+02 -0.1027320E+00  0.2774675E+00 -0.1605006E+01  0.9490101E-02  0.2773051E+00
  0.4443360E+01 -0.1464780E+02 -0.1027320E+00  0.2981659E+00 -0.1566618E+01 -0.1245761E-02  0.2981633E+00
  0.5857700E+01 -0.1414170E+02 -0.1027320E+00  0.3094361E+00 -0.1535635E+01 -0.1087799E-01  0.3092448E+00
  0.7215620E+01 -0.1349950E+02 -0.1027320E+00  0.3155131E+00 -0.1508584E+01 -0.1961630E-01  0.3149027E+00
  0.8504060E+01 -0.1272720E+02 -0.1027320E+00  0.3196681E+00 -0.1484199E+01 -0.2764768E-01  0.3184703E+00
  0.9710600E+01 -0.1183240E+02 -0.1027320E+00  0.3247404E+00 -0.1462987E+01 -0.3494218E-01  0.3228550E+00
  0.1082360E+02 -0.1082360E+02 -0.1027320E+00  0.3264803E+00 -0.1443171E+01 -0.4155417E-01  0.3238250E+00
  0.1183240E+02 -0.9710590E+01 -0.1027320E+00  0.3287117E+00 -0.1425845E+01 -0.4748054E-01  0.3252645E+00
  0.1272720E+02 -0.8504060E+01 -0.1027320E+00  0.3310184E+00 -0.1410789E+01 -0.5273961E-01  0.3267901E+00
