 VARIABLES="X" "Y" "Z" "abs(eta) (m)" "angle(phi) (rad)" "PRE1" "PRE2"
ZONE N=   3200 ,E =    3136 ,F=FEPOINT,ET=QUADRILATERAL
  0.1672760E+02  0.0000000E+00  0.0000000E+00  0.1454721E+02 -0.8009678E+00 -0.1012503E+02  0.1044533E+02
  0.1664710E+02  0.1639590E+01  0.0000000E+00  0.1451833E+02 -0.8021652E+00 -0.1009244E+02  0.1043669E+02
  0.1640620E+02  0.3263390E+01  0.0000000E+00  0.1443672E+02 -0.8060207E+00 -0.9995626E+01  0.1041664E+02
  0.1600730E+02  0.4855770E+01  0.0000000E+00  0.1435192E+02 -0.8148131E+00 -0.9845482E+01  0.1044242E+02
  0.1545430E+02  0.6401380E+01  0.0000000E+00  0.1429390E+02 -0.8298479E+00 -0.9648211E+01  0.1054645E+02
  0.1475240E+02  0.7885340E+01  0.0000000E+00  0.1422575E+02 -0.8494120E+00 -0.9395039E+01  0.1068201E+02
  0.1390850E+02  0.9293360E+01  0.0000000E+00  0.1404633E+02 -0.8697088E+00 -0.9060572E+01  0.1073338E+02
  0.1293060E+02  0.1061190E+02  0.0000000E+00  0.1364345E+02 -0.8874083E+00 -0.8614801E+01  0.1057965E+02
  0.1182820E+02  0.1182820E+02  0.0000000E+00  0.1323309E+02 -0.9097798E+00 -0.8124050E+01  0.1044578E+02
  0.1061190E+02  0.1293060E+02  0.0000000E+00  0.1276770E+02 -0.9355739E+00 -0.7575802E+01  0.1027723E+02
  0.9293360E+01  0.1390850E+02  0.0000000E+00  0.1211022E+02 -0.9615807E+00 -0.6929761E+01  0.9931553E+01
  0.7885330E+01  0.1475240E+02  0.0000000E+00  0.1141846E+02 -0.9931505E+00 -0.6235085E+01  0.9565816E+01
  0.6401380E+01  0.1545430E+02  0.0000000E+00  0.1046773E+02 -0.1025541E+01 -0.5428943E+01  0.8949858E+01
  0.4855770E+01  0.1600730E+02  0.0000000E+00  0.9031661E+01 -0.1055854E+01 -0.4447953E+01  0.7860446E+01
  0.3263390E+01  0.1640620E+02  0.0000000E+00  0.6828367E+01 -0.1080721E+01 -0.3214061E+01  0.6024650E+01
  0.1639590E+01  0.1664710E+02  0.0000000E+00  0.3451688E+01 -0.1082396E+01 -0.1619580E+01  0.3048132E+01
 -0.7311870E-06  0.1672760E+02  0.0000000E+00  0.1378706E-04  0.6986762E+00 -0.1055667E-04 -0.8867899E-05
 -0.1639590E+01  0.1664710E+02  0.0000000E+00  0.3451659E+01  0.2059182E+01  0.1619522E+01 -0.3048130E+01
 -0.3263390E+01  0.1640620E+02  0.0000000E+00  0.6828390E+01  0.2060878E+01  0.3214111E+01 -0.6024649E+01
 -0.4855770E+01  0.1600730E+02  0.0000000E+00  0.9031592E+01  0.2085727E+01  0.4447829E+01 -0.7860437E+01
 -0.6401380E+01  0.1545430E+02  0.0000000E+00  0.1046777E+02  0.2116057E+01  0.5429016E+01 -0.8949864E+01
 -0.7885340E+01  0.1475240E+02  0.0000000E+00  0.1141843E+02  0.2148442E+01  0.6235071E+01 -0.9565798E+01
 -0.9293360E+01  0.1390850E+02  0.0000000E+00  0.1211024E+02  0.2180014E+01  0.6929793E+01 -0.9931558E+01
 -0.1061190E+02  0.1293060E+02  0.0000000E+00  0.1276767E+02  0.2206014E+01  0.7575728E+01 -0.1027724E+02
 -0.1182820E+02  0.1182820E+02  0.0000000E+00  0.1323308E+02  0.2231807E+01  0.8123981E+01 -0.1044582E+02
 -0.1293060E+02  0.1061190E+02  0.0000000E+00  0.1364347E+02  0.2254185E+01  0.8614821E+01 -0.1057965E+02
 -0.1390850E+02  0.9293360E+01  0.0000000E+00  0.1404634E+02  0.2271884E+01  0.9060577E+01 -0.1073338E+02
 -0.1475240E+02  0.7885330E+01  0.0000000E+00  0.1422576E+02  0.2292179E+01  0.9395025E+01 -0.1068202E+02
 -0.1545430E+02  0.6401370E+01  0.0000000E+00  0.1429393E+02  0.2311746E+01  0.9648242E+01 -0.1054646E+02
 -0.1600730E+02  0.4855770E+01  0.0000000E+00  0.1435198E+02  0.2326783E+01  0.9845560E+01 -0.1044243E+02
 -0.1640620E+02  0.3263390E+01  0.0000000E+00  0.1443673E+02  0.2335572E+01  0.9995625E+01 -0.1041665E+02
 -0.1664710E+02  0.1639590E+01  0.0000000E+00  0.1451836E+02  0.2339428E+01  0.1009247E+02 -0.1043670E+02
 -0.1672760E+02 -0.1462370E-05  0.0000000E+00  0.1454712E+02  0.2340622E+01  0.1012494E+02 -0.1044530E+02
 -0.1664710E+02 -0.1639590E+01  0.0000000E+00  0.1451837E+02  0.2339429E+01  0.1009249E+02 -0.1043670E+02
 -0.1640620E+02 -0.3263400E+01  0.0000000E+00  0.1443673E+02  0.2335571E+01  0.9995620E+01 -0.1041665E+02
 -0.1600730E+02 -0.4855770E+01  0.0000000E+00  0.1435197E+02  0.2326781E+01  0.9845522E+01 -0.1044244E+02
 -0.1545430E+02 -0.6401380E+01  0.0000000E+00  0.1429393E+02  0.2311745E+01  0.9648236E+01 -0.1054647E+02
 -0.1475240E+02 -0.7885340E+01  0.0000000E+00  0.1422575E+02  0.2292179E+01  0.9395018E+01 -0.1068203E+02
 -0.1390850E+02 -0.9293360E+01  0.0000000E+00  0.1404633E+02  0.2271883E+01  0.9060561E+01 -0.1073339E+02
 -0.1293060E+02 -0.1061190E+02  0.0000000E+00  0.1364346E+02  0.2254184E+01  0.8614795E+01 -0.1057966E+02
 -0.1182820E+02 -0.1182820E+02  0.0000000E+00  0.1323311E+02  0.2231810E+01  0.8124028E+01 -0.1044582E+02
 -0.1061190E+02 -0.1293060E+02  0.0000000E+00  0.1276766E+02  0.2206014E+01  0.7575722E+01 -0.1027723E+02
 -0.9293350E+01 -0.1390850E+02  0.0000000E+00  0.1211025E+02  0.2180015E+01  0.6929807E+01 -0.9931564E+01
 -0.7885340E+01 -0.1475240E+02  0.0000000E+00  0.1141843E+02  0.2148440E+01  0.6235051E+01 -0.9565804E+01
 -0.6401370E+01 -0.1545430E+02  0.0000000E+00  0.1046778E+02  0.2116059E+01  0.5429032E+01 -0.8949859E+01
 -0.4855760E+01 -0.1600730E+02  0.0000000E+00  0.9031603E+01  0.2085730E+01  0.4447858E+01 -0.7860434E+01
 -0.3263390E+01 -0.1640620E+02  0.0000000E+00  0.6828389E+01  0.2060876E+01  0.3214099E+01 -0.6024655E+01
 -0.1639590E+01 -0.1664710E+02  0.0000000E+00  0.3451662E+01  0.2059180E+01  0.1619517E+01 -0.3048136E+01
  0.1994750E-06 -0.1672760E+02  0.0000000E+00  0.2041210E-04  0.2031324E+00 -0.1999241E-04 -0.4117903E-05
  0.1639600E+01 -0.1664710E+02  0.0000000E+00  0.3451701E+01 -0.1082399E+01 -0.1619576E+01  0.3048149E+01
  0.3263390E+01 -0.1640620E+02  0.0000000E+00  0.6828369E+01 -0.1080720E+01 -0.3214065E+01  0.6024650E+01
  0.4855770E+01 -0.1600730E+02  0.0000000E+00  0.9031667E+01 -0.1055853E+01 -0.4447968E+01  0.7860445E+01
  0.6401380E+01 -0.1545430E+02  0.0000000E+00  0.1046774E+02 -0.1025540E+01 -0.5428961E+01  0.8949857E+01
  0.7885340E+01 -0.1475240E+02  0.0000000E+00  0.1141845E+02 -0.9931515E+00 -0.6235074E+01  0.9565820E+01
  0.9293360E+01 -0.1390850E+02  0.0000000E+00  0.1211020E+02 -0.9615802E+00 -0.6929757E+01  0.9931537E+01
  0.1061190E+02 -0.1293060E+02  0.0000000E+00  0.1276771E+02 -0.9355736E+00 -0.7575807E+01  0.1027723E+02
  0.1182820E+02 -0.1182820E+02  0.0000000E+00  0.1323310E+02 -0.9097783E+00 -0.8124075E+01  0.1044578E+02
  0.1293060E+02 -0.1061190E+02  0.0000000E+00  0.1364344E+02 -0.8874110E+00 -0.8614764E+01  0.1057966E+02
  0.1390850E+02 -0.9293360E+01  0.0000000E+00  0.1404632E+02 -0.8697091E+00 -0.9060562E+01  0.1073337E+02
  0.1475240E+02 -0.7885330E+01  0.0000000E+00  0.1422576E+02 -0.8494117E+00 -0.9395045E+01  0.1068201E+02
  0.1545430E+02 -0.6401380E+01  0.0000000E+00  0.1429392E+02 -0.8298465E+00 -0.9648237E+01  0.1054645E+02
  0.1600730E+02 -0.4855760E+01  0.0000000E+00  0.1435190E+02 -0.8148154E+00 -0.9845441E+01  0.1044243E+02
  0.1640620E+02 -0.3263390E+01  0.0000000E+00  0.1443672E+02 -0.8060215E+00 -0.9995615E+01  0.1041664E+02
  0.1664710E+02 -0.1639590E+01  0.0000000E+00  0.1451835E+02 -0.8021632E+00 -0.1009248E+02  0.1043669E+02
  0.1672760E+02  0.0000000E+00 -0.2568960E-01  0.1452873E+02 -0.8010208E+00 -0.1011162E+02  0.1043260E+02
  0.1664710E+02  0.1639590E+01 -0.2568960E-01  0.1449996E+02 -0.8022173E+00 -0.1007913E+02  0.1042401E+02
  0.1640620E+02  0.3263390E+01 -0.2568960E-01  0.1441856E+02 -0.8060720E+00 -0.9982515E+01  0.1040404E+02
  0.1600730E+02  0.4855770E+01 -0.2568960E-01  0.1433370E+02 -0.8148552E+00 -0.9832543E+01  0.1042958E+02
  0.1545430E+02  0.6401380E+01 -0.2568960E-01  0.1427524E+02 -0.8298669E+00 -0.9635411E+01  0.1053286E+02
  0.1475240E+02  0.7885340E+01 -0.2568960E-01  0.1420628E+02 -0.8494101E+00 -0.9382202E+01  0.1066737E+02
  0.1390850E+02  0.9293360E+01 -0.2568960E-01  0.1402675E+02 -0.8696956E+00 -0.9048081E+01  0.1071829E+02
  0.1293060E+02  0.1061190E+02 -0.2568960E-01  0.1362525E+02 -0.8874193E+00 -0.8603189E+01  0.1056563E+02
  0.1182820E+02  0.1182820E+02 -0.2568960E-01  0.1321560E+02 -0.9097984E+00 -0.8113121E+01  0.1043213E+02
  0.1061190E+02  0.1293060E+02 -0.2568960E-01  0.1275065E+02 -0.9355879E+00 -0.7565539E+01  0.1026361E+02
  0.9293360E+01  0.1390850E+02 -0.2568960E-01  0.1209488E+02 -0.9616149E+00 -0.6920647E+01  0.9919215E+01
  0.7885330E+01  0.1475240E+02 -0.2568960E-01  0.1140378E+02 -0.9931706E+00 -0.6226876E+01  0.9553643E+01
  0.6401380E+01  0.1545430E+02 -0.2568960E-01  0.1045441E+02 -0.1025558E+01 -0.5421882E+01  0.8938563E+01
  0.4855770E+01  0.1600730E+02 -0.2568960E-01  0.9021082E+01 -0.1055903E+01 -0.4442362E+01  0.7851454E+01
  0.3263390E+01  0.1640620E+02 -0.2568960E-01  0.6819619E+01 -0.1080733E+01 -0.3209872E+01  0.6016970E+01
  0.1639590E+01  0.1664710E+02 -0.2568960E-01  0.3447570E+01 -0.1082439E+01 -0.1617515E+01  0.3044566E+01
 -0.7311870E-06  0.1672760E+02 -0.2568960E-01  0.3810736E-04  0.3078790E+01  0.3803223E-04 -0.2391675E-05
 -0.1639590E+01  0.1664710E+02 -0.2568960E-01  0.3447553E+01  0.2059142E+01  0.1617473E+01 -0.3044569E+01
 -0.3263390E+01  0.1640620E+02 -0.2568960E-01  0.6819602E+01  0.2060856E+01  0.3209838E+01 -0.6016968E+01
 -0.4855770E+01  0.1600730E+02 -0.2568960E-01  0.9021071E+01  0.2085688E+01  0.4442341E+01 -0.7851454E+01
 -0.6401380E+01  0.1545430E+02 -0.2568960E-01  0.1045443E+02  0.2116035E+01  0.5421896E+01 -0.8938575E+01
 -0.7885340E+01  0.1475240E+02 -0.2568960E-01  0.1140380E+02  0.2148425E+01  0.6226922E+01 -0.9553644E+01
 -0.9293360E+01  0.1390850E+02 -0.2568960E-01  0.1209489E+02  0.2179977E+01  0.6920647E+01 -0.9919230E+01
 -0.1061190E+02  0.1293060E+02 -0.2568960E-01  0.1275067E+02  0.2206004E+01  0.7565542E+01 -0.1026363E+02
 -0.1182820E+02  0.1182820E+02 -0.2568960E-01  0.1321562E+02  0.2231797E+01  0.8113157E+01 -0.1043213E+02
 -0.1293060E+02  0.1061190E+02 -0.2568960E-01  0.1362519E+02  0.2254170E+01  0.8603120E+01 -0.1056562E+02
 -0.1390850E+02  0.9293360E+01 -0.2568960E-01  0.1402678E+02  0.2271898E+01  0.9048114E+01 -0.1071831E+02
 -0.1475240E+02  0.7885330E+01 -0.2568960E-01  0.1420631E+02  0.2292182E+01  0.9382218E+01 -0.1066739E+02
 -0.1545430E+02  0.6401370E+01 -0.2568960E-01  0.1427517E+02  0.2311721E+01  0.9635324E+01 -0.1053286E+02
 -0.1600730E+02  0.4855770E+01 -0.2568960E-01  0.1433369E+02  0.2326737E+01  0.9832533E+01 -0.1042958E+02
 -0.1640620E+02  0.3263390E+01 -0.2568960E-01  0.1441851E+02  0.2335519E+01  0.9982471E+01 -0.1040402E+02
 -0.1664710E+02  0.1639590E+01 -0.2568960E-01  0.1450000E+02  0.2339378E+01  0.1007919E+02 -0.1042402E+02
 -0.1672760E+02 -0.1462370E-05 -0.2568960E-01  0.1452873E+02  0.2340574E+01  0.1011164E+02 -0.1043258E+02
 -0.1664710E+02 -0.1639590E+01 -0.2568960E-01  0.1450000E+02  0.2339378E+01  0.1007919E+02 -0.1042401E+02
 -0.1640620E+02 -0.3263400E+01 -0.2568960E-01  0.1441850E+02  0.2335519E+01  0.9982460E+01 -0.1040403E+02
 -0.1600730E+02 -0.4855770E+01 -0.2568960E-01  0.1433370E+02  0.2326737E+01  0.9832535E+01 -0.1042958E+02
 -0.1545430E+02 -0.6401380E+01 -0.2568960E-01  0.1427518E+02  0.2311721E+01  0.9635324E+01 -0.1053287E+02
 -0.1475240E+02 -0.7885340E+01 -0.2568960E-01  0.1420631E+02  0.2292182E+01  0.9382214E+01 -0.1066739E+02
 -0.1390850E+02 -0.9293360E+01 -0.2568960E-01  0.1402678E+02  0.2271899E+01  0.9048125E+01 -0.1071830E+02
 -0.1293060E+02 -0.1061190E+02 -0.2568960E-01  0.1362521E+02  0.2254170E+01  0.8603134E+01 -0.1056563E+02
 -0.1182820E+02 -0.1182820E+02 -0.2568960E-01  0.1321562E+02  0.2231796E+01  0.8113150E+01 -0.1043213E+02
 -0.1061190E+02 -0.1293060E+02 -0.2568960E-01  0.1275066E+02  0.2206002E+01  0.7565507E+01 -0.1026364E+02
 -0.9293350E+01 -0.1390850E+02 -0.2568960E-01  0.1209490E+02  0.2179978E+01  0.6920660E+01 -0.9919229E+01
 -0.7885340E+01 -0.1475240E+02 -0.2568960E-01  0.1140380E+02  0.2148424E+01  0.6226905E+01 -0.9553650E+01
 -0.6401370E+01 -0.1545430E+02 -0.2568960E-01  0.1045441E+02  0.2116032E+01  0.5421865E+01 -0.8938569E+01
 -0.4855760E+01 -0.1600730E+02 -0.2568960E-01  0.9021058E+01  0.2085687E+01  0.4442324E+01 -0.7851449E+01
 -0.3263390E+01 -0.1640620E+02 -0.2568960E-01  0.6819617E+01  0.2060859E+01  0.3209865E+01 -0.6016971E+01
 -0.1639590E+01 -0.1664710E+02 -0.2568960E-01  0.3447552E+01  0.2059145E+01  0.1617482E+01 -0.3044563E+01
  0.1994750E-06 -0.1672760E+02 -0.2568960E-01  0.5135565E-04  0.3059870E+01  0.5118426E-04 -0.4192267E-05
  0.1639600E+01 -0.1664710E+02 -0.2568960E-01  0.3447592E+01 -0.1082440E+01 -0.1617522E+01  0.3044587E+01
  0.3263390E+01 -0.1640620E+02 -0.2568960E-01  0.6819628E+01 -0.1080730E+01 -0.3209894E+01  0.6016969E+01
  0.4855770E+01 -0.1600730E+02 -0.2568960E-01  0.9021084E+01 -0.1055902E+01 -0.4442365E+01  0.7851455E+01
  0.6401380E+01 -0.1545430E+02 -0.2568960E-01  0.1045442E+02 -0.1025560E+01 -0.5421875E+01  0.8938574E+01
  0.7885340E+01 -0.1475240E+02 -0.2568960E-01  0.1140378E+02 -0.9931693E+00 -0.6226892E+01  0.9553640E+01
  0.9293360E+01 -0.1390850E+02 -0.2568960E-01  0.1209488E+02 -0.9616150E+00 -0.6920643E+01  0.9919212E+01
  0.1061190E+02 -0.1293060E+02 -0.2568960E-01  0.1275066E+02 -0.9355872E+00 -0.7565552E+01  0.1026361E+02
  0.1182820E+02 -0.1182820E+02 -0.2568960E-01  0.1321560E+02 -0.9097990E+00 -0.8113114E+01  0.1043213E+02
  0.1293060E+02 -0.1061190E+02 -0.2568960E-01  0.1362524E+02 -0.8874195E+00 -0.8603182E+01  0.1056562E+02
  0.1390850E+02 -0.9293360E+01 -0.2568960E-01  0.1402673E+02 -0.8696972E+00 -0.9048057E+01  0.1071830E+02
  0.1475240E+02 -0.7885330E+01 -0.2568960E-01  0.1420628E+02 -0.8494101E+00 -0.9382201E+01  0.1066737E+02
  0.1545430E+02 -0.6401380E+01 -0.2568960E-01  0.1427523E+02 -0.8298674E+00 -0.9635403E+01  0.1053286E+02
  0.1600730E+02 -0.4855760E+01 -0.2568960E-01  0.1433370E+02 -0.8148559E+00 -0.9832534E+01  0.1042958E+02
  0.1640620E+02 -0.3263390E+01 -0.2568960E-01  0.1441855E+02 -0.8060718E+00 -0.9982512E+01  0.1040404E+02
  0.1664710E+02 -0.1639590E+01 -0.2568960E-01  0.1449994E+02 -0.8022184E+00 -0.1007910E+02  0.1042400E+02
  0.1672760E+02  0.0000000E+00 -0.1027320E+00  0.1447513E+02 -0.8012128E+00 -0.1007232E+02  0.1039604E+02
  0.1664710E+02  0.1639590E+01 -0.1027320E+00  0.1444655E+02 -0.8024127E+00 -0.1003998E+02  0.1038758E+02
  0.1640620E+02  0.3263390E+01 -0.1027320E+00  0.1436556E+02 -0.8062765E+00 -0.9943705E+01  0.1036784E+02
  0.1600730E+02  0.4855770E+01 -0.1027320E+00  0.1428053E+02 -0.8150305E+00 -0.9794248E+01  0.1039261E+02
  0.1545430E+02  0.6401380E+01 -0.1027320E+00  0.1422037E+02 -0.8299822E+00 -0.9597172E+01  0.1049349E+02
  0.1475240E+02  0.7885340E+01 -0.1027320E+00  0.1414928E+02 -0.8494352E+00 -0.9344289E+01  0.1062480E+02
  0.1390850E+02  0.9293360E+01 -0.1027320E+00  0.1396917E+02 -0.8696847E+00 -0.9011059E+01  0.1067420E+02
  0.1293060E+02  0.1061190E+02 -0.1027320E+00  0.1357160E+02 -0.8874819E+00 -0.8568655E+01  0.1052456E+02
  0.1182820E+02  0.1182820E+02 -0.1027320E+00  0.1316419E+02 -0.9098649E+00 -0.8080869E+01  0.1039208E+02
  0.1061190E+02  0.1293060E+02 -0.1027320E+00  0.1270036E+02 -0.9356391E+00 -0.7535178E+01  0.1022352E+02
  0.9293360E+01  0.1390850E+02 -0.1027320E+00  0.1204953E+02 -0.9617202E+00 -0.6893658E+01  0.9882749E+01
  0.7885330E+01  0.1475240E+02 -0.1027320E+00  0.1136007E+02 -0.9932429E+00 -0.6202325E+01  0.9517478E+01
  0.6401380E+01  0.1545430E+02 -0.1027320E+00  0.1041458E+02 -0.1025629E+01 -0.5400599E+01  0.8904891E+01
  0.4855770E+01  0.1600730E+02 -0.1027320E+00  0.8989412E+01 -0.1056028E+01 -0.4425786E+01  0.7824446E+01
  0.3263390E+01  0.1640620E+02 -0.1027320E+00  0.6794004E+01 -0.1080784E+01 -0.3197508E+01  0.5994534E+01
  0.1639590E+01  0.1664710E+02 -0.1027320E+00  0.3435374E+01 -0.1082544E+01 -0.1611477E+01  0.3033964E+01
 -0.7311870E-06  0.1672760E+02 -0.1027320E+00  0.7078368E-05 -0.2950871E+01  0.6950020E-05  0.1341832E-05
 -0.1639590E+01  0.1664710E+02 -0.1027320E+00  0.3435369E+01  0.2059049E+01  0.1611475E+01 -0.3033959E+01
 -0.3263390E+01  0.1640620E+02 -0.1027320E+00  0.6794002E+01  0.2060808E+01  0.3197506E+01 -0.5994532E+01
 -0.4855770E+01  0.1600730E+02 -0.1027320E+00  0.8989403E+01  0.2085564E+01  0.4425775E+01 -0.7824440E+01
 -0.6401380E+01  0.1545430E+02 -0.1027320E+00  0.1041460E+02  0.2115967E+01  0.5400638E+01 -0.8904885E+01
 -0.7885340E+01  0.1475240E+02 -0.1027320E+00  0.1136010E+02  0.2148351E+01  0.6202346E+01 -0.9517492E+01
 -0.9293360E+01  0.1390850E+02 -0.1027320E+00  0.1204951E+02  0.2179868E+01  0.6893594E+01 -0.9882763E+01
 -0.1061190E+02  0.1293060E+02 -0.1027320E+00  0.1270035E+02  0.2205949E+01  0.7535120E+01 -0.1022354E+02
 -0.1182820E+02  0.1182820E+02 -0.1027320E+00  0.1316416E+02  0.2231726E+01  0.8080828E+01 -0.1039208E+02
 -0.1293060E+02  0.1061190E+02 -0.1027320E+00  0.1357159E+02  0.2254108E+01  0.8568624E+01 -0.1052457E+02
 -0.1390850E+02  0.9293360E+01 -0.1027320E+00  0.1396917E+02  0.2271907E+01  0.9011052E+01 -0.1067421E+02
 -0.1475240E+02  0.7885330E+01 -0.1027320E+00  0.1414925E+02  0.2292155E+01  0.9344247E+01 -0.1062480E+02
 -0.1545430E+02  0.6401370E+01 -0.1027320E+00  0.1422037E+02  0.2311608E+01  0.9597136E+01 -0.1049351E+02
 -0.1600730E+02  0.4855770E+01 -0.1027320E+00  0.1428051E+02  0.2326559E+01  0.9794200E+01 -0.1039263E+02
 -0.1640620E+02  0.3263390E+01 -0.1027320E+00  0.1436561E+02  0.2335316E+01  0.9943733E+01 -0.1036787E+02
 -0.1664710E+02  0.1639590E+01 -0.1027320E+00  0.1444655E+02  0.2339180E+01  0.1003997E+02 -0.1038758E+02
 -0.1672760E+02 -0.1462370E-05 -0.1027320E+00  0.1447509E+02  0.2340376E+01  0.1007226E+02 -0.1039606E+02
 -0.1664710E+02 -0.1639590E+01 -0.1027320E+00  0.1444655E+02  0.2339179E+01  0.1003996E+02 -0.1038758E+02
 -0.1640620E+02 -0.3263400E+01 -0.1027320E+00  0.1436559E+02  0.2335316E+01  0.9943719E+01 -0.1036786E+02
 -0.1600730E+02 -0.4855770E+01 -0.1027320E+00  0.1428050E+02  0.2326557E+01  0.9794174E+01 -0.1039264E+02
 -0.1545430E+02 -0.6401380E+01 -0.1027320E+00  0.1422037E+02  0.2311607E+01  0.9597137E+01 -0.1049352E+02
 -0.1475240E+02 -0.7885340E+01 -0.1027320E+00  0.1414926E+02  0.2292157E+01  0.9344269E+01 -0.1062479E+02
 -0.1390850E+02 -0.9293360E+01 -0.1027320E+00  0.1396917E+02  0.2271906E+01  0.9011043E+01 -0.1067422E+02
 -0.1293060E+02 -0.1061190E+02 -0.1027320E+00  0.1357158E+02  0.2254108E+01  0.8568614E+01 -0.1052457E+02
 -0.1182820E+02 -0.1182820E+02 -0.1027320E+00  0.1316416E+02  0.2231726E+01  0.8080834E+01 -0.1039208E+02
 -0.1061190E+02 -0.1293060E+02 -0.1027320E+00  0.1270037E+02  0.2205952E+01  0.7535161E+01 -0.1022353E+02
 -0.9293350E+01 -0.1390850E+02 -0.1027320E+00  0.1204951E+02  0.2179869E+01  0.6893613E+01 -0.9882754E+01
 -0.7885340E+01 -0.1475240E+02 -0.1027320E+00  0.1136011E+02  0.2148352E+01  0.6202368E+01 -0.9517500E+01
 -0.6401370E+01 -0.1545430E+02 -0.1027320E+00  0.1041459E+02  0.2115965E+01  0.5400611E+01 -0.8904885E+01
 -0.4855760E+01 -0.1600730E+02 -0.1027320E+00  0.8989401E+01  0.2085562E+01  0.4425760E+01 -0.7824447E+01
 -0.3263390E+01 -0.1640620E+02 -0.1027320E+00  0.6793985E+01  0.2060806E+01  0.3197481E+01 -0.5994527E+01
 -0.1639590E+01 -0.1664710E+02 -0.1027320E+00  0.3435376E+01  0.2059049E+01  0.1611478E+01 -0.3033966E+01
  0.1994750E-06 -0.1672760E+02 -0.1027320E+00  0.1745412E-04 -0.1255770E+00 -0.1731668E-04  0.2186081E-05
  0.1639600E+01 -0.1664710E+02 -0.1027320E+00  0.3435391E+01 -0.1082546E+01 -0.1611477E+01  0.3033983E+01
  0.3263390E+01 -0.1640620E+02 -0.1027320E+00  0.6794000E+01 -0.1080786E+01 -0.3197492E+01  0.5994537E+01
  0.4855770E+01 -0.1600730E+02 -0.1027320E+00  0.8989408E+01 -0.1056029E+01 -0.4425775E+01  0.7824447E+01
  0.6401380E+01 -0.1545430E+02 -0.1027320E+00  0.1041459E+02 -0.1025628E+01 -0.5400611E+01  0.8904890E+01
  0.7885340E+01 -0.1475240E+02 -0.1027320E+00  0.1136009E+02 -0.9932400E+00 -0.6202360E+01  0.9517472E+01
  0.9293360E+01 -0.1390850E+02 -0.1027320E+00  0.1204955E+02 -0.9617180E+00 -0.6893689E+01  0.9882747E+01
  0.1061190E+02 -0.1293060E+02 -0.1027320E+00  0.1270037E+02 -0.9356396E+00 -0.7535180E+01  0.1022353E+02
  0.1182820E+02 -0.1182820E+02 -0.1027320E+00  0.1316418E+02 -0.9098639E+00 -0.8080874E+01  0.1039207E+02
  0.1293060E+02 -0.1061190E+02 -0.1027320E+00  0.1357159E+02 -0.8874825E+00 -0.8568646E+01  0.1052456E+02
  0.1390850E+02 -0.9293360E+01 -0.1027320E+00  0.1396915E+02 -0.8696855E+00 -0.9011034E+01  0.1067419E+02
