 VARIABLES="X" "Y" "Z" "abs(eta) (m)" "angle(phi) (rad)" "PRE1" "PRE2"
ZONE N=   3200 ,E =    3136 ,F=FEPOINT,ET=QUADRILATERAL
  0.1530690E+02  0.0000000E+00  0.0000000E+00  0.7007931E+00 -0.6533611E+00 -0.5564614E+00  0.4259832E+00
  0.1523320E+02  0.1500340E+01  0.0000000E+00  0.6981788E+00 -0.6609187E+00 -0.5511624E+00  0.4285717E+00
  0.1501280E+02  0.2986230E+01  0.0000000E+00  0.6936208E+00 -0.6727442E+00 -0.5424910E+00  0.4322191E+00
  0.1464780E+02  0.4443360E+01  0.0000000E+00  0.6868224E+00 -0.6884785E+00 -0.5303736E+00  0.4363815E+00
  0.1414170E+02  0.5857700E+01  0.0000000E+00  0.6783381E+00 -0.7087280E+00 -0.5149878E+00  0.4415089E+00
  0.1349950E+02  0.7215620E+01  0.0000000E+00  0.6688002E+00 -0.7341509E+00 -0.4965172E+00  0.4480674E+00
  0.1272720E+02  0.8504060E+01  0.0000000E+00  0.6597296E+00 -0.7664362E+00 -0.4752606E+00  0.4575702E+00
  0.1183240E+02  0.9710600E+01  0.0000000E+00  0.6473846E+00 -0.8028136E+00 -0.4497288E+00  0.4656725E+00
  0.1082360E+02  0.1082360E+02  0.0000000E+00  0.6302271E+00 -0.8420803E+00 -0.4196760E+00  0.4701684E+00
  0.9710590E+01  0.1183240E+02  0.0000000E+00  0.6130228E+00 -0.8881749E+00 -0.3867127E+00  0.4756577E+00
  0.8504060E+01  0.1272720E+02  0.0000000E+00  0.5927153E+00 -0.9397728E+00 -0.3496851E+00  0.4785725E+00
  0.7215620E+01  0.1349950E+02  0.0000000E+00  0.5661557E+00 -0.9966388E+00 -0.3074947E+00  0.4753727E+00
  0.5857700E+01  0.1414170E+02  0.0000000E+00  0.5403768E+00 -0.1066121E+01 -0.2612850E+00  0.4730088E+00
  0.4443360E+01  0.1464780E+02  0.0000000E+00  0.5064399E+00 -0.1147181E+01 -0.2081768E+00  0.4616750E+00
  0.2986230E+01  0.1501280E+02  0.0000000E+00  0.4565235E+00 -0.1253960E+01 -0.1422354E+00  0.4338004E+00
  0.1500340E+01  0.1523320E+02  0.0000000E+00  0.3104290E+00 -0.1438167E+01 -0.4105150E-01  0.3077027E+00
 -0.6690860E-06  0.1530690E+02  0.0000000E+00  0.2097605E+00 -0.1700660E+01  0.2716369E-01  0.2079942E+00
 -0.1500340E+01  0.1523320E+02  0.0000000E+00  0.1257615E+00 -0.2351276E+01  0.8848841E-01  0.8936312E-01
 -0.2986230E+01  0.1501280E+02  0.0000000E+00  0.2004572E+00  0.2474375E+01  0.1574685E+00 -0.1240434E+00
 -0.4443360E+01  0.1464780E+02  0.0000000E+00  0.2751372E+00  0.2410432E+01  0.2048122E+00 -0.1837185E+00
 -0.5857700E+01  0.1414170E+02  0.0000000E+00  0.3242415E+00  0.2431661E+01  0.2459068E+00 -0.2113347E+00
 -0.7215620E+01  0.1349950E+02  0.0000000E+00  0.3619345E+00  0.2468083E+01  0.2829015E+00 -0.2257505E+00
 -0.8504060E+01  0.1272720E+02  0.0000000E+00  0.3970597E+00  0.2499684E+01  0.3180267E+00 -0.2377297E+00
 -0.9710590E+01  0.1183240E+02  0.0000000E+00  0.4249451E+00  0.2536617E+01  0.3495240E+00 -0.2416843E+00
 -0.1082360E+02  0.1082360E+02  0.0000000E+00  0.4492484E+00  0.2572207E+01  0.3783716E+00 -0.2421964E+00
 -0.1183240E+02  0.9710590E+01  0.0000000E+00  0.4731966E+00  0.2600011E+01  0.4054796E+00 -0.2439289E+00
 -0.1272720E+02  0.8504060E+01  0.0000000E+00  0.4923013E+00  0.2631056E+01  0.4295241E+00 -0.2405610E+00
 -0.1349950E+02  0.7215620E+01  0.0000000E+00  0.5078611E+00  0.2661126E+01  0.4503608E+00 -0.2347297E+00
 -0.1414170E+02  0.5857690E+01  0.0000000E+00  0.5233667E+00  0.2683251E+01  0.4693488E+00 -0.2315695E+00
 -0.1464780E+02  0.4443360E+01  0.0000000E+00  0.5378168E+00  0.2699483E+01  0.4861062E+00 -0.2301036E+00
 -0.1501280E+02  0.2986230E+01  0.0000000E+00  0.5506970E+00  0.2711900E+01  0.5006353E+00 -0.2294154E+00
 -0.1523320E+02  0.1500340E+01  0.0000000E+00  0.5615528E+00  0.2721594E+01  0.5127480E+00 -0.2289782E+00
 -0.1530690E+02 -0.1338170E-05  0.0000000E+00  0.5705020E+00  0.2727903E+01  0.5223766E+00 -0.2293366E+00
 -0.1523320E+02 -0.1500340E+01  0.0000000E+00  0.5773022E+00  0.2730860E+01  0.5292870E+00 -0.2305062E+00
 -0.1501280E+02 -0.2986230E+01  0.0000000E+00  0.5819779E+00  0.2730258E+01  0.5334341E+00 -0.2326937E+00
 -0.1464780E+02 -0.4443360E+01  0.0000000E+00  0.5844736E+00  0.2726825E+01  0.5349160E+00 -0.2355297E+00
 -0.1414170E+02 -0.5857700E+01  0.0000000E+00  0.5853907E+00  0.2720095E+01  0.5341558E+00 -0.2394993E+00
 -0.1349950E+02 -0.7215620E+01  0.0000000E+00  0.5854555E+00  0.2709653E+01  0.5316846E+00 -0.2450910E+00
 -0.1272720E+02 -0.8504060E+01  0.0000000E+00  0.5860514E+00  0.2693497E+01  0.5281928E+00 -0.2539067E+00
 -0.1183240E+02 -0.9710600E+01  0.0000000E+00  0.5826588E+00  0.2675836E+01  0.5205952E+00 -0.2616715E+00
 -0.1082360E+02 -0.1082360E+02  0.0000000E+00  0.5730383E+00  0.2658568E+01  0.5074795E+00 -0.2661531E+00
 -0.9710600E+01 -0.1183240E+02  0.0000000E+00  0.5635366E+00  0.2637958E+01  0.4935646E+00 -0.2719696E+00
 -0.8504050E+01 -0.1272720E+02  0.0000000E+00  0.5500628E+00  0.2616733E+01  0.4760211E+00 -0.2756319E+00
 -0.7215620E+01 -0.1349950E+02  0.0000000E+00  0.5285196E+00  0.2597266E+01  0.4521359E+00 -0.2736897E+00
 -0.5857690E+01 -0.1414170E+02  0.0000000E+00  0.5076573E+00  0.2573268E+01  0.4278556E+00 -0.2732317E+00
 -0.4443360E+01 -0.1464780E+02  0.0000000E+00  0.4761180E+00  0.2552452E+01  0.3958532E+00 -0.2645536E+00
 -0.2986230E+01 -0.1501280E+02  0.0000000E+00  0.4242136E+00  0.2537428E+01  0.3491181E+00 -0.2409850E+00
 -0.1500340E+01 -0.1523320E+02  0.0000000E+00  0.2376099E+00  0.2592496E+01  0.2026803E+00 -0.1240127E+00
  0.1825330E-06 -0.1530690E+02  0.0000000E+00  0.8804649E-01  0.2819445E+01  0.8351718E-01 -0.2787590E-01
  0.1500340E+01 -0.1523320E+02  0.0000000E+00  0.1004056E+00 -0.1111539E+01 -0.4450805E-01  0.9000174E-01
  0.2986230E+01 -0.1501280E+02  0.0000000E+00  0.3849453E+00 -0.9256330E+00 -0.2314788E+00  0.3075719E+00
  0.4443360E+01 -0.1464780E+02  0.0000000E+00  0.4769336E+00 -0.8855362E+00 -0.3018391E+00  0.3692680E+00
  0.5857700E+01 -0.1414170E+02  0.0000000E+00  0.5301949E+00 -0.8485230E+00 -0.3505076E+00  0.3978077E+00
  0.7215620E+01 -0.1349950E+02  0.0000000E+00  0.5673053E+00 -0.8149597E+00 -0.3891134E+00  0.4128269E+00
  0.8504060E+01 -0.1272720E+02  0.0000000E+00  0.6017164E+00 -0.7848743E+00 -0.4257006E+00  0.4252548E+00
  0.9710600E+01 -0.1183240E+02  0.0000000E+00  0.6257744E+00 -0.7567858E+00 -0.4549671E+00  0.4296492E+00
  0.1082360E+02 -0.1082360E+02  0.0000000E+00  0.6446515E+00 -0.7315247E+00 -0.4797217E+00  0.4306304E+00
  0.1183240E+02 -0.9710590E+01  0.0000000E+00  0.6636975E+00 -0.7106334E+00 -0.5030488E+00  0.4329392E+00
  0.1272720E+02 -0.8504060E+01  0.0000000E+00  0.6748043E+00 -0.6911365E+00 -0.5199516E+00  0.4301292E+00
  0.1349950E+02 -0.7215620E+01  0.0000000E+00  0.6811450E+00 -0.6739244E+00 -0.5322321E+00  0.4250734E+00
  0.1414170E+02 -0.5857700E+01  0.0000000E+00  0.6882137E+00 -0.6618233E+00 -0.5429133E+00  0.4229460E+00
  0.1464780E+02 -0.4443350E+01  0.0000000E+00  0.6946813E+00 -0.6541884E+00 -0.5512589E+00  0.4227243E+00
  0.1501280E+02 -0.2986230E+01  0.0000000E+00  0.6992457E+00 -0.6503114E+00 -0.5565264E+00  0.4233473E+00
  0.1523320E+02 -0.1500330E+01  0.0000000E+00  0.7011623E+00 -0.6498509E+00 -0.5582472E+00  0.4242507E+00
  0.1530690E+02  0.0000000E+00 -0.2568960E-01  0.6997057E+00 -0.6533978E+00 -0.5555823E+00  0.4253426E+00
  0.1523320E+02  0.1500340E+01 -0.2568960E-01  0.6970963E+00 -0.6609556E+00 -0.5502920E+00  0.4279275E+00
  0.1501280E+02  0.2986230E+01 -0.2568960E-01  0.6925452E+00 -0.6727842E+00 -0.5416324E+00  0.4315705E+00
  0.1464780E+02  0.4443360E+01 -0.2568960E-01  0.6857580E+00 -0.6885234E+00 -0.5295321E+00  0.4357290E+00
  0.1414170E+02  0.5857700E+01 -0.2568960E-01  0.6772830E+00 -0.7087740E+00 -0.5141665E+00  0.4408458E+00
  0.1349950E+02  0.7215620E+01 -0.2568960E-01  0.6677547E+00 -0.7341870E+00 -0.4957248E+00  0.4473848E+00
  0.1272720E+02  0.8504060E+01 -0.2568960E-01  0.6586732E+00 -0.7664510E+00 -0.4744929E+00  0.4568446E+00
  0.1183240E+02  0.9710600E+01 -0.2568960E-01  0.6463434E+00 -0.8028216E+00 -0.4490018E+00  0.4649271E+00
  0.1082360E+02  0.1082360E+02 -0.2568960E-01  0.6292304E+00 -0.8421080E+00 -0.4189993E+00  0.4694364E+00
  0.9710590E+01  0.1183240E+02 -0.2568960E-01  0.6120434E+00 -0.8881956E+00 -0.3860851E+00  0.4749058E+00
  0.8504060E+01  0.1272720E+02 -0.2568960E-01  0.5917659E+00 -0.9397894E+00 -0.3491171E+00  0.4778118E+00
  0.7215620E+01  0.1349950E+02 -0.2568960E-01  0.5652969E+00 -0.9966872E+00 -0.3070054E+00  0.4746666E+00
  0.5857700E+01  0.1414170E+02 -0.2568960E-01  0.5395434E+00 -0.1066151E+01 -0.2608675E+00  0.4722872E+00
  0.4443360E+01  0.1464780E+02 -0.2568960E-01  0.5056908E+00 -0.1147223E+01 -0.2078494E+00  0.4610009E+00
  0.2986230E+01  0.1501280E+02 -0.2568960E-01  0.4558343E+00 -0.1253999E+01 -0.1420035E+00  0.4331511E+00
  0.1500340E+01  0.1523320E+02 -0.2568960E-01  0.3100080E+00 -0.1438237E+01 -0.4097432E-01  0.3072882E+00
 -0.6690860E-06  0.1530690E+02 -0.2568960E-01  0.2094389E+00 -0.1700726E+01  0.2713585E-01  0.2076735E+00
 -0.1500340E+01  0.1523320E+02 -0.2568960E-01  0.1255558E+00 -0.2351628E+01  0.8837496E-01  0.8918588E-01
 -0.2986230E+01  0.1501280E+02 -0.2568960E-01  0.2001788E+00  0.2474269E+01  0.1572366E+00 -0.1238878E+00
 -0.4443360E+01  0.1464780E+02 -0.2568960E-01  0.2747686E+00  0.2410282E+01  0.2045101E+00 -0.1835031E+00
 -0.5857700E+01  0.1414170E+02 -0.2568960E-01  0.3237679E+00  0.2431569E+01  0.2455282E+00 -0.2110487E+00
 -0.7215620E+01  0.1349950E+02 -0.2568960E-01  0.3614086E+00  0.2467990E+01  0.2824695E+00 -0.2254488E+00
 -0.8504060E+01  0.1272720E+02 -0.2568960E-01  0.3964347E+00  0.2499675E+01  0.3175240E+00 -0.2373583E+00
 -0.9710590E+01  0.1183240E+02 -0.2568960E-01  0.4242789E+00  0.2536594E+01  0.3489707E+00 -0.2413132E+00
 -0.1082360E+02  0.1082360E+02 -0.2568960E-01  0.4485516E+00  0.2572167E+01  0.3777750E+00 -0.2418358E+00
 -0.1183240E+02  0.9710590E+01 -0.2568960E-01  0.4724451E+00  0.2600009E+01  0.4048352E+00 -0.2435423E+00
 -0.1272720E+02  0.8504060E+01 -0.2568960E-01  0.4915206E+00  0.2631044E+01  0.4288401E+00 -0.2401847E+00
 -0.1349950E+02  0.7215620E+01 -0.2568960E-01  0.5070754E+00  0.2661071E+01  0.4496511E+00 -0.2343915E+00
 -0.1414170E+02  0.5857690E+01 -0.2568960E-01  0.5225664E+00  0.2683181E+01  0.4686148E+00 -0.2312484E+00
 -0.1464780E+02  0.4443360E+01 -0.2568960E-01  0.5369934E+00  0.2699412E+01  0.4853459E+00 -0.2297855E+00
 -0.1501280E+02  0.2986230E+01 -0.2568960E-01  0.5498524E+00  0.2711837E+01  0.4998529E+00 -0.2290954E+00
 -0.1523320E+02  0.1500340E+01 -0.2568960E-01  0.5606898E+00  0.2721532E+01  0.5119458E+00 -0.2286581E+00
 -0.1530690E+02 -0.1338170E-05 -0.2568960E-01  0.5696254E+00  0.2727846E+01  0.5215610E+00 -0.2290138E+00
 -0.1523320E+02 -0.1500340E+01 -0.2568960E-01  0.5764151E+00  0.2730805E+01  0.5284612E+00 -0.2301805E+00
 -0.1501280E+02 -0.2986230E+01 -0.2568960E-01  0.5810853E+00  0.2730203E+01  0.5326031E+00 -0.2323661E+00
 -0.1464780E+02 -0.4443360E+01 -0.2568960E-01  0.5835830E+00  0.2726770E+01  0.5340881E+00 -0.2352000E+00
 -0.1414170E+02 -0.5857700E+01 -0.2568960E-01  0.5845011E+00  0.2720043E+01  0.5333316E+00 -0.2391632E+00
 -0.1349950E+02 -0.7215620E+01 -0.2568960E-01  0.5845555E+00  0.2709613E+01  0.5308575E+00 -0.2447355E+00
 -0.1272720E+02 -0.8504060E+01 -0.2568960E-01  0.5851207E+00  0.2693480E+01  0.5273498E+00 -0.2535123E+00
 -0.1183240E+02 -0.9710600E+01 -0.2568960E-01  0.5817276E+00  0.2675828E+01  0.5197611E+00 -0.2612572E+00
 -0.1082360E+02 -0.1082360E+02 -0.2568960E-01  0.5721490E+00  0.2658549E+01  0.5066869E+00 -0.2657497E+00
 -0.9710600E+01 -0.1183240E+02 -0.2568960E-01  0.5626489E+00  0.2637950E+01  0.4927850E+00 -0.2715451E+00
 -0.8504050E+01 -0.1272720E+02 -0.2568960E-01  0.5491963E+00  0.2616727E+01  0.4752697E+00 -0.2752004E+00
 -0.7215620E+01 -0.1349950E+02 -0.2568960E-01  0.5277481E+00  0.2597222E+01  0.4514638E+00 -0.2733103E+00
 -0.5857690E+01 -0.1414170E+02 -0.2568960E-01  0.5069004E+00  0.2573245E+01  0.4272114E+00 -0.2728341E+00
 -0.4443360E+01 -0.1464780E+02 -0.2568960E-01  0.4754473E+00  0.2552408E+01  0.3952841E+00 -0.2641980E+00
 -0.2986230E+01 -0.1501280E+02 -0.2568960E-01  0.4236003E+00  0.2537394E+01  0.3486050E+00 -0.2406485E+00
 -0.1500340E+01 -0.1523320E+02 -0.2568960E-01  0.2373386E+00  0.2592350E+01  0.2024309E+00 -0.1239005E+00
  0.1825330E-06 -0.1530690E+02 -0.2568960E-01  0.8792546E-01  0.2819293E+01  0.8339812E-01 -0.2785030E-01
  0.1500340E+01 -0.1523320E+02 -0.2568960E-01  0.1002794E+00 -0.1111380E+01 -0.4446642E-01  0.8988155E-01
  0.2986230E+01 -0.1501280E+02 -0.2568960E-01  0.3843724E+00 -0.9256491E+00 -0.2311293E+00  0.3071178E+00
  0.4443360E+01 -0.1464780E+02 -0.2568960E-01  0.4762608E+00 -0.8855482E+00 -0.3014088E+00  0.3687506E+00
  0.5857700E+01 -0.1414170E+02 -0.2568960E-01  0.5294011E+00 -0.8485422E+00 -0.3499752E+00  0.3972189E+00
  0.7215620E+01 -0.1349950E+02 -0.2568960E-01  0.5664630E+00 -0.8149831E+00 -0.3885260E+00  0.4122230E+00
  0.8504060E+01 -0.1272720E+02 -0.2568960E-01  0.6007565E+00 -0.7848834E+00 -0.4250176E+00  0.4245802E+00
  0.9710600E+01 -0.1183240E+02 -0.2568960E-01  0.6247800E+00 -0.7567988E+00 -0.4542386E+00  0.4289724E+00
  0.1082360E+02 -0.1082360E+02 -0.2568960E-01  0.6436399E+00 -0.7315476E+00 -0.4789591E+00  0.4299656E+00
  0.1183240E+02 -0.9710590E+01 -0.2568960E-01  0.6626244E+00 -0.7106457E+00 -0.5022301E+00  0.4322454E+00
  0.1272720E+02 -0.8504060E+01 -0.2568960E-01  0.6737262E+00 -0.6911443E+00 -0.5191175E+00  0.4294461E+00
  0.1349950E+02 -0.7215620E+01 -0.2568960E-01  0.6800903E+00 -0.6739520E+00 -0.5313963E+00  0.4244299E+00
  0.1414170E+02 -0.5857700E+01 -0.2568960E-01  0.6871604E+00 -0.6618542E+00 -0.5420693E+00  0.4223155E+00
  0.1464780E+02 -0.4443350E+01 -0.2568960E-01  0.6936145E+00 -0.6542237E+00 -0.5503974E+00  0.4220946E+00
  0.1501280E+02 -0.2986230E+01 -0.2568960E-01  0.6981651E+00 -0.6503467E+00 -0.5556514E+00  0.4227127E+00
  0.1523320E+02 -0.1500330E+01 -0.2568960E-01  0.7000756E+00 -0.6498859E+00 -0.5573671E+00  0.4236126E+00
  0.1530690E+02  0.0000000E+00 -0.1027320E+00  0.6964864E+00 -0.6535273E+00 -0.5529713E+00  0.4234572E+00
  0.1523320E+02  0.1500340E+01 -0.1027320E+00  0.6938881E+00 -0.6610893E+00 -0.5477024E+00  0.4260314E+00
  0.1501280E+02  0.2986230E+01 -0.1027320E+00  0.6893563E+00 -0.6729237E+00 -0.5390785E+00  0.4296585E+00
  0.1464780E+02  0.4443360E+01 -0.1027320E+00  0.6826043E+00 -0.6886628E+00 -0.5270364E+00  0.4337987E+00
  0.1414170E+02  0.5857700E+01 -0.1027320E+00  0.6741644E+00 -0.7089126E+00 -0.5117382E+00  0.4388869E+00
  0.1349950E+02  0.7215620E+01 -0.1027320E+00  0.6646557E+00 -0.7343020E+00 -0.4933730E+00  0.4453653E+00
  0.1272720E+02  0.8504060E+01 -0.1027320E+00  0.6555415E+00 -0.7665100E+00 -0.4722101E+00  0.4547003E+00
  0.1183240E+02  0.9710600E+01 -0.1027320E+00  0.6432489E+00 -0.8028634E+00 -0.4468327E+00  0.4627199E+00
  0.1082360E+02  0.1082360E+02 -0.1027320E+00  0.6262683E+00 -0.8421824E+00 -0.4169920E+00  0.4672575E+00
  0.9710590E+01  0.1183240E+02 -0.1027320E+00  0.6091326E+00 -0.8882510E+00 -0.3842227E+00  0.4726685E+00
  0.8504060E+01  0.1272720E+02 -0.1027320E+00  0.5889415E+00 -0.9398427E+00 -0.3474254E+00  0.4755498E+00
  0.7215620E+01  0.1349950E+02 -0.1027320E+00  0.5627138E+00 -0.9968091E+00 -0.3055449E+00  0.4725347E+00
  0.5857700E+01  0.1414170E+02 -0.1027320E+00  0.5370721E+00 -0.1066247E+01 -0.2596278E+00  0.4701488E+00
  0.4443360E+01  0.1464780E+02 -0.1027320E+00  0.5034580E+00 -0.1147343E+01 -0.2068767E+00  0.4589902E+00
  0.2986230E+01  0.1501280E+02 -0.1027320E+00  0.4537674E+00 -0.1254110E+01 -0.1413120E+00  0.4312027E+00
  0.1500340E+01  0.1523320E+02 -0.1027320E+00  0.3087262E+00 -0.1438424E+01 -0.4074771E-01  0.3060253E+00
 -0.6690860E-06  0.1530690E+02 -0.1027320E+00  0.2085208E+00 -0.1700958E+01  0.2706494E-01  0.2067569E+00
 -0.1500340E+01  0.1523320E+02 -0.1027320E+00  0.1249337E+00 -0.2352666E+01  0.8802913E-01  0.8865263E-01
 -0.2986230E+01  0.1501280E+02 -0.1027320E+00  0.1993364E+00  0.2473983E+01  0.1565396E+00 -0.1234113E+00
 -0.4443360E+01  0.1464780E+02 -0.1027320E+00  0.2736630E+00  0.2409807E+01  0.2036005E+00 -0.1828614E+00
 -0.5857700E+01  0.1414170E+02 -0.1027320E+00  0.3223622E+00  0.2431288E+01  0.2444031E+00 -0.2102011E+00
 -0.7215620E+01  0.1349950E+02 -0.1027320E+00  0.3598128E+00  0.2467749E+01  0.2811682E+00 -0.2245210E+00
 -0.8504060E+01  0.1272720E+02 -0.1027320E+00  0.3945728E+00  0.2499637E+01  0.3160236E+00 -0.2362557E+00
 -0.9710590E+01  0.1183240E+02 -0.1027320E+00  0.4222956E+00  0.2536516E+01  0.3473206E+00 -0.2402122E+00
 -0.1082360E+02  0.1082360E+02 -0.1027320E+00  0.4464824E+00  0.2572020E+01  0.3759969E+00 -0.2407757E+00
 -0.1183240E+02  0.9710590E+01 -0.1027320E+00  0.4702046E+00  0.2599986E+01  0.4029098E+00 -0.2423966E+00
 -0.1272720E+02  0.8504060E+01 -0.1027320E+00  0.4892040E+00  0.2630980E+01  0.4268036E+00 -0.2390800E+00
 -0.1349950E+02  0.7215620E+01 -0.1027320E+00  0.5047496E+00  0.2660869E+01  0.4475415E+00 -0.2334068E+00
 -0.1414170E+02  0.5857690E+01 -0.1027320E+00  0.5201901E+00  0.2682932E+01  0.4664265E+00 -0.2303129E+00
 -0.1464780E+02  0.4443360E+01 -0.1027320E+00  0.5345513E+00  0.2699169E+01  0.4830829E+00 -0.2288581E+00
 -0.1501280E+02  0.2986230E+01 -0.1027320E+00  0.5473465E+00  0.2711612E+01  0.4975237E+00 -0.2281632E+00
 -0.1523320E+02  0.1500340E+01 -0.1027320E+00  0.5581316E+00  0.2721318E+01  0.5095614E+00 -0.2277236E+00
 -0.1530690E+02 -0.1338170E-05 -0.1027320E+00  0.5670271E+00  0.2727638E+01  0.5191343E+00 -0.2280772E+00
 -0.1523320E+02 -0.1500340E+01 -0.1027320E+00  0.5737892E+00  0.2730598E+01  0.5260063E+00 -0.2292410E+00
 -0.1501280E+02 -0.2986230E+01 -0.1027320E+00  0.5784466E+00  0.2730005E+01  0.5301386E+00 -0.2314165E+00
 -0.1464780E+02 -0.4443360E+01 -0.1027320E+00  0.5809407E+00  0.2726576E+01  0.5316243E+00 -0.2342385E+00
 -0.1414170E+02 -0.5857700E+01 -0.1027320E+00  0.5818539E+00  0.2719859E+01  0.5308721E+00 -0.2381779E+00
 -0.1349950E+02 -0.7215620E+01 -0.1027320E+00  0.5818821E+00  0.2709460E+01  0.5283924E+00 -0.2436970E+00
 -0.1272720E+02 -0.8504060E+01 -0.1027320E+00  0.5823573E+00  0.2693414E+01  0.5248426E+00 -0.2523497E+00
 -0.1183240E+02 -0.9710600E+01 -0.1027320E+00  0.5789595E+00  0.2675788E+01  0.5172775E+00 -0.2600348E+00
 -0.1082360E+02 -0.1082360E+02 -0.1027320E+00  0.5694973E+00  0.2658472E+01  0.5043180E+00 -0.2645573E+00
 -0.9710600E+01 -0.1183240E+02 -0.1027320E+00  0.5600039E+00  0.2637902E+01  0.4904553E+00 -0.2702924E+00
 -0.8504050E+01 -0.1272720E+02 -0.1027320E+00  0.5466046E+00  0.2616691E+01  0.4730169E+00 -0.2739190E+00
 -0.7215620E+01 -0.1349950E+02 -0.1027320E+00  0.5254052E+00  0.2597097E+01  0.4494256E+00 -0.2721530E+00
 -0.5857690E+01 -0.1414170E+02 -0.1027320E+00  0.5046465E+00  0.2573153E+01  0.4252869E+00 -0.2716600E+00
 -0.4443360E+01 -0.1464780E+02 -0.1027320E+00  0.4734448E+00  0.2552276E+01  0.3935845E+00 -0.2631373E+00
 -0.2986230E+01 -0.1501280E+02 -0.1027320E+00  0.4217598E+00  0.2537296E+01  0.3470669E+00 -0.2396370E+00
 -0.1500340E+01 -0.1523320E+02 -0.1027320E+00  0.2364913E+00  0.2591957E+01  0.2016596E+00 -0.1235375E+00
  0.1825330E-06 -0.1530690E+02 -0.1027320E+00  0.8759489E-01  0.2818391E+01  0.8305953E-01 -0.2782047E-01
  0.1500340E+01 -0.1523320E+02 -0.1027320E+00  0.9991002E-01 -0.1110989E+01 -0.4433761E-01  0.8953317E-01
  0.2986230E+01 -0.1501280E+02 -0.1027320E+00  0.3826527E+00 -0.9256578E+00 -0.2300926E+00  0.3057458E+00
  0.4443360E+01 -0.1464780E+02 -0.1027320E+00  0.4742487E+00 -0.8856000E+00 -0.3001164E+00  0.3672083E+00
  0.5857700E+01 -0.1414170E+02 -0.1027320E+00  0.5270385E+00 -0.8486041E+00 -0.3483889E+00  0.3954678E+00
  0.7215620E+01 -0.1349950E+02 -0.1027320E+00  0.5639101E+00 -0.8150374E+00 -0.3867528E+00  0.4103863E+00
  0.8504060E+01 -0.1272720E+02 -0.1027320E+00  0.5978904E+00 -0.7849200E+00 -0.4229745E+00  0.4225702E+00
  0.9710600E+01 -0.1183240E+02 -0.1027320E+00  0.6218228E+00 -0.7568471E+00 -0.4520679E+00  0.4269638E+00
  0.1082360E+02 -0.1082360E+02 -0.1027320E+00  0.6406411E+00 -0.7316157E+00 -0.4766985E+00  0.4279948E+00
  0.1183240E+02 -0.9710590E+01 -0.1027320E+00  0.6594436E+00 -0.7106818E+00 -0.4998037E+00  0.4301884E+00
  0.1272720E+02 -0.8504060E+01 -0.1027320E+00  0.6705183E+00 -0.6911903E+00 -0.5166261E+00  0.4274251E+00
