 VARIABLES="X" "Y" "Z" "abs(eta) (m)" "angle(phi) (rad)" "PRE1" "PRE2"
ZONE N=   3200 ,E =    3136 ,F=FEPOINT,ET=QUADRILATERAL
  0.1672760E+02  0.0000000E+00  0.0000000E+00  0.2827855E-01  0.3099012E+01  0.2825292E-01 -0.1203755E-02
  0.1664710E+02  0.1639590E+01  0.0000000E+00  0.2559701E-01 -0.3079221E+01  0.2554723E-01  0.1595499E-02
  0.1640620E+02  0.3263390E+01  0.0000000E+00  0.2328889E-01 -0.2942583E+01  0.2282923E-01  0.4604194E-02
  0.1600730E+02  0.4855770E+01  0.0000000E+00  0.2186909E-01 -0.2765397E+01  0.2033976E-01  0.8034375E-02
  0.1545430E+02  0.6401380E+01  0.0000000E+00  0.2177897E-01 -0.2556274E+01  0.1815356E-01  0.1203213E-01
  0.1475240E+02  0.7885340E+01  0.0000000E+00  0.2338937E-01 -0.2346318E+01  0.1637464E-01  0.1670131E-01
  0.1390850E+02  0.9293360E+01  0.0000000E+00  0.2617549E-01 -0.2173101E+01  0.1482956E-01  0.2156944E-01
  0.1293060E+02  0.1061190E+02  0.0000000E+00  0.2942056E-01 -0.2038128E+01  0.1325413E-01  0.2626589E-01
  0.1182820E+02  0.1182820E+02  0.0000000E+00  0.3365717E-01 -0.1934341E+01  0.1196815E-01  0.3145741E-01
  0.1061190E+02  0.1293060E+02  0.0000000E+00  0.3980854E-01 -0.1864212E+01  0.1151356E-01  0.3810719E-01
  0.9293360E+01  0.1390850E+02  0.0000000E+00  0.4702920E-01 -0.1818272E+01  0.1152015E-01  0.4559641E-01
  0.7885330E+01  0.1475240E+02  0.0000000E+00  0.5627490E-01 -0.1793087E+01  0.1240663E-01  0.5489026E-01
  0.6401380E+01  0.1545430E+02  0.0000000E+00  0.6869177E-01 -0.1784137E+01  0.1454385E-01  0.6713445E-01
  0.4855770E+01  0.1600730E+02  0.0000000E+00  0.8657752E-01 -0.1796811E+01  0.1940165E-01  0.8437560E-01
  0.3263390E+01  0.1640620E+02  0.0000000E+00  0.1146049E+00 -0.1824398E+01  0.2875350E-01  0.1109393E+00
  0.1639590E+01  0.1664710E+02  0.0000000E+00  0.1500158E+00 -0.1845531E+01  0.4069808E-01  0.1443898E+00
 -0.7311870E-06  0.1672760E+02  0.0000000E+00  0.1723448E+00 -0.1832619E+01  0.4460999E-01  0.1664713E+00
 -0.1639590E+01  0.1664710E+02  0.0000000E+00  0.1774040E+00 -0.1785452E+01  0.3778905E-01  0.1733326E+00
 -0.3263390E+01  0.1640620E+02  0.0000000E+00  0.1691442E+00 -0.1702719E+01  0.2224933E-01  0.1676745E+00
 -0.4855770E+01  0.1600730E+02  0.0000000E+00  0.1598992E+00 -0.1620244E+01  0.7903470E-02  0.1597037E+00
 -0.6401380E+01  0.1545430E+02  0.0000000E+00  0.1532756E+00 -0.1553793E+01 -0.2606127E-02  0.1532535E+00
 -0.7885340E+01  0.1475240E+02  0.0000000E+00  0.1491533E+00 -0.1501874E+01 -0.1027186E-01  0.1487992E+00
 -0.9293360E+01  0.1390850E+02  0.0000000E+00  0.1451917E+00 -0.1456153E+01 -0.1660887E-01  0.1442387E+00
 -0.1061190E+02  0.1293060E+02  0.0000000E+00  0.1417838E+00 -0.1416564E+01 -0.2178100E-01  0.1401008E+00
 -0.1182820E+02  0.1182820E+02  0.0000000E+00  0.1387638E+00 -0.1381191E+01 -0.2615297E-01  0.1362769E+00
 -0.1293060E+02  0.1061190E+02  0.0000000E+00  0.1363394E+00 -0.1353894E+01 -0.2934100E-01  0.1331448E+00
 -0.1390850E+02  0.9293360E+01  0.0000000E+00  0.1339971E+00 -0.1330740E+01 -0.3185875E-01  0.1301547E+00
 -0.1475240E+02  0.7885330E+01  0.0000000E+00  0.1315707E+00 -0.1309599E+01 -0.3397654E-01  0.1271080E+00
 -0.1545430E+02  0.6401370E+01  0.0000000E+00  0.1291800E+00 -0.1292487E+01 -0.3548967E-01  0.1242094E+00
 -0.1600730E+02  0.4855770E+01  0.0000000E+00  0.1266514E+00 -0.1280258E+01 -0.3628160E-01  0.1213434E+00
 -0.1640620E+02  0.3263390E+01  0.0000000E+00  0.1237918E+00 -0.1272193E+01 -0.3641773E-01  0.1183139E+00
 -0.1664710E+02  0.1639590E+01  0.0000000E+00  0.1205651E+00 -0.1268360E+01 -0.3590993E-01  0.1150931E+00
 -0.1672760E+02 -0.1462370E-05  0.0000000E+00  0.1174559E+00 -0.1267761E+01 -0.3505105E-01  0.1121040E+00
 -0.1664710E+02 -0.1639590E+01  0.0000000E+00  0.1144258E+00 -0.1269871E+01 -0.3391623E-01  0.1092838E+00
 -0.1640620E+02 -0.3263400E+01  0.0000000E+00  0.1111407E+00 -0.1274665E+01 -0.3243330E-01  0.1063031E+00
 -0.1600730E+02 -0.4855770E+01  0.0000000E+00  0.1072542E+00 -0.1284519E+01 -0.3028677E-01  0.1028892E+00
 -0.1545430E+02 -0.6401380E+01  0.0000000E+00  0.1026231E+00 -0.1300266E+01 -0.2742525E-01  0.9889062E-01
 -0.1475240E+02 -0.7885340E+01  0.0000000E+00  0.9715894E-01 -0.1323336E+01 -0.2379830E-01  0.9419926E-01
 -0.1390850E+02 -0.9293360E+01  0.0000000E+00  0.9145497E-01 -0.1353336E+01 -0.1973142E-01  0.8930108E-01
 -0.1293060E+02 -0.1061190E+02  0.0000000E+00  0.8600976E-01 -0.1388799E+01 -0.1556724E-01  0.8458924E-01
 -0.1182820E+02 -0.1182820E+02  0.0000000E+00  0.8012782E-01 -0.1433804E+01 -0.1094260E-01  0.7937712E-01
 -0.1061190E+02 -0.1293060E+02  0.0000000E+00  0.7286531E-01 -0.1498790E+01 -0.5242225E-02  0.7267649E-01
 -0.9293350E+01 -0.1390850E+02  0.0000000E+00  0.6512457E-01 -0.1586464E+01  0.1020330E-02  0.6511658E-01
 -0.7885340E+01 -0.1475240E+02  0.0000000E+00  0.5633288E-01 -0.1720718E+01  0.8413940E-02  0.5570098E-01
 -0.6401370E+01 -0.1545430E+02  0.0000000E+00  0.4671095E-01 -0.1957945E+01  0.1763570E-01  0.4325385E-01
 -0.4855760E+01 -0.1600730E+02  0.0000000E+00  0.3962914E-01 -0.2437489E+01  0.3020502E-01  0.2565395E-01
 -0.3263390E+01 -0.1640620E+02  0.0000000E+00  0.4896408E-01  0.3111392E+01  0.4894175E-01 -0.1478548E-02
 -0.1639590E+01 -0.1664710E+02  0.0000000E+00  0.8034219E-01  0.2683111E+01  0.7204489E-01 -0.3555843E-01
  0.1994750E-06 -0.1672760E+02  0.0000000E+00  0.1039830E+00  0.2551830E+01  0.8641743E-01 -0.5783156E-01
  0.1639600E+01 -0.1664710E+02  0.0000000E+00  0.1097047E+00  0.2514794E+01  0.8885090E-01 -0.6434783E-01
  0.3263390E+01 -0.1640620E+02  0.0000000E+00  0.9976657E-01  0.2522206E+01  0.8123338E-01 -0.5791811E-01
  0.4855770E+01 -0.1600730E+02  0.0000000E+00  0.8777247E-01  0.2545609E+01  0.7264022E-01 -0.4926870E-01
  0.6401380E+01 -0.1545430E+02  0.0000000E+00  0.7858441E-01  0.2572028E+01  0.6617876E-01 -0.4237784E-01
  0.7885340E+01 -0.1475240E+02  0.0000000E+00  0.7228807E-01  0.2593606E+01  0.6170331E-01 -0.3765988E-01
  0.9293360E+01 -0.1390850E+02  0.0000000E+00  0.6632033E-01  0.2621825E+01  0.5756172E-01 -0.3293987E-01
  0.1061190E+02 -0.1293060E+02  0.0000000E+00  0.6102133E-01  0.2651811E+01  0.5384739E-01 -0.2870646E-01
  0.1182820E+02 -0.1182820E+02  0.0000000E+00  0.5610676E-01  0.2683193E+01  0.5031440E-01 -0.2482801E-01
  0.1293060E+02 -0.1061190E+02  0.0000000E+00  0.5207082E-01  0.2711717E+01  0.4733328E-01 -0.2170094E-01
  0.1390850E+02 -0.9293360E+01  0.0000000E+00  0.4824921E-01  0.2742678E+01  0.4446083E-01 -0.1874088E-01
  0.1475240E+02 -0.7885330E+01  0.0000000E+00  0.4439953E-01  0.2779408E+01  0.4151912E-01 -0.1573153E-01
  0.1545430E+02 -0.6401380E+01  0.0000000E+00  0.4078194E-01  0.2819921E+01  0.3869016E-01 -0.1289331E-01
  0.1600730E+02 -0.4855760E+01  0.0000000E+00  0.3739657E-01  0.2867628E+01  0.3600189E-01 -0.1011766E-01
  0.1640620E+02 -0.3263390E+01  0.0000000E+00  0.3415344E-01  0.2929170E+01  0.3338577E-01 -0.7200524E-02
  0.1664710E+02 -0.1639590E+01  0.0000000E+00  0.3114187E-01  0.3009204E+01  0.3086936E-01 -0.4110806E-02
  0.1672760E+02  0.0000000E+00 -0.2568960E-01  0.2824594E-01  0.3099113E+01  0.2822045E-01 -0.1199504E-02
  0.1664710E+02  0.1639590E+01 -0.2568960E-01  0.2556815E-01 -0.3079052E+01  0.2551817E-01  0.1597999E-02
  0.1640620E+02  0.3263390E+01 -0.2568960E-01  0.2326492E-01 -0.2942378E+01  0.2280480E-01  0.4604110E-02
  0.1600730E+02  0.4855770E+01 -0.2568960E-01  0.2184775E-01 -0.2765250E+01  0.2031874E-01  0.8029521E-02
  0.1545430E+02  0.6401380E+01 -0.2568960E-01  0.2175704E-01 -0.2556267E+01  0.1813519E-01  0.1202013E-01
  0.1475240E+02  0.7885340E+01 -0.2568960E-01  0.2336113E-01 -0.2346459E+01  0.1635721E-01  0.1667885E-01
  0.1390850E+02  0.9293360E+01 -0.2568960E-01  0.2614024E-01 -0.2173258E+01  0.1481295E-01  0.2153807E-01
  0.1293060E+02  0.1061190E+02 -0.2568960E-01  0.2938356E-01 -0.2038264E+01  0.1324103E-01  0.2623106E-01
  0.1182820E+02  0.1182820E+02 -0.2568960E-01  0.3361855E-01 -0.1934463E+01  0.1195822E-01  0.3141987E-01
  0.1061190E+02  0.1293060E+02 -0.2568960E-01  0.3975863E-01 -0.1864292E+01  0.1150216E-01  0.3805849E-01
  0.9293360E+01  0.1390850E+02 -0.2568960E-01  0.4697316E-01 -0.1818346E+01  0.1150979E-01  0.4554122E-01
  0.7885330E+01  0.1475240E+02 -0.2568960E-01  0.5620993E-01 -0.1793147E+01  0.1239558E-01  0.5482614E-01
  0.6401380E+01  0.1545430E+02 -0.2568960E-01  0.6861503E-01 -0.1784220E+01  0.1453316E-01  0.6705825E-01
  0.4855770E+01  0.1600730E+02 -0.2568960E-01  0.8648277E-01 -0.1796877E+01  0.1938598E-01  0.8428199E-01
  0.3263390E+01  0.1640620E+02 -0.2568960E-01  0.1144860E+00 -0.1824473E+01  0.2873190E-01  0.1108221E+00
  0.1639590E+01  0.1664710E+02 -0.2568960E-01  0.1498723E+00 -0.1845607E+01  0.4067002E-01  0.1442486E+00
 -0.7311870E-06  0.1672760E+02 -0.2568960E-01  0.1721853E+00 -0.1832713E+01  0.4458429E-01  0.1663130E+00
 -0.1639590E+01  0.1664710E+02 -0.2568960E-01  0.1772259E+00 -0.1785527E+01  0.3776402E-01  0.1731557E+00
 -0.3263390E+01  0.1640620E+02 -0.2568960E-01  0.1689694E+00 -0.1702779E+01  0.2223642E-01  0.1674998E+00
 -0.4855770E+01  0.1600730E+02 -0.2568960E-01  0.1597282E+00 -0.1620288E+01  0.7901947E-02  0.1595326E+00
 -0.6401380E+01  0.1545430E+02 -0.2568960E-01  0.1531128E+00 -0.1553841E+01 -0.2595985E-02  0.1530908E+00
 -0.7885340E+01  0.1475240E+02 -0.2568960E-01  0.1489869E+00 -0.1501894E+01 -0.1025745E-01  0.1486334E+00
 -0.9293360E+01  0.1390850E+02 -0.2568960E-01  0.1450315E+00 -0.1456176E+01 -0.1658719E-01  0.1440798E+00
 -0.1061190E+02  0.1293060E+02 -0.2568960E-01  0.1416275E+00 -0.1416582E+01 -0.2175455E-01  0.1399468E+00
 -0.1182820E+02  0.1182820E+02 -0.2568960E-01  0.1386119E+00 -0.1381225E+01 -0.2611980E-01  0.1361286E+00
 -0.1293060E+02  0.1061190E+02 -0.2568960E-01  0.1361890E+00 -0.1353912E+01 -0.2930618E-01  0.1329985E+00
 -0.1390850E+02  0.9293360E+01 -0.2568960E-01  0.1338476E+00 -0.1330745E+01 -0.3182254E-01  0.1300097E+00
 -0.1475240E+02  0.7885330E+01 -0.2568960E-01  0.1314228E+00 -0.1309609E+01 -0.3393701E-01  0.1269655E+00
 -0.1545430E+02  0.6401370E+01 -0.2568960E-01  0.1290328E+00 -0.1292498E+01 -0.3544785E-01  0.1240682E+00
 -0.1600730E+02  0.4855770E+01 -0.2568960E-01  0.1265054E+00 -0.1280264E+01 -0.3623903E-01  0.1212037E+00
 -0.1640620E+02  0.3263390E+01 -0.2568960E-01  0.1236483E+00 -0.1272196E+01 -0.3637522E-01  0.1181768E+00
 -0.1664710E+02  0.1639590E+01 -0.2568960E-01  0.1204260E+00 -0.1268357E+01 -0.3586880E-01  0.1149602E+00
 -0.1672760E+02 -0.1462370E-05 -0.2568960E-01  0.1173200E+00 -0.1267753E+01 -0.3501135E-01  0.1119740E+00
 -0.1664710E+02 -0.1639590E+01 -0.2568960E-01  0.1142918E+00 -0.1269868E+01 -0.3387686E-01  0.1091558E+00
 -0.1640620E+02 -0.3263400E+01 -0.2568960E-01  0.1110092E+00 -0.1274675E+01 -0.3239391E-01  0.1061776E+00
 -0.1600730E+02 -0.4855770E+01 -0.2568960E-01  0.1071277E+00 -0.1284536E+01 -0.3024929E-01  0.1027683E+00
 -0.1545430E+02 -0.6401380E+01 -0.2568960E-01  0.1025047E+00 -0.1300286E+01 -0.2739164E-01  0.9877713E-01
 -0.1475240E+02 -0.7885340E+01 -0.2568960E-01  0.9705227E-01 -0.1323345E+01 -0.2377139E-01  0.9409603E-01
 -0.1390850E+02 -0.9293360E+01 -0.2568960E-01  0.9135835E-01 -0.1353335E+01 -0.1971066E-01  0.8920671E-01
 -0.1293060E+02 -0.1061190E+02 -0.2568960E-01  0.8591715E-01 -0.1388806E+01 -0.1554994E-01  0.8449826E-01
 -0.1182820E+02 -0.1182820E+02 -0.2568960E-01  0.8003838E-01 -0.1433833E+01 -0.1092809E-01  0.7928884E-01
 -0.1061190E+02 -0.1293060E+02 -0.2568960E-01  0.7278827E-01 -0.1498790E+01 -0.5236724E-02  0.7259965E-01
 -0.9293350E+01 -0.1390850E+02 -0.2568960E-01  0.6505420E-01 -0.1586477E+01  0.1020067E-02  0.6504621E-01
 -0.7885340E+01 -0.1475240E+02 -0.2568960E-01  0.5627107E-01 -0.1720752E+01  0.8406607E-02  0.5563957E-01
 -0.6401370E+01 -0.1545430E+02 -0.2568960E-01  0.4665943E-01 -0.1958034E+01  0.1762008E-01  0.4320458E-01
 -0.4855760E+01 -0.1600730E+02 -0.2568960E-01  0.3958693E-01 -0.2437626E+01  0.3017635E-01  0.2562250E-01
 -0.3263390E+01 -0.1640620E+02 -0.2568960E-01  0.4891919E-01  0.3111208E+01  0.4889661E-01 -0.1486146E-02
 -0.1639590E+01 -0.1664710E+02 -0.2568960E-01  0.8027976E-01  0.2682961E+01  0.7198359E-01 -0.3554157E-01
  0.1994750E-06 -0.1672760E+02 -0.2568960E-01  0.1039051E+00  0.2551718E+01  0.8634622E-01 -0.5779785E-01
  0.1639600E+01 -0.1664710E+02 -0.2568960E-01  0.1096078E+00  0.2514743E+01  0.8876912E-01 -0.6429559E-01
  0.3263390E+01 -0.1640620E+02 -0.2568960E-01  0.9967480E-01  0.2522159E+01  0.8115596E-01 -0.5786861E-01
  0.4855770E+01 -0.1600730E+02 -0.2568960E-01  0.8768672E-01  0.2545576E+01  0.7256763E-01 -0.4922296E-01
  0.6401380E+01 -0.1545430E+02 -0.2568960E-01  0.7850994E-01  0.2571977E+01  0.6611387E-01 -0.4234107E-01
  0.7885340E+01 -0.1475240E+02 -0.2568960E-01  0.7221146E-01  0.2593600E+01  0.6163767E-01 -0.3762037E-01
  0.9293360E+01 -0.1390850E+02 -0.2568960E-01  0.6625187E-01  0.2621800E+01  0.5750147E-01 -0.3290732E-01
  0.1061190E+02 -0.1293060E+02 -0.2568960E-01  0.6095792E-01  0.2651777E+01  0.5379046E-01 -0.2867847E-01
  0.1182820E+02 -0.1182820E+02 -0.2568960E-01  0.5605103E-01  0.2683141E+01  0.5026315E-01 -0.2480593E-01
  0.1293060E+02 -0.1061190E+02 -0.2568960E-01  0.5201759E-01  0.2711674E+01  0.4728398E-01 -0.2168076E-01
  0.1390850E+02 -0.9293360E+01 -0.2568960E-01  0.4819788E-01  0.2742651E+01  0.4441303E-01 -0.1872214E-01
  0.1475240E+02 -0.7885330E+01 -0.2568960E-01  0.4435186E-01  0.2779393E+01  0.4147430E-01 -0.1571527E-01
  0.1545430E+02 -0.6401380E+01 -0.2568960E-01  0.4073752E-01  0.2819942E+01  0.3864830E-01 -0.1287846E-01
  0.1600730E+02 -0.4855760E+01 -0.2568960E-01  0.3735424E-01  0.2867690E+01  0.3596177E-01 -0.1010397E-01
  0.1640620E+02 -0.3263390E+01 -0.2568960E-01  0.3411433E-01  0.2929256E+01  0.3334817E-01 -0.7189407E-02
  0.1664710E+02 -0.1639590E+01 -0.2568960E-01  0.3110594E-01  0.3009283E+01  0.3083406E-01 -0.4103629E-02
  0.1672760E+02  0.0000000E+00 -0.1027320E+00  0.2814968E-01  0.3099483E+01  0.2812473E-01 -0.1185020E-02
  0.1664710E+02  0.1639590E+01 -0.1027320E+00  0.2548454E-01 -0.3078487E+01  0.2543381E-01  0.1607160E-02
  0.1640620E+02  0.3263390E+01 -0.1027320E+00  0.2319494E-01 -0.2941694E+01  0.2273305E-01  0.4605814E-02
  0.1600730E+02  0.4855770E+01 -0.1027320E+00  0.2178690E-01 -0.2764738E+01  0.2025804E-01  0.8017524E-02
  0.1545430E+02  0.6401380E+01 -0.1027320E+00  0.2169410E-01 -0.2556207E+01  0.1808202E-01  0.1198644E-01
  0.1475240E+02  0.7885340E+01 -0.1027320E+00  0.2328004E-01 -0.2346843E+01  0.1630681E-01  0.1661470E-01
  0.1390850E+02  0.9293360E+01 -0.1027320E+00  0.2603891E-01 -0.2173708E+01  0.1476520E-01  0.2144794E-01
  0.1293060E+02  0.1061190E+02 -0.1027320E+00  0.2927610E-01 -0.2038623E+01  0.1320198E-01  0.2613040E-01
  0.1182820E+02  0.1182820E+02 -0.1027320E+00  0.3350658E-01 -0.1934795E+01  0.1192880E-01  0.3131125E-01
  0.1061190E+02  0.1293060E+02 -0.1027320E+00  0.3961226E-01 -0.1864517E+01  0.1146837E-01  0.3791580E-01
  0.9293360E+01  0.1390850E+02 -0.1027320E+00  0.4680766E-01 -0.1818536E+01  0.1147787E-01  0.4537858E-01
  0.7885330E+01  0.1475240E+02 -0.1027320E+00  0.5601792E-01 -0.1793303E+01  0.1236177E-01  0.5463693E-01
  0.6401380E+01  0.1545430E+02 -0.1027320E+00  0.6838736E-01 -0.1784459E+01  0.1450094E-01  0.6683228E-01
  0.4855770E+01  0.1600730E+02 -0.1027320E+00  0.8620111E-01 -0.1797069E+01  0.1933894E-01  0.8400379E-01
  0.3263390E+01  0.1640620E+02 -0.1027320E+00  0.1141213E+00 -0.1824656E+01  0.2866062E-01  0.1104638E+00
  0.1639590E+01  0.1664710E+02 -0.1027320E+00  0.1494368E+00 -0.1845809E+01  0.4058097E-01  0.1438212E+00
 -0.7311870E-06  0.1672760E+02 -0.1027320E+00  0.1716943E+00 -0.1832955E+01  0.4449730E-01  0.1658280E+00
 -0.1639590E+01  0.1664710E+02 -0.1027320E+00  0.1766865E+00 -0.1785728E+01  0.3768382E-01  0.1726211E+00
 -0.3263390E+01  0.1640620E+02 -0.1027320E+00  0.1684422E+00 -0.1702923E+01  0.2219101E-01  0.1669740E+00
 -0.4855770E+01  0.1600730E+02 -0.1027320E+00  0.1592147E+00 -0.1620403E+01  0.7894901E-02  0.1590189E+00
 -0.6401380E+01  0.1545430E+02 -0.1027320E+00  0.1526252E+00 -0.1553971E+01 -0.2567848E-02  0.1526036E+00
 -0.7885340E+01  0.1475240E+02 -0.1027320E+00  0.1484895E+00 -0.1501945E+01 -0.1021560E-01  0.1481377E+00
 -0.9293360E+01  0.1390850E+02 -0.1027320E+00  0.1445516E+00 -0.1456233E+01 -0.1652405E-01  0.1436040E+00
 -0.1061190E+02  0.1293060E+02 -0.1027320E+00  0.1411592E+00 -0.1416629E+01 -0.2167598E-01  0.1394850E+00
 -0.1182820E+02  0.1182820E+02 -0.1027320E+00  0.1381564E+00 -0.1381316E+01 -0.2602159E-01  0.1356837E+00
 -0.1293060E+02  0.1061190E+02 -0.1027320E+00  0.1357379E+00 -0.1353973E+01 -0.2920101E-01  0.1325597E+00
 -0.1390850E+02  0.9293360E+01 -0.1027320E+00  0.1333998E+00 -0.1330772E+01 -0.3171264E-01  0.1295755E+00
 -0.1475240E+02  0.7885330E+01 -0.1027320E+00  0.1309795E+00 -0.1309642E+01 -0.3381842E-01  0.1265383E+00
 -0.1545430E+02  0.6401370E+01 -0.1027320E+00  0.1285917E+00 -0.1292540E+01 -0.3532146E-01  0.1236456E+00
 -0.1600730E+02  0.4855770E+01 -0.1027320E+00  0.1260670E+00 -0.1280296E+01 -0.3610963E-01  0.1207849E+00
 -0.1640620E+02  0.3263390E+01 -0.1027320E+00  0.1232175E+00 -0.1272214E+01 -0.3624628E-01  0.1177657E+00
 -0.1664710E+02  0.1639590E+01 -0.1027320E+00  0.1200082E+00 -0.1268354E+01 -0.3574480E-01  0.1145612E+00
 -0.1672760E+02 -0.1462370E-05 -0.1027320E+00  0.1169114E+00 -0.1267749E+01 -0.3488991E-01  0.1115839E+00
 -0.1664710E+02 -0.1639590E+01 -0.1027320E+00  0.1138884E+00 -0.1269878E+01 -0.3375622E-01  0.1087708E+00
 -0.1640620E+02 -0.3263400E+01 -0.1027320E+00  0.1106126E+00 -0.1274718E+01 -0.3227362E-01  0.1057996E+00
 -0.1600730E+02 -0.4855770E+01 -0.1027320E+00  0.1067459E+00 -0.1284601E+01 -0.3013480E-01  0.1024040E+00
 -0.1545430E+02 -0.6401380E+01 -0.1027320E+00  0.1021470E+00 -0.1300358E+01 -0.2728895E-01  0.9843440E-01
 -0.1475240E+02 -0.7885340E+01 -0.1027320E+00  0.9672941E-01 -0.1323384E+01 -0.2368863E-01  0.9378394E-01
 -0.1390850E+02 -0.9293360E+01 -0.1027320E+00  0.9106554E-01 -0.1353341E+01 -0.1964694E-01  0.8892092E-01
 -0.1293060E+02 -0.1061190E+02 -0.1027320E+00  0.8563654E-01 -0.1388843E+01 -0.1549603E-01  0.8422286E-01
 -0.1182820E+02 -0.1182820E+02 -0.1027320E+00  0.7976735E-01 -0.1433932E+01 -0.1088324E-01  0.7902142E-01
 -0.1061190E+02 -0.1293060E+02 -0.1027320E+00  0.7255459E-01 -0.1498798E+01 -0.5219331E-02  0.7236662E-01
 -0.9293350E+01 -0.1390850E+02 -0.1027320E+00  0.6484098E-01 -0.1586531E+01  0.1020208E-02  0.6483296E-01
 -0.7885340E+01 -0.1475240E+02 -0.1027320E+00  0.5608369E-01 -0.1720855E+01  0.8384296E-02  0.5545343E-01
 -0.6401370E+01 -0.1545430E+02 -0.1027320E+00  0.4650337E-01 -0.1958310E+01  0.1757306E-01  0.4305521E-01
 -0.4855760E+01 -0.1600730E+02 -0.1027320E+00  0.3945907E-01 -0.2438072E+01  0.3009028E-01  0.2552632E-01
 -0.3263390E+01 -0.1640620E+02 -0.1027320E+00  0.4877758E-01  0.3110822E+01  0.4875449E-01 -0.1500678E-02
 -0.1639590E+01 -0.1664710E+02 -0.1027320E+00  0.8008534E-01  0.2682538E+01  0.7179426E-01 -0.3548587E-01
  0.1994750E-06 -0.1672760E+02 -0.1027320E+00  0.1036569E+00  0.2551426E+01  0.8612312E-01 -0.5768498E-01
  0.1639600E+01 -0.1664710E+02 -0.1027320E+00  0.1093099E+00  0.2514600E+01  0.8851866E-01 -0.6413349E-01
  0.3263390E+01 -0.1640620E+02 -0.1027320E+00  0.9939358E-01  0.2522021E+01  0.8091903E-01 -0.5771650E-01
  0.4855770E+01 -0.1600730E+02 -0.1027320E+00  0.8742721E-01  0.2545471E+01  0.7234772E-01 -0.4908485E-01
  0.6401380E+01 -0.1545430E+02 -0.1027320E+00  0.7828551E-01  0.2571815E+01  0.6591803E-01 -0.4223073E-01
  0.7885340E+01 -0.1475240E+02 -0.1027320E+00  0.7198087E-01  0.2593572E+01  0.6143979E-01 -0.3750197E-01
  0.9293360E+01 -0.1390850E+02 -0.1027320E+00  0.6604490E-01  0.2621715E+01  0.5731904E-01 -0.3280941E-01
  0.1061190E+02 -0.1293060E+02 -0.1027320E+00  0.6076777E-01  0.2651673E+01  0.5361968E-01 -0.2859460E-01
  0.1182820E+02 -0.1182820E+02 -0.1027320E+00  0.5588264E-01  0.2682983E+01  0.5010824E-01 -0.2473933E-01
  0.1293060E+02 -0.1061190E+02 -0.1027320E+00  0.5185716E-01  0.2711546E+01  0.4713536E-01 -0.2161995E-01
  0.1390850E+02 -0.9293360E+01 -0.1027320E+00  0.4804453E-01  0.2742581E+01  0.4427041E-01 -0.1866568E-01
