 VARIABLES="X" "Y" "Z" "abs(eta) (m)" "angle(phi) (rad)" "PRE1" "PRE2"
ZONE N=   3200 ,E =    3136 ,F=FEPOINT,ET=QUADRILATERAL
  0.1530690E+02  0.0000000E+00  0.0000000E+00  0.3291541E+00 -0.9734029E+00 -0.1851456E+00  0.2721461E+00
  0.1523320E+02  0.1500340E+01  0.0000000E+00  0.3265100E+00 -0.9681209E+00 -0.1850817E+00  0.2689861E+00
  0.1501280E+02  0.2986230E+01  0.0000000E+00  0.3241796E+00 -0.9668489E+00 -0.1841003E+00  0.2668324E+00
  0.1464780E+02  0.4443360E+01  0.0000000E+00  0.3220477E+00 -0.9691806E+00 -0.1822710E+00  0.2655033E+00
  0.1414170E+02  0.5857700E+01  0.0000000E+00  0.3191267E+00 -0.9743381E+00 -0.1792585E+00  0.2640232E+00
  0.1349950E+02  0.7215620E+01  0.0000000E+00  0.3129918E+00 -0.9814093E+00 -0.1739770E+00  0.2601843E+00
  0.1272720E+02  0.8504060E+01  0.0000000E+00  0.3041348E+00 -0.9915199E+00 -0.1664890E+00  0.2545179E+00
  0.1183240E+02  0.9710600E+01  0.0000000E+00  0.2940109E+00 -0.1005148E+01 -0.1575791E+00  0.2482161E+00
  0.1082360E+02  0.1082360E+02  0.0000000E+00  0.2842875E+00 -0.1021658E+01 -0.1483845E+00  0.2424900E+00
  0.9710590E+01  0.1183240E+02  0.0000000E+00  0.2725126E+00 -0.1041536E+01 -0.1375903E+00  0.2352276E+00
  0.8504060E+01  0.1272720E+02  0.0000000E+00  0.2563885E+00 -0.1065766E+01 -0.1240494E+00  0.2243809E+00
  0.7215620E+01  0.1349950E+02  0.0000000E+00  0.2408251E+00 -0.1093747E+01 -0.1105772E+00  0.2139379E+00
  0.5857700E+01  0.1414170E+02  0.0000000E+00  0.2170976E+00 -0.1131620E+01 -0.9230854E-01  0.1964955E+00
  0.4443360E+01  0.1464780E+02  0.0000000E+00  0.1855756E+00 -0.1185696E+01 -0.6971198E-01  0.1719842E+00
  0.2986230E+01  0.1501280E+02  0.0000000E+00  0.1292879E+00 -0.1319211E+01 -0.3218491E-01  0.1252177E+00
  0.1500340E+01  0.1523320E+02  0.0000000E+00  0.7369435E-01  0.2976721E+01  0.7269501E-01 -0.1209514E-01
 -0.6690860E-06  0.1530690E+02  0.0000000E+00  0.1515882E+00  0.2588102E+01  0.1289553E+00 -0.7968378E-01
 -0.1500340E+01  0.1523320E+02  0.0000000E+00  0.2064670E+00  0.2502935E+01  0.1657716E+00 -0.1230787E+00
 -0.2986230E+01  0.1501280E+02  0.0000000E+00  0.2406293E+00  0.2448549E+01  0.1851172E+00 -0.1537337E+00
 -0.4443360E+01  0.1464780E+02  0.0000000E+00  0.2414255E+00  0.2440130E+01  0.1844248E+00 -0.1558004E+00
 -0.5857700E+01  0.1414170E+02  0.0000000E+00  0.2428381E+00  0.2439232E+01  0.1853629E+00 -0.1568786E+00
 -0.7215620E+01  0.1349950E+02  0.0000000E+00  0.2438051E+00  0.2442370E+01  0.1865945E+00 -0.1569185E+00
 -0.8504060E+01  0.1272720E+02  0.0000000E+00  0.2414038E+00  0.2450338E+01  0.1859887E+00 -0.1538960E+00
 -0.9710590E+01  0.1183240E+02  0.0000000E+00  0.2413517E+00  0.2455312E+01  0.1867116E+00 -0.1529360E+00
 -0.1082360E+02  0.1082360E+02  0.0000000E+00  0.2401227E+00  0.2461293E+01  0.1866677E+00 -0.1510434E+00
 -0.1183240E+02  0.9710590E+01  0.0000000E+00  0.2379617E+00  0.2467310E+01  0.1858850E+00 -0.1485684E+00
 -0.1272720E+02  0.8504060E+01  0.0000000E+00  0.2359089E+00  0.2471683E+01  0.1849237E+00 -0.1464794E+00
 -0.1349950E+02  0.7215620E+01  0.0000000E+00  0.2336864E+00  0.2474181E+01  0.1835434E+00 -0.1446414E+00
 -0.1414170E+02  0.5857690E+01  0.0000000E+00  0.2300977E+00  0.2475813E+01  0.1809569E+00 -0.1421250E+00
 -0.1464780E+02  0.4443360E+01  0.0000000E+00  0.2243970E+00  0.2479046E+01  0.1769210E+00 -0.1380325E+00
 -0.1501280E+02  0.2986230E+01  0.0000000E+00  0.2181821E+00  0.2480786E+01  0.1722542E+00 -0.1339101E+00
 -0.1523320E+02  0.1500340E+01  0.0000000E+00  0.2120252E+00  0.2479669E+01  0.1672478E+00 -0.1303183E+00
 -0.1530690E+02 -0.1338170E-05  0.0000000E+00  0.2060219E+00  0.2475325E+01  0.1619608E+00 -0.1273330E+00
 -0.1523320E+02 -0.1500340E+01  0.0000000E+00  0.1999321E+00  0.2468484E+01  0.1563244E+00 -0.1246416E+00
 -0.1501280E+02 -0.2986230E+01  0.0000000E+00  0.1939007E+00  0.2455294E+01  0.1500010E+00 -0.1228707E+00
 -0.1464780E+02 -0.4443360E+01  0.0000000E+00  0.1877831E+00  0.2435767E+01  0.1429173E+00 -0.1218078E+00
 -0.1414170E+02 -0.5857700E+01  0.0000000E+00  0.1810209E+00  0.2413307E+01  0.1350989E+00 -0.1204860E+00
 -0.1349950E+02 -0.7215620E+01  0.0000000E+00  0.1722439E+00  0.2396718E+01  0.1266290E+00 -0.1167607E+00
 -0.1272720E+02 -0.8504060E+01  0.0000000E+00  0.1621448E+00  0.2385818E+01  0.1179993E+00 -0.1112075E+00
 -0.1183240E+02 -0.9710600E+01  0.0000000E+00  0.1515217E+00  0.2375673E+01  0.1092085E+00 -0.1050349E+00
 -0.1082360E+02 -0.1082360E+02  0.0000000E+00  0.1408020E+00  0.2357950E+01  0.9973673E-01 -0.9938707E-01
 -0.9710600E+01 -0.1183240E+02  0.0000000E+00  0.1288357E+00  0.2344012E+01  0.8998407E-01 -0.9220366E-01
 -0.8504050E+01 -0.1272720E+02  0.0000000E+00  0.1144642E+00  0.2349641E+01  0.8040627E-01 -0.8146706E-01
 -0.7215620E+01 -0.1349950E+02  0.0000000E+00  0.1003857E+00  0.2353165E+01  0.7076801E-01 -0.7119815E-01
 -0.5857690E+01 -0.1414170E+02  0.0000000E+00  0.8215466E-01  0.2423316E+01  0.6185761E-01 -0.5406500E-01
 -0.4443360E+01 -0.1464780E+02  0.0000000E+00  0.6192133E-01  0.2634088E+01  0.5411676E-01 -0.3009365E-01
 -0.2986230E+01 -0.1501280E+02  0.0000000E+00  0.5495680E-01 -0.2856262E+01  0.5273483E-01  0.1546893E-01
 -0.1500340E+01 -0.1523320E+02  0.0000000E+00  0.1681024E+00 -0.2035393E+01  0.7532029E-01  0.1502840E+00
  0.1825330E-06 -0.1530690E+02  0.0000000E+00  0.2290866E+00 -0.1886206E+01  0.7106392E-01  0.2177856E+00
  0.1500340E+01 -0.1523320E+02  0.0000000E+00  0.2671349E+00 -0.1757270E+01  0.4952537E-01  0.2625039E+00
  0.2986230E+01 -0.1501280E+02  0.0000000E+00  0.2970865E+00 -0.1555478E+01 -0.4550723E-02  0.2970517E+00
  0.4443360E+01 -0.1464780E+02  0.0000000E+00  0.3034625E+00 -0.1442729E+01 -0.3875752E-01  0.3009773E+00
  0.5857700E+01 -0.1414170E+02  0.0000000E+00  0.3096417E+00 -0.1364715E+01 -0.6336062E-01  0.3030898E+00
  0.7215620E+01 -0.1349950E+02  0.0000000E+00  0.3152428E+00 -0.1300789E+01 -0.8408756E-01  0.3038212E+00
  0.8504060E+01 -0.1272720E+02  0.0000000E+00  0.3180433E+00 -0.1244126E+01 -0.1020574E+00  0.3012238E+00
  0.9710600E+01 -0.1183240E+02  0.0000000E+00  0.3228399E+00 -0.1196401E+01 -0.1180658E+00  0.3004764E+00
  0.1082360E+02 -0.1082360E+02  0.0000000E+00  0.3263629E+00 -0.1155226E+01 -0.1317565E+00  0.2985850E+00
  0.1183240E+02 -0.9710590E+01  0.0000000E+00  0.3290521E+00 -0.1118586E+01 -0.1437810E+00  0.2959768E+00
  0.1272720E+02 -0.8504060E+01  0.0000000E+00  0.3318235E+00 -0.1086450E+01 -0.1545071E+00  0.2936569E+00
  0.1349950E+02 -0.7215620E+01  0.0000000E+00  0.3342706E+00 -0.1059179E+01 -0.1636548E+00  0.2914686E+00
  0.1414170E+02 -0.5857700E+01  0.0000000E+00  0.3355275E+00 -0.1035433E+01 -0.1711704E+00  0.2885817E+00
  0.1464780E+02 -0.4443350E+01  0.0000000E+00  0.3346290E+00 -0.1014050E+01 -0.1768269E+00  0.2840930E+00
  0.1501280E+02 -0.2986230E+01  0.0000000E+00  0.3330191E+00 -0.9963538E+00 -0.1809516E+00  0.2795680E+00
  0.1523320E+02 -0.1500330E+01  0.0000000E+00  0.3311881E+00 -0.9827775E+00 -0.1837146E+00  0.2755622E+00
  0.1530690E+02  0.0000000E+00 -0.2568960E-01  0.3287194E+00 -0.9734195E+00 -0.1848966E+00  0.2717898E+00
  0.1523320E+02  0.1500340E+01 -0.2568960E-01  0.3260797E+00 -0.9681361E+00 -0.1848337E+00  0.2686345E+00
  0.1501280E+02  0.2986230E+01 -0.2568960E-01  0.3237479E+00 -0.9668540E+00 -0.1838538E+00  0.2664779E+00
  0.1464780E+02  0.4443360E+01 -0.2568960E-01  0.3216059E+00 -0.9691861E+00 -0.1820195E+00  0.2651400E+00
  0.1414170E+02  0.5857700E+01 -0.2568960E-01  0.3186760E+00 -0.9743434E+00 -0.1790040E+00  0.2636513E+00
  0.1349950E+02  0.7215620E+01 -0.2568960E-01  0.3125546E+00 -0.9814172E+00 -0.1737319E+00  0.2598222E+00
  0.1272720E+02  0.8504060E+01 -0.2568960E-01  0.3037244E+00 -0.9915312E+00 -0.1662615E+00  0.2541764E+00
  0.1183240E+02  0.9710600E+01 -0.2568960E-01  0.2936261E+00 -0.1005154E+01 -0.1573713E+00  0.2478922E+00
  0.1082360E+02  0.1082360E+02 -0.2568960E-01  0.2839079E+00 -0.1021670E+01 -0.1481835E+00  0.2421681E+00
  0.9710590E+01  0.1183240E+02 -0.2568960E-01  0.2721455E+00 -0.1041545E+01 -0.1374028E+00  0.2349120E+00
  0.8504060E+01  0.1272720E+02 -0.2568960E-01  0.2560670E+00 -0.1065772E+01 -0.1238926E+00  0.2241003E+00
  0.7215620E+01  0.1349950E+02 -0.2568960E-01  0.2405024E+00 -0.1093756E+01 -0.1104271E+00  0.2136522E+00
  0.5857700E+01  0.1414170E+02 -0.2568960E-01  0.2168168E+00 -0.1131620E+01 -0.9218922E-01  0.1962414E+00
  0.4443360E+01  0.1464780E+02 -0.2568960E-01  0.1853237E+00 -0.1185711E+01 -0.6961460E-01  0.1717518E+00
  0.2986230E+01  0.1501280E+02 -0.2568960E-01  0.1291060E+00 -0.1319250E+01 -0.3213474E-01  0.1250429E+00
  0.1500340E+01  0.1523320E+02 -0.2568960E-01  0.7359950E-01  0.2976732E+01  0.7260159E-01 -0.1207876E-01
 -0.6690860E-06  0.1530690E+02 -0.2568960E-01  0.1513825E+00  0.2588111E+01  0.1287810E+00 -0.7957455E-01
 -0.1500340E+01  0.1523320E+02 -0.2568960E-01  0.2062277E+00  0.2502864E+01  0.1655707E+00 -0.1229479E+00
 -0.2986230E+01  0.1501280E+02 -0.2568960E-01  0.2403478E+00  0.2448506E+01  0.1848942E+00 -0.1535617E+00
 -0.4443360E+01  0.1464780E+02 -0.2568960E-01  0.2411423E+00  0.2440089E+01  0.1842020E+00 -0.1556253E+00
 -0.5857700E+01  0.1414170E+02 -0.2568960E-01  0.2425383E+00  0.2439202E+01  0.1851295E+00 -0.1566906E+00
 -0.7215620E+01  0.1349950E+02 -0.2568960E-01  0.2434889E+00  0.2442350E+01  0.1863494E+00 -0.1567188E+00
 -0.8504060E+01  0.1272720E+02 -0.2568960E-01  0.2411073E+00  0.2450299E+01  0.1857543E+00 -0.1537142E+00
 -0.9710590E+01  0.1183240E+02 -0.2568960E-01  0.2410388E+00  0.2455295E+01  0.1864670E+00 -0.1527408E+00
 -0.1082360E+02  0.1082360E+02 -0.2568960E-01  0.2398099E+00  0.2461280E+01  0.1864225E+00 -0.1508491E+00
 -0.1183240E+02  0.9710590E+01 -0.2568960E-01  0.2376526E+00  0.2467292E+01  0.1856409E+00 -0.1483786E+00
 -0.1272720E+02  0.8504060E+01 -0.2568960E-01  0.2355968E+00  0.2471672E+01  0.1846775E+00 -0.1462878E+00
 -0.1349950E+02  0.7215620E+01 -0.2568960E-01  0.2333667E+00  0.2474184E+01  0.1832927E+00 -0.1444430E+00
 -0.1414170E+02  0.5857690E+01 -0.2568960E-01  0.2297783E+00  0.2475831E+01  0.1807083E+00 -0.1419246E+00
 -0.1464780E+02  0.4443360E+01 -0.2568960E-01  0.2240930E+00  0.2479049E+01  0.1766817E+00 -0.1378451E+00
 -0.1501280E+02  0.2986230E+01 -0.2568960E-01  0.2178958E+00  0.2480767E+01  0.1720257E+00 -0.1337376E+00
 -0.1523320E+02  0.1500340E+01 -0.2568960E-01  0.2117508E+00  0.2479632E+01  0.1670266E+00 -0.1301558E+00
 -0.1530690E+02 -0.1338170E-05 -0.2568960E-01  0.2057570E+00  0.2475281E+01  0.1617469E+00 -0.1271766E+00
 -0.1523320E+02 -0.1500340E+01 -0.2568960E-01  0.1996755E+00  0.2468434E+01  0.1561175E+00 -0.1244895E+00
 -0.1501280E+02 -0.2986230E+01 -0.2568960E-01  0.1936473E+00  0.2455262E+01  0.1498010E+00 -0.1227149E+00
 -0.1464780E+02 -0.4443360E+01 -0.2568960E-01  0.1875290E+00  0.2435773E+01  0.1427246E+00 -0.1216421E+00
 -0.1414170E+02 -0.5857700E+01 -0.2568960E-01  0.1807704E+00  0.2413358E+01  0.1349182E+00 -0.1203123E+00
 -0.1349950E+02 -0.7215620E+01 -0.2568960E-01  0.1720094E+00  0.2396760E+01  0.1264615E+00 -0.1165964E+00
 -0.1272720E+02 -0.8504060E+01 -0.2568960E-01  0.1619311E+00  0.2385798E+01  0.1178416E+00 -0.1110633E+00
 -0.1183240E+02 -0.9710600E+01 -0.2568960E-01  0.1513288E+00  0.2375598E+01  0.1090617E+00 -0.1049094E+00
 -0.1082360E+02 -0.1082360E+02 -0.2568960E-01  0.1406213E+00  0.2357916E+01  0.9960529E-01 -0.9926302E-01
 -0.9710600E+01 -0.1183240E+02 -0.2568960E-01  0.1286701E+00  0.2344006E+01  0.8986787E-01 -0.9208565E-01
 -0.8504050E+01 -0.1272720E+02 -0.2568960E-01  0.1143312E+00  0.2349502E+01  0.8030149E-01 -0.8138356E-01
 -0.7215620E+01 -0.1349950E+02 -0.2568960E-01  0.1002601E+00  0.2353149E+01  0.7067835E-01 -0.7111013E-01
 -0.5857690E+01 -0.1414170E+02 -0.2568960E-01  0.8205930E-01  0.2423229E+01  0.6178109E-01 -0.5400765E-01
 -0.4443360E+01 -0.1464780E+02 -0.2568960E-01  0.6185237E-01  0.2634128E+01  0.5405769E-01 -0.3005797E-01
 -0.2986230E+01 -0.1501280E+02 -0.2568960E-01  0.5489772E-01 -0.2856342E+01  0.5267936E-01  0.1544813E-01
 -0.1500340E+01 -0.1523320E+02 -0.2568960E-01  0.1678774E+00 -0.2035487E+01  0.7523365E-01  0.1500757E+00
  0.1825330E-06 -0.1530690E+02 -0.2568960E-01  0.2287719E+00 -0.1886214E+01  0.7096815E-01  0.2174858E+00
  0.1500340E+01 -0.1523320E+02 -0.2568960E-01  0.2668058E+00 -0.1757298E+01  0.4947183E-01  0.2621790E+00
  0.2986230E+01 -0.1501280E+02 -0.2568960E-01  0.2967150E+00 -0.1555535E+01 -0.4527989E-02  0.2966805E+00
  0.4443360E+01 -0.1464780E+02 -0.2568960E-01  0.3030802E+00 -0.1442788E+01 -0.3869090E-01  0.3006005E+00
  0.5857700E+01 -0.1414170E+02 -0.2568960E-01  0.3092411E+00 -0.1364750E+01 -0.6326805E-01  0.3026999E+00
  0.7215620E+01 -0.1349950E+02 -0.2568960E-01  0.3148233E+00 -0.1300808E+01 -0.8396962E-01  0.3034185E+00
  0.8504060E+01 -0.1272720E+02 -0.2568960E-01  0.3176335E+00 -0.1244156E+01 -0.1019168E+00  0.3008388E+00
  0.9710600E+01 -0.1183240E+02 -0.2568960E-01  0.3224086E+00 -0.1196425E+01 -0.1179008E+00  0.3000779E+00
  0.1082360E+02 -0.1082360E+02 -0.2568960E-01  0.3259262E+00 -0.1155242E+01 -0.1315754E+00  0.2981875E+00
  0.1183240E+02 -0.9710590E+01 -0.2568960E-01  0.3286136E+00 -0.1118599E+01 -0.1435854E+00  0.2955844E+00
  0.1272720E+02 -0.8504060E+01 -0.2568960E-01  0.3313757E+00 -0.1086460E+01 -0.1542956E+00  0.2932622E+00
  0.1349950E+02 -0.7215620E+01 -0.2568960E-01  0.3338104E+00 -0.1059180E+01 -0.1634294E+00  0.2910674E+00
  0.1414170E+02 -0.5857700E+01 -0.2568960E-01  0.3350602E+00 -0.1035430E+01 -0.1709331E+00  0.2881792E+00
  0.1464780E+02 -0.4443350E+01 -0.2568960E-01  0.3341698E+00 -0.1014054E+01 -0.1765831E+00  0.2837039E+00
  0.1501280E+02 -0.2986230E+01 -0.2568960E-01  0.3325715E+00 -0.9963636E+00 -0.1807056E+00  0.2791940E+00
  0.1523320E+02 -0.1500330E+01 -0.2568960E-01  0.3307487E+00 -0.9827932E+00 -0.1834665E+00  0.2751995E+00
  0.1530690E+02  0.0000000E+00 -0.1027320E+00  0.3274470E+00 -0.9734831E+00 -0.1841637E+00  0.2707494E+00
  0.1523320E+02  0.1500340E+01 -0.1027320E+00  0.3248196E+00 -0.9681919E+00 -0.1841045E+00  0.2676066E+00
  0.1501280E+02  0.2986230E+01 -0.1027320E+00  0.3224781E+00 -0.9668972E+00 -0.1831212E+00  0.2654407E+00
  0.1464780E+02  0.4443360E+01 -0.1027320E+00  0.3203084E+00 -0.9692072E+00 -0.1812796E+00  0.2640742E+00
  0.1414170E+02  0.5857700E+01 -0.1027320E+00  0.3173516E+00 -0.9743555E+00 -0.1782569E+00  0.2625577E+00
  0.1349950E+02  0.7215620E+01 -0.1027320E+00  0.3112660E+00 -0.9814425E+00 -0.1730091E+00  0.2587554E+00
  0.1272720E+02  0.8504060E+01 -0.1027320E+00  0.3025143E+00 -0.9915621E+00 -0.1655912E+00  0.2531688E+00
  0.1183240E+02  0.9710600E+01 -0.1027320E+00  0.2924893E+00 -0.1005178E+01 -0.1567562E+00  0.2469363E+00
  0.1082360E+02  0.1082360E+02 -0.1027320E+00  0.2827866E+00 -0.1021691E+01 -0.1475932E+00  0.2412147E+00
  0.9710590E+01  0.1183240E+02 -0.1027320E+00  0.2710548E+00 -0.1041571E+01 -0.1368461E+00  0.2339741E+00
  0.8504060E+01  0.1272720E+02 -0.1027320E+00  0.2551116E+00 -0.1065770E+01 -0.1234307E+00  0.2232640E+00
  0.7215620E+01  0.1349950E+02 -0.1027320E+00  0.2395137E+00 -0.1093802E+01 -0.1099635E+00  0.2127789E+00
  0.5857700E+01  0.1414170E+02 -0.1027320E+00  0.2159789E+00 -0.1131614E+01 -0.9183417E-01  0.1954824E+00
  0.4443360E+01  0.1464780E+02 -0.1027320E+00  0.1845689E+00 -0.1185751E+01 -0.6932434E-01  0.1710550E+00
  0.2986230E+01  0.1501280E+02 -0.1027320E+00  0.1285546E+00 -0.1319389E+01 -0.3198013E-01  0.1245132E+00
  0.1500340E+01  0.1523320E+02 -0.1027320E+00  0.7321624E-01  0.2977999E+01  0.7223868E-01 -0.1192437E-01
 -0.6690860E-06  0.1530690E+02 -0.1027320E+00  0.1507882E+00  0.2588054E+01  0.1282710E+00 -0.7926942E-01
 -0.1500340E+01  0.1523320E+02 -0.1027320E+00  0.2054505E+00  0.2502709E+01  0.1649278E+00 -0.1225101E+00
 -0.2986230E+01  0.1501280E+02 -0.1027320E+00  0.2394696E+00  0.2448397E+01  0.1842018E+00 -0.1530208E+00
 -0.4443360E+01  0.1464780E+02 -0.1027320E+00  0.2402855E+00  0.2439956E+01  0.1835270E+00 -0.1550967E+00
 -0.5857700E+01  0.1414170E+02 -0.1027320E+00  0.2416485E+00  0.2439092E+01  0.1844331E+00 -0.1561359E+00
 -0.7215620E+01  0.1349950E+02 -0.1027320E+00  0.2425318E+00  0.2442292E+01  0.1856079E+00 -0.1561135E+00
 -0.8504060E+01  0.1272720E+02 -0.1027320E+00  0.2402254E+00  0.2450155E+01  0.1850529E+00 -0.1531785E+00
 -0.9710590E+01  0.1183240E+02 -0.1027320E+00  0.2401107E+00  0.2455211E+01  0.1857362E+00 -0.1521683E+00
 -0.1082360E+02  0.1082360E+02 -0.1027320E+00  0.2388829E+00  0.2461195E+01  0.1856890E+00 -0.1502818E+00
 -0.1183240E+02  0.9710590E+01 -0.1027320E+00  0.2367414E+00  0.2467193E+01  0.1849144E+00 -0.1478281E+00
 -0.1272720E+02  0.8504060E+01 -0.1027320E+00  0.2346766E+00  0.2471581E+01  0.1839430E+00 -0.1457330E+00
 -0.1349950E+02  0.7215620E+01 -0.1027320E+00  0.2324268E+00  0.2474145E+01  0.1825490E+00 -0.1438682E+00
 -0.1414170E+02  0.5857690E+01 -0.1027320E+00  0.2288379E+00  0.2475818E+01  0.1799670E+00 -0.1413460E+00
 -0.1464780E+02  0.4443360E+01 -0.1027320E+00  0.2232004E+00  0.2478982E+01  0.1759688E+00 -0.1373077E+00
 -0.1501280E+02  0.2986230E+01 -0.1027320E+00  0.2170538E+00  0.2480639E+01  0.1713439E+00 -0.1332428E+00
 -0.1523320E+02  0.1500340E+01 -0.1027320E+00  0.2109497E+00  0.2479454E+01  0.1663717E+00 -0.1296929E+00
 -0.1530690E+02 -0.1338170E-05 -0.1027320E+00  0.2049846E+00  0.2475069E+01  0.1611129E+00 -0.1267332E+00
 -0.1523320E+02 -0.1500340E+01 -0.1027320E+00  0.1989230E+00  0.2468201E+01  0.1555003E+00 -0.1240565E+00
 -0.1501280E+02 -0.2986230E+01 -0.1027320E+00  0.1929046E+00  0.2455083E+01  0.1492046E+00 -0.1222709E+00
 -0.1464780E+02 -0.4443360E+01 -0.1027320E+00  0.1867872E+00  0.2435719E+01  0.1421536E+00 -0.1211686E+00
 -0.1414170E+02 -0.5857700E+01 -0.1027320E+00  0.1800330E+00  0.2413440E+01  0.1343776E+00 -0.1198105E+00
 -0.1349950E+02 -0.7215620E+01 -0.1027320E+00  0.1713194E+00  0.2396816E+01  0.1259608E+00 -0.1161216E+00
 -0.1272720E+02 -0.8504060E+01 -0.1027320E+00  0.1613069E+00  0.2385696E+01  0.1173761E+00 -0.1106470E+00
 -0.1183240E+02 -0.9710600E+01 -0.1027320E+00  0.1507606E+00  0.2375345E+01  0.1086257E+00 -0.1045430E+00
 -0.1082360E+02 -0.1082360E+02 -0.1027320E+00  0.1400856E+00  0.2357770E+01  0.9921142E-01 -0.9889925E-01
 -0.9710600E+01 -0.1183240E+02 -0.1027320E+00  0.1281775E+00  0.2343953E+01  0.8951898E-01 -0.9173786E-01
 -0.8504050E+01 -0.1272720E+02 -0.1027320E+00  0.1139346E+00  0.2349055E+01  0.7998668E-01 -0.8113708E-01
 -0.7215620E+01 -0.1349950E+02 -0.1027320E+00  0.9986937E-01  0.2353251E+01  0.7041011E-01 -0.7082590E-01
 -0.5857690E+01 -0.1414170E+02 -0.1027320E+00  0.8177151E-01  0.2422915E+01  0.6154750E-01 -0.5383757E-01
 -0.4443360E+01 -0.1464780E+02 -0.1027320E+00  0.6164073E-01  0.2634225E+01  0.5387563E-01 -0.2994990E-01
 -0.2986230E+01 -0.1501280E+02 -0.1027320E+00  0.5471554E-01 -0.2856391E+01  0.5250530E-01  0.1539429E-01
 -0.1500340E+01 -0.1523320E+02 -0.1027320E+00  0.1670893E+00 -0.2035737E+01  0.7491780E-01  0.1493524E+00
  0.1825330E-06 -0.1530690E+02 -0.1027320E+00  0.2278534E+00 -0.1886259E+01  0.7069305E-01  0.2166094E+00
  0.1500340E+01 -0.1523320E+02 -0.1027320E+00  0.2657709E+00 -0.1757179E+01  0.4924893E-01  0.2611680E+00
  0.2986230E+01 -0.1501280E+02 -0.1027320E+00  0.2955792E+00 -0.1555661E+01 -0.4473648E-02  0.2955454E+00
  0.4443360E+01 -0.1464780E+02 -0.1027320E+00  0.3019352E+00 -0.1442944E+01 -0.3849798E-01  0.2994708E+00
  0.5857700E+01 -0.1414170E+02 -0.1027320E+00  0.3080513E+00 -0.1364844E+01 -0.6299645E-01  0.3015411E+00
  0.7215620E+01 -0.1349950E+02 -0.1027320E+00  0.3135621E+00 -0.1300853E+01 -0.8361961E-01  0.3022068E+00
  0.8504060E+01 -0.1272720E+02 -0.1027320E+00  0.3164176E+00 -0.1244240E+01 -0.1015016E+00  0.2996957E+00
  0.9710600E+01 -0.1183240E+02 -0.1027320E+00  0.3211316E+00 -0.1196494E+01 -0.1174133E+00  0.2988974E+00
  0.1082360E+02 -0.1082360E+02 -0.1027320E+00  0.3246342E+00 -0.1155292E+01 -0.1310389E+00  0.2970121E+00
  0.1183240E+02 -0.9710590E+01 -0.1027320E+00  0.3273189E+00 -0.1118645E+01 -0.1430061E+00  0.2944264E+00
  0.1272720E+02 -0.8504060E+01 -0.1027320E+00  0.3300550E+00 -0.1086502E+01 -0.1536682E+00  0.2920999E+00
