 VARIABLES="X" "Y" "Z" "abs(eta) (m)" "angle(phi) (rad)" "PRE1" "PRE2"
ZONE N=   3200 ,E =    3136 ,F=FEPOINT,ET=QUADRILATERAL
  0.1530690E+02  0.0000000E+00  0.0000000E+00  0.1824882E-01  0.2932600E+01  0.1785173E-01 -0.3786159E-02
  0.1523320E+02  0.1500340E+01  0.0000000E+00  0.1969384E-01  0.2823502E+01  0.1870589E-01 -0.6159327E-02
  0.1501280E+02  0.2986230E+01  0.0000000E+00  0.2135659E-01  0.2732972E+01  0.1959830E-01 -0.8485911E-02
  0.1464780E+02  0.4443360E+01  0.0000000E+00  0.2321233E-01  0.2661091E+01  0.2058383E-01 -0.1072931E-01
  0.1414170E+02  0.5857700E+01  0.0000000E+00  0.2527315E-01  0.2601617E+01  0.2167732E-01 -0.1299330E-01
  0.1349950E+02  0.7215620E+01  0.0000000E+00  0.2757262E-01  0.2550551E+01  0.2289522E-01 -0.1536420E-01
  0.1272720E+02  0.8504060E+01  0.0000000E+00  0.3018795E-01  0.2504327E+01  0.2426282E-01 -0.1796184E-01
  0.1183240E+02  0.9710600E+01  0.0000000E+00  0.3291796E-01  0.2465283E+01  0.2567233E-01 -0.2060398E-01
  0.1082360E+02  0.1082360E+02  0.0000000E+00  0.3582274E-01  0.2431826E+01  0.2717206E-01 -0.2334412E-01
  0.9710590E+01  0.1183240E+02  0.0000000E+00  0.3928160E-01  0.2399967E+01  0.2896512E-01 -0.2653423E-01
  0.8504060E+01  0.1272720E+02  0.0000000E+00  0.4342363E-01  0.2367442E+01  0.3104856E-01 -0.3035784E-01
  0.7215620E+01  0.1349950E+02  0.0000000E+00  0.4825710E-01  0.2337662E+01  0.3348471E-01 -0.3474941E-01
  0.5857700E+01  0.1414170E+02  0.0000000E+00  0.5368053E-01  0.2312989E+01  0.3628295E-01 -0.3956193E-01
  0.4443360E+01  0.1464780E+02  0.0000000E+00  0.6175139E-01  0.2283300E+01  0.4036875E-01 -0.4672899E-01
  0.2986230E+01  0.1501280E+02  0.0000000E+00  0.7543321E-01  0.2247801E+01  0.4725599E-01 -0.5879660E-01
  0.1500340E+01  0.1523320E+02  0.0000000E+00  0.1027612E+00  0.2209922E+01  0.6129640E-01 -0.8247797E-01
 -0.6690860E-06  0.1530690E+02  0.0000000E+00  0.1020303E+00  0.2226216E+01  0.6218664E-01 -0.8088885E-01
 -0.1500340E+01  0.1523320E+02  0.0000000E+00  0.8282845E-01  0.2296328E+01  0.5495943E-01 -0.6196785E-01
 -0.2986230E+01  0.1501280E+02  0.0000000E+00  0.3325935E-01  0.2915009E+01  0.3240923E-01 -0.7471706E-02
 -0.4443360E+01  0.1464780E+02  0.0000000E+00  0.2732743E-01 -0.2663060E+01  0.2425778E-01  0.1258364E-01
 -0.5857700E+01  0.1414170E+02  0.0000000E+00  0.3074037E-01 -0.2272494E+01  0.1984338E-01  0.2347788E-01
 -0.7215620E+01  0.1349950E+02  0.0000000E+00  0.3519023E-01 -0.2069740E+01  0.1683848E-01  0.3090013E-01
 -0.8504060E+01  0.1272720E+02  0.0000000E+00  0.3946056E-01 -0.1944214E+01  0.1439519E-01  0.3674118E-01
 -0.9710590E+01  0.1183240E+02  0.0000000E+00  0.4319676E-01 -0.1862825E+01  0.1243617E-01  0.4136788E-01
 -0.1082360E+02  0.1082360E+02  0.0000000E+00  0.4691407E-01 -0.1799629E+01  0.1064202E-01  0.4569111E-01
 -0.1183240E+02  0.9710590E+01  0.0000000E+00  0.4984152E-01 -0.1758448E+01  0.9298043E-02  0.4896656E-01
 -0.1272720E+02  0.8504060E+01  0.0000000E+00  0.5270218E-01 -0.1724326E+01  0.8059580E-02  0.5208227E-01
 -0.1349950E+02  0.7215620E+01  0.0000000E+00  0.5578124E-01 -0.1693521E+01  0.6828543E-02  0.5536170E-01
 -0.1414170E+02  0.5857690E+01  0.0000000E+00  0.5863606E-01 -0.1670273E+01  0.5823306E-02  0.5834618E-01
 -0.1464780E+02  0.4443360E+01  0.0000000E+00  0.6115690E-01 -0.1653978E+01  0.5081291E-02  0.6094544E-01
 -0.1501280E+02  0.2986230E+01  0.0000000E+00  0.6339850E-01 -0.1643096E+01  0.4579688E-02  0.6323287E-01
 -0.1523320E+02  0.1500340E+01  0.0000000E+00  0.6553765E-01 -0.1635924E+01  0.4265326E-02  0.6539870E-01
 -0.1530690E+02 -0.1338170E-05  0.0000000E+00  0.6776213E-01 -0.1630787E+01  0.4062687E-02  0.6764023E-01
 -0.1523320E+02 -0.1500340E+01  0.0000000E+00  0.7012825E-01 -0.1625787E+01  0.3854463E-02  0.7002224E-01
 -0.1501280E+02 -0.2986230E+01  0.0000000E+00  0.7245596E-01 -0.1622975E+01  0.3778906E-02  0.7235736E-01
 -0.1464780E+02 -0.4443360E+01  0.0000000E+00  0.7470690E-01 -0.1623179E+01  0.3911562E-02  0.7460443E-01
 -0.1414170E+02 -0.5857700E+01  0.0000000E+00  0.7698437E-01 -0.1626416E+01  0.4279617E-02  0.7686532E-01
 -0.1349950E+02 -0.7215620E+01  0.0000000E+00  0.7937653E-01 -0.1632606E+01  0.4903117E-02  0.7922494E-01
 -0.1272720E+02 -0.8504060E+01  0.0000000E+00  0.8200769E-01 -0.1641566E+01  0.5798843E-02  0.8180241E-01
 -0.1183240E+02 -0.9710600E+01  0.0000000E+00  0.8469747E-01 -0.1651781E+01  0.6851729E-02  0.8441988E-01
 -0.1082360E+02 -0.1082360E+02  0.0000000E+00  0.8750603E-01 -0.1663790E+01  0.8125742E-02  0.8712794E-01
 -0.9710600E+01 -0.1183240E+02  0.0000000E+00  0.9080859E-01 -0.1679476E+01  0.9849642E-02  0.9027284E-01
 -0.8504050E+01 -0.1272720E+02  0.0000000E+00  0.9479655E-01 -0.1697369E+01  0.1196662E-01  0.9403822E-01
 -0.7215620E+01 -0.1349950E+02  0.0000000E+00  0.9942900E-01 -0.1718071E+01  0.1459047E-01  0.9835265E-01
 -0.5857690E+01 -0.1414170E+02  0.0000000E+00  0.1045867E+00 -0.1741435E+01  0.1776009E-01  0.1030677E+00
 -0.4443360E+01 -0.1464780E+02  0.0000000E+00  0.1123389E+00 -0.1771061E+01  0.2234738E-01  0.1100937E+00
 -0.2986230E+01 -0.1501280E+02  0.0000000E+00  0.1255530E+00 -0.1811808E+01  0.2996771E-01  0.1219242E+00
 -0.1500340E+01 -0.1523320E+02  0.0000000E+00  0.1521718E+00 -0.1876606E+01  0.4581367E-01  0.1451115E+00
  0.1825330E-06 -0.1530690E+02  0.0000000E+00  0.1514515E+00 -0.1898149E+01  0.4869729E-01  0.1434089E+00
  0.1500340E+01 -0.1523320E+02  0.0000000E+00  0.1321265E+00 -0.1910230E+01  0.4399194E-01  0.1245878E+00
  0.2986230E+01 -0.1501280E+02  0.0000000E+00  0.7502668E-01 -0.1917157E+01  0.2546984E-01  0.7057117E-01
  0.4443360E+01 -0.1464780E+02  0.0000000E+00  0.5430904E-01 -0.1935039E+01  0.1934714E-01  0.5074603E-01
  0.5857700E+01 -0.1414170E+02  0.0000000E+00  0.4329082E-01 -0.1963997E+01  0.1658675E-01  0.3998718E-01
  0.7215620E+01 -0.1349950E+02  0.0000000E+00  0.3600347E-01 -0.2005313E+01  0.1515645E-01  0.3265781E-01
  0.8504060E+01 -0.1272720E+02  0.0000000E+00  0.3042814E-01 -0.2057780E+01  0.1423923E-01  0.2689082E-01
  0.9710600E+01 -0.1183240E+02  0.0000000E+00  0.2623165E-01 -0.2123906E+01  0.1378043E-01  0.2232038E-01
  0.1082360E+02 -0.1082360E+02  0.0000000E+00  0.2254665E-01 -0.2213942E+01  0.1352158E-01  0.1804213E-01
  0.1183240E+02 -0.9710590E+01  0.0000000E+00  0.2014440E-01 -0.2316351E+01  0.1366555E-01  0.1480032E-01
  0.1272720E+02 -0.8504060E+01  0.0000000E+00  0.1818112E-01 -0.2441570E+01  0.1390542E-01  0.1171292E-01
  0.1349950E+02 -0.7215620E+01  0.0000000E+00  0.1648568E-01 -0.2602797E+01  0.1415011E-01  0.8458849E-02
  0.1414170E+02 -0.5857700E+01  0.0000000E+00  0.1558241E-01 -0.2781420E+01  0.1458258E-01  0.5491795E-02
  0.1464780E+02 -0.4443350E+01  0.0000000E+00  0.1548957E-01 -0.2953095E+01  0.1521520E-01  0.2902491E-02
  0.1501280E+02 -0.2986230E+01  0.0000000E+00  0.1602523E-01 -0.3102947E+01  0.1601327E-01  0.6191558E-03
  0.1523320E+02 -0.1500330E+01  0.0000000E+00  0.1698669E-01  0.3050447E+01  0.1691618E-01 -0.1546113E-02
  0.1530690E+02  0.0000000E+00 -0.2568960E-01  0.1823488E-01  0.2932674E+01  0.1783838E-01 -0.3781945E-02
  0.1523320E+02  0.1500340E+01 -0.2568960E-01  0.1967888E-01  0.2823598E+01  0.1869227E-01 -0.6152846E-02
  0.1501280E+02  0.2986230E+01 -0.2568960E-01  0.2134080E-01  0.2733077E+01  0.1958469E-01 -0.8477580E-02
  0.1464780E+02  0.4443360E+01 -0.2568960E-01  0.2319579E-01  0.2661171E+01  0.2057003E-01 -0.1072001E-01
  0.1414170E+02  0.5857700E+01 -0.2568960E-01  0.2525551E-01  0.2601659E+01  0.2166273E-01 -0.1298333E-01
  0.1349950E+02  0.7215620E+01 -0.2568960E-01  0.2755412E-01  0.2550566E+01  0.2288008E-01 -0.1535354E-01
  0.1272720E+02  0.8504060E+01 -0.2568960E-01  0.3016676E-01  0.2504343E+01  0.2424608E-01 -0.1794885E-01
  0.1183240E+02  0.9710600E+01 -0.2568960E-01  0.3289562E-01  0.2465287E+01  0.2565498E-01 -0.2058990E-01
  0.1082360E+02  0.1082360E+02 -0.2568960E-01  0.3579926E-01  0.2431824E+01  0.2715418E-01 -0.2332889E-01
  0.9710590E+01  0.1183240E+02 -0.2568960E-01  0.3925611E-01  0.2399950E+01  0.2894588E-01 -0.2651751E-01
  0.8504060E+01  0.1272720E+02 -0.2568960E-01  0.4339508E-01  0.2367435E+01  0.3102791E-01 -0.3033813E-01
  0.7215620E+01  0.1349950E+02 -0.2568960E-01  0.4822360E-01  0.2337660E+01  0.3346139E-01 -0.3472536E-01
  0.5857700E+01  0.1414170E+02 -0.2568960E-01  0.5365016E-01  0.2312949E+01  0.3626086E-01 -0.3954098E-01
  0.4443360E+01  0.1464780E+02 -0.2568960E-01  0.6171408E-01  0.2283271E+01  0.4034301E-01 -0.4670192E-01
  0.2986230E+01  0.1501280E+02 -0.2568960E-01  0.7539831E-01  0.2247740E+01  0.4723050E-01 -0.5877232E-01
  0.1500340E+01  0.1523320E+02 -0.2568960E-01  0.1026905E+00  0.2209913E+01  0.6125353E-01 -0.8242168E-01
 -0.6690860E-06  0.1530690E+02 -0.2568960E-01  0.1019562E+00  0.2226223E+01  0.6214206E-01 -0.8082960E-01
 -0.1500340E+01  0.1523320E+02 -0.2568960E-01  0.8276122E-01  0.2296376E+01  0.5491782E-01 -0.6191489E-01
 -0.2986230E+01  0.1501280E+02 -0.2568960E-01  0.3324360E-01  0.2914734E+01  0.3239183E-01 -0.7477080E-02
 -0.4443360E+01  0.1464780E+02 -0.2568960E-01  0.2730894E-01 -0.2663013E+01  0.2424078E-01  0.1257627E-01
 -0.5857700E+01  0.1414170E+02 -0.2568960E-01  0.3071793E-01 -0.2272603E+01  0.1983146E-01  0.2345857E-01
 -0.7215620E+01  0.1349950E+02 -0.2568960E-01  0.3516879E-01 -0.2069654E+01  0.1682556E-01  0.3088275E-01
 -0.8504060E+01  0.1272720E+02 -0.2568960E-01  0.3943411E-01 -0.1944213E+01  0.1438553E-01  0.3671656E-01
 -0.9710590E+01  0.1183240E+02 -0.2568960E-01  0.4316925E-01 -0.1862798E+01  0.1242711E-01  0.4134187E-01
 -0.1082360E+02  0.1082360E+02 -0.2568960E-01  0.4688044E-01 -0.1799666E+01  0.1063608E-01  0.4565796E-01
 -0.1183240E+02  0.9710590E+01 -0.2568960E-01  0.4980817E-01 -0.1758443E+01  0.9291592E-02  0.4893384E-01
 -0.1272720E+02  0.8504060E+01 -0.2568960E-01  0.5266775E-01 -0.1724315E+01  0.8053775E-02  0.5204833E-01
 -0.1349950E+02  0.7215620E+01 -0.2568960E-01  0.5574206E-01 -0.1693536E+01  0.6824576E-02  0.5532271E-01
 -0.1414170E+02  0.5857690E+01 -0.2568960E-01  0.5859243E-01 -0.1670303E+01  0.5820719E-02  0.5830259E-01
 -0.1464780E+02  0.4443360E+01 -0.2568960E-01  0.6111017E-01 -0.1654010E+01  0.5079357E-02  0.6089871E-01
 -0.1501280E+02  0.2986230E+01 -0.2568960E-01  0.6335015E-01 -0.1643116E+01  0.4577466E-02  0.6318456E-01
 -0.1523320E+02  0.1500340E+01 -0.2568960E-01  0.6548818E-01 -0.1635930E+01  0.4262478E-02  0.6534932E-01
 -0.1530690E+02 -0.1338170E-05 -0.2568960E-01  0.6771102E-01 -0.1630792E+01  0.4059925E-02  0.6758919E-01
 -0.1523320E+02 -0.1500340E+01 -0.2568960E-01  0.7007500E-01 -0.1625793E+01  0.3851952E-02  0.6996905E-01
 -0.1501280E+02 -0.2986230E+01 -0.2568960E-01  0.7240093E-01 -0.1622988E+01  0.3777006E-02  0.7230234E-01
 -0.1464780E+02 -0.4443360E+01 -0.2568960E-01  0.7465117E-01 -0.1623199E+01  0.3910106E-02  0.7454869E-01
 -0.1414170E+02 -0.5857700E+01 -0.2568960E-01  0.7692775E-01 -0.1626433E+01  0.4277788E-02  0.7680872E-01
 -0.1349950E+02 -0.7215620E+01 -0.2568960E-01  0.7931893E-01 -0.1632618E+01  0.4900524E-02  0.7916740E-01
 -0.1272720E+02 -0.8504060E+01 -0.2568960E-01  0.8194797E-01 -0.1641576E+01  0.5795398E-02  0.8174279E-01
 -0.1183240E+02 -0.9710600E+01 -0.2568960E-01  0.8463658E-01 -0.1651794E+01  0.6847887E-02  0.8435909E-01
 -0.1082360E+02 -0.1082360E+02 -0.2568960E-01  0.8744436E-01 -0.1663810E+01  0.8121806E-02  0.8706637E-01
 -0.9710600E+01 -0.1183240E+02 -0.2568960E-01  0.9074522E-01 -0.1679487E+01  0.9843703E-02  0.9020974E-01
 -0.8504050E+01 -0.1272720E+02 -0.2568960E-01  0.9472981E-01 -0.1697381E+01  0.1195938E-01  0.9397186E-01
 -0.7215620E+01 -0.1349950E+02 -0.2568960E-01  0.9935786E-01 -0.1718077E+01  0.1458061E-01  0.9828220E-01
 -0.5857690E+01 -0.1414170E+02 -0.2568960E-01  0.1045187E+00 -0.1741455E+01  0.1775059E-01  0.1030004E+00
 -0.4443360E+01 -0.1464780E+02 -0.2568960E-01  0.1122643E+00 -0.1771071E+01  0.2233371E-01  0.1100204E+00
 -0.2986230E+01 -0.1501280E+02 -0.2568960E-01  0.1254812E+00 -0.1811835E+01  0.2995383E-01  0.1218536E+00
 -0.1500340E+01 -0.1523320E+02 -0.2568960E-01  0.1520645E+00 -0.1876601E+01  0.4578065E-01  0.1450094E+00
  0.1825330E-06 -0.1530690E+02 -0.2568960E-01  0.1513411E+00 -0.1898152E+01  0.4866226E-01  0.1433042E+00
  0.1500340E+01 -0.1523320E+02 -0.2568960E-01  0.1320223E+00 -0.1910242E+01  0.4395873E-01  0.1244890E+00
  0.2986230E+01 -0.1501280E+02 -0.2568960E-01  0.7498422E-01 -0.1917188E+01  0.2545762E-01  0.7053044E-01
  0.4443360E+01 -0.1464780E+02 -0.2568960E-01  0.5426808E-01 -0.1935072E+01  0.1933425E-01  0.5070712E-01
  0.5857700E+01 -0.1414170E+02 -0.2568960E-01  0.4326243E-01 -0.1964036E+01  0.1657742E-01  0.3996032E-01
  0.7215620E+01 -0.1349950E+02 -0.2568960E-01  0.3597251E-01 -0.2005361E+01  0.1514498E-01  0.3262899E-01
  0.8504060E+01 -0.1272720E+02 -0.2568960E-01  0.3040451E-01 -0.2057846E+01  0.1422993E-01  0.2686900E-01
  0.9710600E+01 -0.1183240E+02 -0.2568960E-01  0.2620911E-01 -0.2124004E+01  0.1377077E-01  0.2229985E-01
  0.1082360E+02 -0.1082360E+02 -0.2568960E-01  0.2253119E-01 -0.2214000E+01  0.1351334E-01  0.1802897E-01
  0.1183240E+02 -0.9710590E+01 -0.2568960E-01  0.2012810E-01 -0.2316478E+01  0.1365637E-01  0.1478662E-01
  0.1272720E+02 -0.8504060E+01 -0.2568960E-01  0.1816542E-01 -0.2441749E+01  0.1389551E-01  0.1170031E-01
  0.1349950E+02 -0.7215620E+01 -0.2568960E-01  0.1647400E-01 -0.2602917E+01  0.1414109E-01  0.8451158E-02
  0.1414170E+02 -0.5857700E+01 -0.2568960E-01  0.1557281E-01 -0.2781408E+01  0.1457353E-01  0.5488589E-02
  0.1464780E+02 -0.4443350E+01 -0.2568960E-01  0.1547997E-01 -0.2952967E+01  0.1520540E-01  0.2902641E-02
  0.1501280E+02 -0.2986230E+01 -0.2568960E-01  0.1601438E-01 -0.3102827E+01  0.1600235E-01  0.6206554E-03
  0.1523320E+02 -0.1500330E+01 -0.2568960E-01  0.1697466E-01  0.3050549E+01  0.1690435E-01 -0.1543296E-02
  0.1530690E+02  0.0000000E+00 -0.1027320E+00  0.1819356E-01  0.2932782E+01  0.1779836E-01 -0.3771469E-02
  0.1523320E+02  0.1500340E+01 -0.1027320E+00  0.1963472E-01  0.2823758E+01  0.1865130E-01 -0.6136060E-02
  0.1501280E+02  0.2986230E+01 -0.1027320E+00  0.2129362E-01  0.2733259E+01  0.1954294E-01 -0.8455289E-02
  0.1464780E+02  0.4443360E+01 -0.1027320E+00  0.2314633E-01  0.2661276E+01  0.2052729E-01 -0.1069499E-01
  0.1414170E+02  0.5857700E+01 -0.1027320E+00  0.2520406E-01  0.2601684E+01  0.2161892E-01 -0.1295635E-01
  0.1349950E+02  0.7215620E+01 -0.1027320E+00  0.2749872E-01  0.2550530E+01  0.2283354E-01 -0.1532348E-01
  0.1272720E+02  0.8504060E+01 -0.1027320E+00  0.3010518E-01  0.2504319E+01  0.2419616E-01 -0.1791278E-01
  0.1183240E+02  0.9710600E+01 -0.1027320E+00  0.3282979E-01  0.2465251E+01  0.2560290E-01 -0.2054960E-01
  0.1082360E+02  0.1082360E+02 -0.1027320E+00  0.3573100E-01  0.2431751E+01  0.2710073E-01 -0.2328638E-01
  0.9710590E+01  0.1183240E+02 -0.1027320E+00  0.3918153E-01  0.2399844E+01  0.2888809E-01 -0.2647018E-01
  0.8504060E+01  0.1272720E+02 -0.1027320E+00  0.4331015E-01  0.2367378E+01  0.3096548E-01 -0.3028049E-01
  0.7215620E+01  0.1349950E+02 -0.1027320E+00  0.4812460E-01  0.2337633E+01  0.3339177E-01 -0.3465497E-01
  0.5857700E+01  0.1414170E+02 -0.1027320E+00  0.5356153E-01  0.2312783E+01  0.3619441E-01 -0.3948167E-01
  0.4443360E+01  0.1464780E+02 -0.1027320E+00  0.6160178E-01  0.2283154E+01  0.4026417E-01 -0.4662163E-01
  0.2986230E+01  0.1501280E+02 -0.1027320E+00  0.7529064E-01  0.2247556E+01  0.4715228E-01 -0.5869704E-01
  0.1500340E+01  0.1523320E+02 -0.1027320E+00  0.1024579E+00  0.2209909E+01  0.6111445E-01 -0.8223528E-01
 -0.6690860E-06  0.1530690E+02 -0.1027320E+00  0.1017502E+00  0.2226199E+01  0.6201455E-01 -0.8066785E-01
 -0.1500340E+01  0.1523320E+02 -0.1027320E+00  0.8254010E-01  0.2296576E+01  0.5478342E-01 -0.6173853E-01
 -0.2986230E+01  0.1501280E+02 -0.1027320E+00  0.3319919E-01  0.2913785E+01  0.3234145E-01 -0.7497796E-02
 -0.4443360E+01  0.1464780E+02 -0.1027320E+00  0.2725331E-01 -0.2662865E+01  0.2418953E-01  0.1255425E-01
 -0.5857700E+01  0.1414170E+02 -0.1027320E+00  0.3064986E-01 -0.2272962E+01  0.1979589E-01  0.2339950E-01
 -0.7215620E+01  0.1349950E+02 -0.1027320E+00  0.3509999E-01 -0.2069512E+01  0.1678827E-01  0.3082472E-01
 -0.8504060E+01  0.1272720E+02 -0.1027320E+00  0.3935379E-01 -0.1944198E+01  0.1435568E-01  0.3664199E-01
 -0.9710590E+01  0.1183240E+02 -0.1027320E+00  0.4308661E-01 -0.1862706E+01  0.1239952E-01  0.4126388E-01
 -0.1082360E+02  0.1082360E+02 -0.1027320E+00  0.4677933E-01 -0.1799741E+01  0.1061657E-01  0.4555869E-01
 -0.1183240E+02  0.9710590E+01 -0.1027320E+00  0.4970868E-01 -0.1758414E+01  0.9271620E-02  0.4883636E-01
 -0.1272720E+02  0.8504060E+01 -0.1027320E+00  0.5256518E-01 -0.1724262E+01  0.8035310E-02  0.5194739E-01
 -0.1349950E+02  0.7215620E+01 -0.1027320E+00  0.5562561E-01 -0.1693556E+01  0.6811427E-02  0.5520700E-01
 -0.1414170E+02  0.5857690E+01 -0.1027320E+00  0.5846309E-01 -0.1670370E+01  0.5811752E-02  0.5817351E-01
 -0.1464780E+02  0.4443360E+01 -0.1027320E+00  0.6097227E-01 -0.1654077E+01  0.5071947E-02  0.6076095E-01
 -0.1501280E+02  0.2986230E+01 -0.1027320E+00  0.6320749E-01 -0.1643158E+01  0.4569800E-02  0.6304208E-01
 -0.1523320E+02  0.1500340E+01 -0.1027320E+00  0.6534246E-01 -0.1635939E+01  0.4253559E-02  0.6520386E-01
 -0.1530690E+02 -0.1338170E-05 -0.1027320E+00  0.6756111E-01 -0.1630777E+01  0.4049911E-02  0.6743962E-01
 -0.1523320E+02 -0.1500340E+01 -0.1027320E+00  0.6991845E-01 -0.1625791E+01  0.3843233E-02  0.6981274E-01
 -0.1501280E+02 -0.2986230E+01 -0.1027320E+00  0.7223918E-01 -0.1623005E+01  0.3769818E-02  0.7214075E-01
 -0.1464780E+02 -0.4443360E+01 -0.1027320E+00  0.7448655E-01 -0.1623230E+01  0.3903829E-02  0.7438418E-01
 -0.1414170E+02 -0.5857700E+01 -0.1027320E+00  0.7676113E-01 -0.1626468E+01  0.4271249E-02  0.7664220E-01
 -0.1349950E+02 -0.7215620E+01 -0.1027320E+00  0.7914937E-01 -0.1632650E+01  0.4892520E-02  0.7899801E-01
 -0.1272720E+02 -0.8504060E+01 -0.1027320E+00  0.8177223E-01 -0.1641593E+01  0.5784407E-02  0.8156738E-01
 -0.1183240E+02 -0.9710600E+01 -0.1027320E+00  0.8445663E-01 -0.1651820E+01  0.6835504E-02  0.8417956E-01
 -0.1082360E+02 -0.1082360E+02 -0.1027320E+00  0.8726195E-01 -0.1663857E+01  0.8108899E-02  0.8688437E-01
 -0.9710600E+01 -0.1183240E+02 -0.1027320E+00  0.9055761E-01 -0.1679513E+01  0.9825729E-02  0.9002297E-01
 -0.8504050E+01 -0.1272720E+02 -0.1027320E+00  0.9453193E-01 -0.1697408E+01  0.1193689E-01  0.9377524E-01
 -0.7215620E+01 -0.1349950E+02 -0.1027320E+00  0.9914652E-01 -0.1718088E+01  0.1455068E-01  0.9807298E-01
 -0.5857690E+01 -0.1414170E+02 -0.1027320E+00  0.1043187E+00 -0.1741513E+01  0.1772256E-01  0.1028022E+00
 -0.4443360E+01 -0.1464780E+02 -0.1027320E+00  0.1120415E+00 -0.1771094E+01  0.2229186E-01  0.1098015E+00
 -0.2986230E+01 -0.1501280E+02 -0.1027320E+00  0.1252635E+00 -0.1811908E+01  0.2991069E-01  0.1216401E+00
 -0.1500340E+01 -0.1523320E+02 -0.1027320E+00  0.1517240E+00 -0.1876570E+01  0.4567356E-01  0.1446862E+00
  0.1825330E-06 -0.1530690E+02 -0.1027320E+00  0.1510262E+00 -0.1898168E+01  0.4856329E-01  0.1430054E+00
  0.1500340E+01 -0.1523320E+02 -0.1027320E+00  0.1316916E+00 -0.1910260E+01  0.4385086E-01  0.1241765E+00
  0.2986230E+01 -0.1501280E+02 -0.1027320E+00  0.7486139E-01 -0.1917273E+01  0.2542191E-01  0.7041275E-01
  0.4443360E+01 -0.1464780E+02 -0.1027320E+00  0.5414514E-01 -0.1935161E+01  0.1929492E-01  0.5059053E-01
  0.5857700E+01 -0.1414170E+02 -0.1027320E+00  0.4317791E-01 -0.1964144E+01  0.1654935E-01  0.3988046E-01
  0.7215620E+01 -0.1349950E+02 -0.1027320E+00  0.3588535E-01 -0.2005484E+01  0.1511230E-01  0.3254807E-01
  0.8504060E+01 -0.1272720E+02 -0.1027320E+00  0.3033424E-01 -0.2058003E+01  0.1420125E-01  0.2680468E-01
  0.9710600E+01 -0.1183240E+02 -0.1027320E+00  0.2614186E-01 -0.2124279E+01  0.1374155E-01  0.2223885E-01
  0.1082360E+02 -0.1082360E+02 -0.1027320E+00  0.2248405E-01 -0.2214180E+01  0.1348831E-01  0.1798883E-01
  0.1183240E+02 -0.9710590E+01 -0.1027320E+00  0.2007813E-01 -0.2316846E+01  0.1362789E-01  0.1474490E-01
  0.1272720E+02 -0.8504060E+01 -0.1027320E+00  0.1811768E-01 -0.2442305E+01  0.1386548E-01  0.1166185E-01
