 VARIABLES="X" "Y" "Z" "abs(eta) (m)" "angle(phi) (rad)" "PRE1" "PRE2"
ZONE N=   3200 ,E =    3136 ,F=FEPOINT,ET=QUADRILATERAL
  0.1530690E+02  0.0000000E+00  0.0000000E+00  0.7433487E+00  0.2720724E+01  0.6784800E+00 -0.3036975E+00
  0.1523320E+02  0.1500340E+01  0.0000000E+00  0.7394681E+00  0.2717702E+01  0.6740219E+00 -0.3041506E+00
  0.1501280E+02  0.2986230E+01  0.0000000E+00  0.7329469E+00  0.2711114E+01  0.6660773E+00 -0.3058631E+00
  0.1464780E+02  0.4443360E+01  0.0000000E+00  0.7234994E+00  0.2701633E+01  0.6545996E+00 -0.3081408E+00
  0.1414170E+02  0.5857700E+01  0.0000000E+00  0.7118604E+00  0.2688443E+01  0.6400142E+00 -0.3116520E+00
  0.1349950E+02  0.7215620E+01  0.0000000E+00  0.6990342E+00  0.2670198E+01  0.6227947E+00 -0.3174517E+00
  0.1272720E+02  0.8504060E+01  0.0000000E+00  0.6863359E+00  0.2644885E+01  0.6033965E+00 -0.3270621E+00
  0.1183240E+02  0.9710600E+01  0.0000000E+00  0.6686246E+00  0.2617887E+01  0.5790101E+00 -0.3343743E+00
  0.1082360E+02  0.1082360E+02  0.0000000E+00  0.6436302E+00  0.2592186E+01  0.5489101E+00 -0.3360915E+00
  0.9710590E+01  0.1183240E+02  0.0000000E+00  0.6185669E+00  0.2560399E+01  0.5170032E+00 -0.3396066E+00
  0.8504060E+01  0.1272720E+02  0.0000000E+00  0.5886090E+00  0.2526793E+01  0.4808283E+00 -0.3395064E+00
  0.7215620E+01  0.1349950E+02  0.0000000E+00  0.5486118E+00  0.2495139E+01  0.4379155E+00 -0.3304616E+00
  0.5857700E+01  0.1414170E+02  0.0000000E+00  0.5062913E+00  0.2456015E+01  0.3918967E+00 -0.3205431E+00
  0.4443360E+01  0.1464780E+02  0.0000000E+00  0.4489351E+00  0.2420388E+01  0.3371553E+00 -0.2964271E+00
  0.2986230E+01  0.1501280E+02  0.0000000E+00  0.3568814E+00  0.2403883E+01  0.2640962E+00 -0.2400364E+00
  0.1500340E+01  0.1523320E+02  0.0000000E+00  0.1056354E+00  0.3031809E+01  0.1049995E+00 -0.1157376E-01
 -0.6690860E-06  0.1530690E+02  0.0000000E+00  0.1328532E+00 -0.1516174E+01 -0.7253172E-02  0.1326551E+00
 -0.1500340E+01  0.1523320E+02  0.0000000E+00  0.2950023E+00 -0.1174825E+01 -0.1137838E+00  0.2721757E+00
 -0.2986230E+01  0.1501280E+02  0.0000000E+00  0.5387372E+00 -0.1095533E+01 -0.2465116E+00  0.4790301E+00
 -0.4443360E+01  0.1464780E+02  0.0000000E+00  0.6174415E+00 -0.1028007E+01 -0.3189250E+00  0.5286973E+00
 -0.5857700E+01  0.1414170E+02  0.0000000E+00  0.6668454E+00 -0.9693900E+00 -0.3773029E+00  0.5498412E+00
 -0.7215620E+01  0.1349950E+02  0.0000000E+00  0.7025581E+00 -0.9170569E+00 -0.4272671E+00  0.5577013E+00
 -0.8504060E+01  0.1272720E+02  0.0000000E+00  0.7381285E+00 -0.8726346E+00 -0.4744768E+00  0.5654250E+00
 -0.9710590E+01  0.1183240E+02  0.0000000E+00  0.7641950E+00 -0.8313327E+00 -0.5149847E+00  0.5646103E+00
 -0.1082360E+02  0.1082360E+02  0.0000000E+00  0.7855394E+00 -0.7941256E+00 -0.5505914E+00  0.5602868E+00
 -0.1183240E+02  0.9710590E+01  0.0000000E+00  0.8068797E+00 -0.7629058E+00 -0.5832378E+00  0.5575739E+00
 -0.1272720E+02  0.8504060E+01  0.0000000E+00  0.8210253E+00 -0.7333658E+00 -0.6099607E+00  0.5495730E+00
 -0.1349950E+02  0.7215620E+01  0.0000000E+00  0.8306467E+00 -0.7069356E+00 -0.6315870E+00  0.5395107E+00
 -0.1414170E+02  0.5857690E+01  0.0000000E+00  0.8410910E+00 -0.6867023E+00 -0.6504501E+00  0.5332436E+00
 -0.1464780E+02  0.4443360E+01  0.0000000E+00  0.8504225E+00 -0.6714677E+00 -0.6658038E+00  0.5290782E+00
 -0.1501280E+02  0.2986230E+01  0.0000000E+00  0.8577170E+00 -0.6603538E+00 -0.6774037E+00  0.5261204E+00
 -0.1523320E+02  0.1500340E+01  0.0000000E+00  0.8622428E+00 -0.6528008E+00 -0.6849533E+00  0.5237381E+00
 -0.1530690E+02 -0.1338170E-05  0.0000000E+00  0.8642686E+00 -0.6493516E+00 -0.6883692E+00  0.5225974E+00
 -0.1523320E+02 -0.1500340E+01  0.0000000E+00  0.8635646E+00 -0.6498883E+00 -0.6875282E+00  0.5225407E+00
 -0.1501280E+02 -0.2986230E+01  0.0000000E+00  0.8602473E+00 -0.6544452E+00 -0.6825079E+00  0.5236490E+00
 -0.1464780E+02 -0.4443360E+01  0.0000000E+00  0.8540349E+00 -0.6624392E+00 -0.6734017E+00  0.5252673E+00
 -0.1414170E+02 -0.5857700E+01  0.0000000E+00  0.8457193E+00 -0.6743588E+00 -0.6605977E+00  0.5280643E+00
 -0.1349950E+02 -0.7215620E+01  0.0000000E+00  0.8364407E+00 -0.6910865E+00 -0.6445227E+00  0.5331262E+00
 -0.1272720E+02 -0.8504060E+01  0.0000000E+00  0.8280848E+00 -0.7135375E+00 -0.6260746E+00  0.5419918E+00
 -0.1183240E+02 -0.9710600E+01  0.0000000E+00  0.8147359E+00 -0.7386212E+00 -0.6024138E+00  0.5485365E+00
 -0.1082360E+02 -0.1082360E+02  0.0000000E+00  0.7931987E+00 -0.7650230E+00 -0.5721869E+00  0.5493326E+00
 -0.9710600E+01 -0.1183240E+02  0.0000000E+00  0.7717614E+00 -0.7967505E+00 -0.5394875E+00  0.5518776E+00
 -0.8504050E+01 -0.1272720E+02  0.0000000E+00  0.7449697E+00 -0.8318743E+00 -0.5017307E+00  0.5506779E+00
 -0.7215620E+01 -0.1349950E+02  0.0000000E+00  0.7074040E+00 -0.8692656E+00 -0.4565498E+00  0.5403542E+00
 -0.5857690E+01 -0.1414170E+02  0.0000000E+00  0.6687322E+00 -0.9121495E+00 -0.4092957E+00  0.5288476E+00
 -0.4443360E+01 -0.1464780E+02  0.0000000E+00  0.6140032E+00 -0.9591015E+00 -0.3525949E+00  0.5026697E+00
 -0.2986230E+01 -0.1501280E+02  0.0000000E+00  0.5233445E+00 -0.1008556E+01 -0.2789859E+00  0.4427825E+00
 -0.1500340E+01 -0.1523320E+02  0.0000000E+00  0.2383934E+00 -0.1053553E+01 -0.1178823E+00  0.2072081E+00
  0.1825330E-06 -0.1530690E+02  0.0000000E+00  0.6261955E-01 -0.1711816E+01  0.8801346E-02  0.6199794E-01
  0.1500340E+01 -0.1523320E+02  0.0000000E+00  0.1594455E+00  0.2651151E+01  0.1406509E+00 -0.7510125E-01
  0.2986230E+01 -0.1501280E+02  0.0000000E+00  0.4251413E+00  0.2443714E+01  0.3257464E+00 -0.2731930E+00
  0.4443360E+01 -0.1464780E+02  0.0000000E+00  0.5102568E+00  0.2467233E+01  0.3985653E+00 -0.3186027E+00
  0.5857700E+01 -0.1414170E+02  0.0000000E+00  0.5625082E+00  0.2498971E+01  0.4503031E+00 -0.3371091E+00
  0.7215620E+01 -0.1349950E+02  0.0000000E+00  0.5998571E+00  0.2533002E+01  0.4921556E+00 -0.3429452E+00
  0.8504060E+01 -0.1272720E+02  0.0000000E+00  0.6358457E+00  0.2560346E+01  0.5314264E+00 -0.3491213E+00
  0.9710600E+01 -0.1183240E+02  0.0000000E+00  0.6614755E+00  0.2589179E+01  0.5630880E+00 -0.3471048E+00
  0.1082360E+02 -0.1082360E+02  0.0000000E+00  0.6820334E+00  0.2616569E+01  0.5901716E+00 -0.3418583E+00
  0.1183240E+02 -0.9710590E+01  0.0000000E+00  0.7026593E+00  0.2639082E+01  0.6157939E+00 -0.3384199E+00
  0.1272720E+02 -0.8504060E+01  0.0000000E+00  0.7155083E+00  0.2662309E+01  0.6348889E+00 -0.3299520E+00
  0.1349950E+02 -0.7215620E+01  0.0000000E+00  0.7231860E+00  0.2683792E+01  0.6487171E+00 -0.3196311E+00
  0.1414170E+02 -0.5857700E+01  0.0000000E+00  0.7311779E+00  0.2698784E+01  0.6606570E+00 -0.3132944E+00
  0.1464780E+02 -0.4443350E+01  0.0000000E+00  0.7380430E+00  0.2709291E+01  0.6701458E+00 -0.3092120E+00
  0.1501280E+02 -0.2986230E+01  0.0000000E+00  0.7427040E+00  0.2716241E+01  0.6765243E+00 -0.3064705E+00
  0.1523320E+02 -0.1500330E+01  0.0000000E+00  0.7443826E+00  0.2720284E+01  0.6792897E+00 -0.3044190E+00
  0.1530690E+02  0.0000000E+00 -0.2568960E-01  0.7422028E+00  0.2720670E+01  0.6774176E+00 -0.3032662E+00
  0.1523320E+02  0.1500340E+01 -0.2568960E-01  0.7383299E+00  0.2717647E+01  0.6729677E+00 -0.3037195E+00
  0.1501280E+02  0.2986230E+01 -0.2568960E-01  0.7318203E+00  0.2711056E+01  0.6650357E+00 -0.3054315E+00
  0.1464780E+02  0.4443360E+01 -0.2568960E-01  0.7223917E+00  0.2701571E+01  0.6535786E+00 -0.3077089E+00
  0.1414170E+02  0.5857700E+01 -0.2568960E-01  0.7107708E+00  0.2688380E+01  0.6390149E+00 -0.3112155E+00
  0.1349950E+02  0.7215620E+01 -0.2568960E-01  0.6979507E+00  0.2670149E+01  0.6218138E+00 -0.3169902E+00
  0.1272720E+02  0.8504060E+01 -0.2568960E-01  0.6852433E+00  0.2644869E+01  0.6024306E+00 -0.3265513E+00
  0.1183240E+02  0.9710600E+01 -0.2568960E-01  0.6675556E+00  0.2617881E+01  0.5780825E+00 -0.3338430E+00
  0.1082360E+02  0.1082360E+02 -0.2568960E-01  0.6426294E+00  0.2592153E+01  0.5480455E+00 -0.3355872E+00
  0.9710590E+01  0.1183240E+02 -0.2568960E-01  0.6175939E+00  0.2560384E+01  0.5161848E+00 -0.3390803E+00
  0.8504060E+01  0.1272720E+02 -0.2568960E-01  0.5876765E+00  0.2526781E+01  0.4800623E+00 -0.3389746E+00
  0.7215620E+01  0.1349950E+02 -0.2568960E-01  0.5478099E+00  0.2495069E+01  0.4372524E+00 -0.3300091E+00
  0.5857700E+01  0.1414170E+02 -0.2568960E-01  0.5055425E+00  0.2455964E+01  0.3913006E+00 -0.3200892E+00
  0.4443360E+01  0.1464780E+02 -0.2568960E-01  0.4483180E+00  0.2420300E+01  0.3366655E+00 -0.2960496E+00
  0.2986230E+01  0.1501280E+02 -0.2568960E-01  0.3563743E+00  0.2403821E+01  0.2637060E+00 -0.2397118E+00
  0.1500340E+01  0.1523320E+02 -0.2568960E-01  0.1055074E+00  0.3031165E+01  0.1048648E+00 -0.1162726E-01
 -0.6690860E-06  0.1530690E+02 -0.2568960E-01  0.1326407E+00 -0.1516188E+01 -0.7239725E-02  0.1324430E+00
 -0.1500340E+01  0.1523320E+02 -0.2568960E-01  0.2946122E+00 -0.1174846E+01 -0.1136275E+00  0.2718182E+00
 -0.2986230E+01  0.1501280E+02 -0.2568960E-01  0.5379339E+00 -0.1095554E+01 -0.2461336E+00  0.4783211E+00
 -0.4443360E+01  0.1464780E+02 -0.2568960E-01  0.6165427E+00 -0.1028043E+01 -0.3184416E+00  0.5279393E+00
 -0.5857700E+01  0.1414170E+02 -0.2568960E-01  0.6658295E+00 -0.9694205E+00 -0.3767113E+00  0.5490150E+00
 -0.7215620E+01  0.1349950E+02 -0.2568960E-01  0.7015056E+00 -0.9170943E+00 -0.4266061E+00  0.5568818E+00
 -0.8504060E+01  0.1272720E+02 -0.2568960E-01  0.7369490E+00 -0.8726452E+00 -0.4737127E+00  0.5645265E+00
 -0.9710590E+01  0.1183240E+02 -0.2568960E-01  0.7629783E+00 -0.8313457E+00 -0.5141574E+00  0.5637180E+00
 -0.1082360E+02  0.1082360E+02 -0.2568960E-01  0.7843037E+00 -0.7941499E+00 -0.5497117E+00  0.5594188E+00
 -0.1183240E+02  0.9710590E+01 -0.2568960E-01  0.8055810E+00 -0.7629120E+00 -0.5822955E+00  0.5566800E+00
 -0.1272720E+02  0.8504060E+01 -0.2568960E-01  0.8197153E+00 -0.7333784E+00 -0.6089807E+00  0.5487037E+00
 -0.1349950E+02  0.7215620E+01 -0.2568960E-01  0.8293541E+00 -0.7069685E+00 -0.6305865E+00  0.5386919E+00
 -0.1414170E+02  0.5857690E+01 -0.2568960E-01  0.8397940E+00 -0.6867415E+00 -0.6494262E+00  0.5324468E+00
 -0.1464780E+02  0.4443360E+01 -0.2568960E-01  0.8491095E+00 -0.6715066E+00 -0.6647553E+00  0.5282872E+00
 -0.1501280E+02  0.2986230E+01 -0.2568960E-01  0.8563884E+00 -0.6603898E+00 -0.6763355E+00  0.5253298E+00
 -0.1523320E+02  0.1500340E+01 -0.2568960E-01  0.8609071E+00 -0.6528428E+00 -0.6838704E+00  0.5229555E+00
 -0.1530690E+02 -0.1338170E-05 -0.2568960E-01  0.8629314E+00 -0.6493862E+00 -0.6872861E+00  0.5218126E+00
 -0.1523320E+02 -0.1500340E+01 -0.2568960E-01  0.8622257E+00 -0.6499277E+00 -0.6864416E+00  0.5217577E+00
 -0.1501280E+02 -0.2986230E+01 -0.2568960E-01  0.8589168E+00 -0.6544850E+00 -0.6814315E+00  0.5228662E+00
 -0.1464780E+02 -0.4443360E+01 -0.2568960E-01  0.8527181E+00 -0.6624776E+00 -0.6723433E+00  0.5244833E+00
 -0.1414170E+02 -0.5857700E+01 -0.2568960E-01  0.8444189E+00 -0.6743957E+00 -0.6595624E+00  0.5272766E+00
 -0.1349950E+02 -0.7215620E+01 -0.2568960E-01  0.8351406E+00 -0.6911161E+00 -0.6435052E+00  0.5323166E+00
 -0.1272720E+02 -0.8504060E+01 -0.2568960E-01  0.8267630E+00 -0.7135481E+00 -0.6250695E+00  0.5411332E+00
 -0.1183240E+02 -0.9710600E+01 -0.2568960E-01  0.8134243E+00 -0.7386284E+00 -0.6014401E+00  0.5476578E+00
 -0.1082360E+02 -0.1082360E+02 -0.2568960E-01  0.7919562E+00 -0.7650478E+00 -0.5712770E+00  0.5484864E+00
 -0.9710600E+01 -0.1183240E+02 -0.2568960E-01  0.7705328E+00 -0.7967643E+00 -0.5386211E+00  0.5510065E+00
 -0.8504050E+01 -0.1272720E+02 -0.2568960E-01  0.7437783E+00 -0.8318881E+00 -0.5009208E+00  0.5498041E+00
 -0.7215620E+01 -0.1349950E+02 -0.2568960E-01  0.7063497E+00 -0.8692961E+00 -0.4558530E+00  0.5395628E+00
 -0.5857690E+01 -0.1414170E+02 -0.2568960E-01  0.6677185E+00 -0.9121787E+00 -0.4086599E+00  0.5280578E+00
 -0.4443360E+01 -0.1464780E+02 -0.2568960E-01  0.6131195E+00 -0.9591309E+00 -0.3520726E+00  0.5019565E+00
 -0.2986230E+01 -0.1501280E+02 -0.2568960E-01  0.5225668E+00 -0.1008571E+01 -0.2785648E+00  0.4421286E+00
 -0.1500340E+01 -0.1523320E+02 -0.2568960E-01  0.2380854E+00 -0.1053535E+01 -0.1177336E+00  0.2069383E+00
  0.1825330E-06 -0.1530690E+02 -0.2568960E-01  0.6251125E-01 -0.1711893E+01  0.8790887E-02  0.6189004E-01
  0.1500340E+01 -0.1523320E+02 -0.2568960E-01  0.1592766E+00  0.2650817E+01  0.1404769E+00 -0.7506868E-01
  0.2986230E+01 -0.1501280E+02 -0.2568960E-01  0.4245333E+00  0.2443669E+01  0.3252682E+00 -0.2728171E+00
  0.4443360E+01 -0.1464780E+02 -0.2568960E-01  0.5095478E+00  0.2467168E+01  0.3979906E+00 -0.3181861E+00
  0.5857700E+01 -0.1414170E+02 -0.2568960E-01  0.5616744E+00  0.2498933E+01  0.4496229E+00 -0.3366265E+00
  0.7215620E+01 -0.1349950E+02 -0.2568960E-01  0.5989804E+00  0.2532942E+01  0.4914155E+00 -0.3424738E+00
  0.8504060E+01 -0.1272720E+02 -0.2568960E-01  0.6348388E+00  0.2560335E+01  0.5305811E+00 -0.3485742E+00
  0.9710600E+01 -0.1183240E+02 -0.2568960E-01  0.6604322E+00  0.2589166E+01  0.5621955E+00 -0.3465645E+00
  0.1082360E+02 -0.1082360E+02 -0.2568960E-01  0.6809753E+00  0.2616545E+01  0.5892479E+00 -0.3413418E+00
  0.1183240E+02 -0.9710590E+01 -0.2568960E-01  0.7015315E+00  0.2639075E+01  0.6148031E+00 -0.3378811E+00
  0.1272720E+02 -0.8504060E+01 -0.2568960E-01  0.7143686E+00  0.2662294E+01  0.6338725E+00 -0.3294362E+00
  0.1349950E+02 -0.7215620E+01 -0.2568960E-01  0.7220707E+00  0.2683746E+01  0.6477022E+00 -0.3191677E+00
  0.1414170E+02 -0.5857700E+01 -0.2568960E-01  0.7300602E+00  0.2698728E+01  0.6596295E+00 -0.3128526E+00
  0.1464780E+02 -0.4443350E+01 -0.2568960E-01  0.7369150E+00  0.2709236E+01  0.6691046E+00 -0.3087762E+00
  0.1501280E+02 -0.2986230E+01 -0.2568960E-01  0.7415622E+00  0.2716186E+01  0.6754675E+00 -0.3060363E+00
  0.1523320E+02 -0.1500330E+01 -0.2568960E-01  0.7432381E+00  0.2720228E+01  0.6782283E+00 -0.3039888E+00
  0.1530690E+02  0.0000000E+00 -0.1027320E+00  0.7388126E+00  0.2720476E+01  0.6742648E+00 -0.3020115E+00
  0.1523320E+02  0.1500340E+01 -0.1027320E+00  0.7349573E+00  0.2717447E+01  0.6698332E+00 -0.3024661E+00
  0.1501280E+02  0.2986230E+01 -0.1027320E+00  0.7284823E+00  0.2710853E+01  0.6619406E+00 -0.3041728E+00
  0.1464780E+02  0.4443360E+01 -0.1027320E+00  0.7191096E+00  0.2701358E+01  0.6505438E+00 -0.3064496E+00
  0.1414170E+02  0.5857700E+01 -0.1027320E+00  0.7075419E+00  0.2688169E+01  0.6360466E+00 -0.3099358E+00
  0.1349950E+02  0.7215620E+01 -0.1027320E+00  0.6947474E+00  0.2669974E+01  0.6189046E+00 -0.3156438E+00
  0.1272720E+02  0.8504060E+01 -0.1027320E+00  0.6820009E+00  0.2644804E+01  0.5995589E+00 -0.3250453E+00
  0.1183240E+02  0.9710600E+01 -0.1027320E+00  0.6643752E+00  0.2617849E+01  0.5753176E+00 -0.3322712E+00
  0.1082360E+02  0.1082360E+02 -0.1027320E+00  0.6396551E+00  0.2592041E+01  0.5454714E+00 -0.3340953E+00
  0.9710590E+01  0.1183240E+02 -0.1027320E+00  0.6146985E+00  0.2560322E+01  0.5137439E+00 -0.3375225E+00
  0.8504060E+01  0.1272720E+02 -0.1027320E+00  0.5849001E+00  0.2526737E+01  0.4777796E+00 -0.3373941E+00
  0.7215620E+01  0.1349950E+02 -0.1027320E+00  0.5453765E+00  0.2494888E+01  0.4352507E+00 -0.3286219E+00
  0.5857700E+01  0.1414170E+02 -0.1027320E+00  0.5033234E+00  0.2455793E+01  0.3895285E+00 -0.3187508E+00
  0.4443360E+01  0.1464780E+02 -0.1027320E+00  0.4464786E+00  0.2420027E+01  0.3352038E+00 -0.2949263E+00
  0.2986230E+01  0.1501280E+02 -0.1027320E+00  0.3548429E+00  0.2403645E+01  0.2625307E+00 -0.2387281E+00
  0.1500340E+01  0.1523320E+02 -0.1027320E+00  0.1051245E+00  0.3029343E+01  0.1044629E+00 -0.1177545E-01
 -0.6690860E-06  0.1530690E+02 -0.1027320E+00  0.1320203E+00 -0.1516204E+01 -0.7203780E-02  0.1318236E+00
 -0.1500340E+01  0.1523320E+02 -0.1027320E+00  0.2934278E+00 -0.1174901E+01 -0.1131558E+00  0.2707316E+00
 -0.2986230E+01  0.1501280E+02 -0.1027320E+00  0.5355107E+00 -0.1095623E+01 -0.2449920E+00  0.4761834E+00
 -0.4443360E+01  0.1464780E+02 -0.1027320E+00  0.6138665E+00 -0.1028149E+01 -0.3170036E+00  0.5256813E+00
 -0.5857700E+01  0.1414170E+02 -0.1027320E+00  0.6628075E+00 -0.9695145E+00 -0.3749502E+00  0.5465585E+00
 -0.7215620E+01  0.1349950E+02 -0.1027320E+00  0.6983242E+00 -0.9171879E+00 -0.4246196E+00  0.5543960E+00
 -0.8504060E+01  0.1272720E+02 -0.1027320E+00  0.7334377E+00 -0.8726851E+00 -0.4714332E+00  0.5618556E+00
 -0.9710590E+01  0.1183240E+02 -0.1027320E+00  0.7593579E+00 -0.8313990E+00 -0.5116878E+00  0.5610704E+00
 -0.1082360E+02  0.1082360E+02 -0.1027320E+00  0.7806267E+00 -0.7942284E+00 -0.5470908E+00  0.5568390E+00
 -0.1183240E+02  0.9710590E+01 -0.1027320E+00  0.8017244E+00 -0.7629427E+00 -0.5794909E+00  0.5540329E+00
 -0.1272720E+02  0.8504060E+01 -0.1027320E+00  0.8158190E+00 -0.7334266E+00 -0.6060597E+00  0.5461249E+00
 -0.1349950E+02  0.7215620E+01 -0.1027320E+00  0.8255206E+00 -0.7070762E+00 -0.6276140E+00  0.5362695E+00
 -0.1414170E+02  0.5857690E+01 -0.1027320E+00  0.8359463E+00 -0.6868749E+00 -0.6463800E+00  0.5300936E+00
 -0.1464780E+02  0.4443360E+01 -0.1027320E+00  0.8452224E+00 -0.6716439E+00 -0.6616399E+00  0.5259596E+00
 -0.1501280E+02  0.2986230E+01 -0.1027320E+00  0.8524569E+00 -0.6605240E+00 -0.6731604E+00  0.5230085E+00
 -0.1523320E+02  0.1500340E+01 -0.1027320E+00  0.8569510E+00 -0.6529696E+00 -0.6806617E+00  0.5206387E+00
 -0.1530690E+02 -0.1338170E-05 -0.1027320E+00  0.8589612E+00 -0.6495172E+00 -0.6840560E+00  0.5195015E+00
 -0.1523320E+02 -0.1500340E+01 -0.1027320E+00  0.8582672E+00 -0.6500581E+00 -0.6832224E+00  0.5194513E+00
 -0.1501280E+02 -0.2986230E+01 -0.1027320E+00  0.8549803E+00 -0.6546110E+00 -0.6782429E+00  0.5205554E+00
 -0.1464780E+02 -0.4443360E+01 -0.1027320E+00  0.8488238E+00 -0.6626106E+00 -0.6692033E+00  0.5221770E+00
 -0.1414170E+02 -0.5857700E+01 -0.1027320E+00  0.8405585E+00 -0.6745266E+00 -0.6564784E+00  0.5249520E+00
 -0.1349950E+02 -0.7215620E+01 -0.1027320E+00  0.8312889E+00 -0.6912175E+00 -0.6404836E+00  0.5299265E+00
 -0.1272720E+02 -0.8504060E+01 -0.1027320E+00  0.8228360E+00 -0.7135925E+00 -0.6220766E+00  0.5385906E+00
 -0.1183240E+02 -0.9710600E+01 -0.1027320E+00  0.8095264E+00 -0.7386594E+00 -0.5985411E+00  0.5450520E+00
 -0.1082360E+02 -0.1082360E+02 -0.1027320E+00  0.7882537E+00 -0.7651198E+00 -0.5685669E+00  0.5459630E+00
 -0.9710600E+01 -0.1183240E+02 -0.1027320E+00  0.7668801E+00 -0.7968160E+00 -0.5360394E+00  0.5484222E+00
 -0.8504050E+01 -0.1272720E+02 -0.1027320E+00  0.7402356E+00 -0.8319233E+00 -0.4985156E+00  0.5472029E+00
 -0.7215620E+01 -0.1349950E+02 -0.1027320E+00  0.7031575E+00 -0.8693709E+00 -0.4537526E+00  0.5371583E+00
 -0.5857690E+01 -0.1414170E+02 -0.1027320E+00  0.6647099E+00 -0.9122587E+00 -0.4067765E+00  0.5257111E+00
 -0.4443360E+01 -0.1464780E+02 -0.1027320E+00  0.6104862E+00 -0.9592217E+00 -0.3505152E+00  0.4998325E+00
 -0.2986230E+01 -0.1501280E+02 -0.1027320E+00  0.5202224E+00 -0.1008608E+01 -0.2772987E+00  0.4401554E+00
 -0.1500340E+01 -0.1523320E+02 -0.1027320E+00  0.2371538E+00 -0.1053483E+01 -0.1172836E+00  0.2061224E+00
  0.1825330E-06 -0.1530690E+02 -0.1027320E+00  0.6216784E-01 -0.1711951E+01  0.8746144E-02  0.6154954E-01
  0.1500340E+01 -0.1523320E+02 -0.1027320E+00  0.1587490E+00  0.2649876E+01  0.1399410E+00 -0.7495179E-01
  0.2986230E+01 -0.1501280E+02 -0.1027320E+00  0.4226950E+00  0.2443528E+01  0.3238213E+00 -0.2716815E+00
  0.4443360E+01 -0.1464780E+02 -0.1027320E+00  0.5074326E+00  0.2466965E+01  0.3962743E+00 -0.3169456E+00
  0.5857700E+01 -0.1414170E+02 -0.1027320E+00  0.5591934E+00  0.2498803E+01  0.4475932E+00 -0.3351977E+00
  0.7215620E+01 -0.1349950E+02 -0.1027320E+00  0.5963178E+00  0.2532787E+01  0.4891784E+00 -0.3410269E+00
  0.8504060E+01 -0.1272720E+02 -0.1027320E+00  0.6318380E+00  0.2560291E+01  0.5280577E+00 -0.3469500E+00
  0.9710600E+01 -0.1183240E+02 -0.1027320E+00  0.6573318E+00  0.2589110E+01  0.5595368E+00 -0.3449690E+00
  0.1082360E+02 -0.1082360E+02 -0.1027320E+00  0.6778176E+00  0.2616445E+01  0.5864816E+00 -0.3398177E+00
  0.1183240E+02 -0.9710590E+01 -0.1027320E+00  0.6981907E+00  0.2639036E+01  0.6118622E+00 -0.3362960E+00
  0.1272720E+02 -0.8504060E+01 -0.1027320E+00  0.7109886E+00  0.2662228E+01  0.6308517E+00 -0.3279190E+00
