 VARIABLES="X" "Y" "Z" "abs(eta) (m)" "angle(phi) (rad)" "PRE1" "PRE2"
ZONE N=   3200 ,E =    3136 ,F=FEPOINT,ET=QUADRILATERAL
  0.1530690E+02  0.0000000E+00  0.0000000E+00  0.4195482E+00 -0.1189591E+01 -0.1560884E+00  0.3894317E+00
  0.1523320E+02  0.1500340E+01  0.0000000E+00  0.4181039E+00 -0.1185494E+01 -0.1571397E+00  0.3874506E+00
  0.1501280E+02  0.2986230E+01  0.0000000E+00  0.4151943E+00 -0.1183573E+01 -0.1567850E+00  0.3844538E+00
  0.1464780E+02  0.4443360E+01  0.0000000E+00  0.4108455E+00 -0.1184084E+01 -0.1549486E+00  0.3805062E+00
  0.1414170E+02  0.5857700E+01  0.0000000E+00  0.4049370E+00 -0.1186836E+01 -0.1516876E+00  0.3754528E+00
  0.1349950E+02  0.7215620E+01  0.0000000E+00  0.3979339E+00 -0.1191900E+01 -0.1471938E+00  0.3697099E+00
  0.1272720E+02  0.8504060E+01  0.0000000E+00  0.3917456E+00 -0.1199505E+01 -0.1421329E+00  0.3650519E+00
  0.1183240E+02  0.9710600E+01  0.0000000E+00  0.3852092E+00 -0.1209208E+01 -0.1362717E+00  0.3603001E+00
  0.1082360E+02  0.1082360E+02  0.0000000E+00  0.3776320E+00 -0.1220779E+01 -0.1294953E+00  0.3547349E+00
  0.9710590E+01  0.1183240E+02  0.0000000E+00  0.3669282E+00 -0.1234153E+01 -0.1212039E+00  0.3463320E+00
  0.8504060E+01  0.1272720E+02  0.0000000E+00  0.3563031E+00 -0.1249480E+01 -0.1125260E+00  0.3380678E+00
  0.7215620E+01  0.1349950E+02  0.0000000E+00  0.3387600E+00 -0.1267270E+01 -0.1012510E+00  0.3232748E+00
  0.5857700E+01  0.1414170E+02  0.0000000E+00  0.3179948E+00 -0.1287202E+01 -0.8897756E-01  0.3052928E+00
  0.4443360E+01  0.1464780E+02  0.0000000E+00  0.2888823E+00 -0.1310939E+01 -0.7422609E-01  0.2791836E+00
  0.2986230E+01  0.1501280E+02  0.0000000E+00  0.2333106E+00 -0.1348937E+01 -0.5133847E-01  0.2275922E+00
  0.1500340E+01  0.1523320E+02  0.0000000E+00  0.5977060E-01 -0.1804765E+01  0.1385722E-01  0.5814209E-01
 -0.6690860E-06  0.1530690E+02  0.0000000E+00  0.6972998E-01  0.2546694E+01  0.5775072E-01 -0.3907842E-01
 -0.1500340E+01  0.1523320E+02  0.0000000E+00  0.1550373E+00  0.2250033E+01  0.9739430E-01 -0.1206272E+00
 -0.2986230E+01  0.1501280E+02  0.0000000E+00  0.2593383E+00  0.2153626E+01  0.1427369E+00 -0.2165238E+00
 -0.4443360E+01  0.1464780E+02  0.0000000E+00  0.2850051E+00  0.2142086E+01  0.1541073E+00 -0.2397475E+00
 -0.5857700E+01  0.1414170E+02  0.0000000E+00  0.2969869E+00  0.2142488E+01  0.1606863E+00 -0.2497621E+00
 -0.7215620E+01  0.1349950E+02  0.0000000E+00  0.3060274E+00  0.2145118E+01  0.1662541E+00 -0.2569287E+00
 -0.8504060E+01  0.1272720E+02  0.0000000E+00  0.3138233E+00  0.2148973E+01  0.1715039E+00 -0.2628145E+00
 -0.9710590E+01  0.1183240E+02  0.0000000E+00  0.3166061E+00  0.2155573E+01  0.1747707E+00 -0.2639974E+00
 -0.1082360E+02  0.1082360E+02  0.0000000E+00  0.3197316E+00  0.2161387E+01  0.1780432E+00 -0.2655728E+00
 -0.1183240E+02  0.9710590E+01  0.0000000E+00  0.3211330E+00  0.2166748E+01  0.1802509E+00 -0.2657743E+00
 -0.1272720E+02  0.8504060E+01  0.0000000E+00  0.3221645E+00  0.2170393E+01  0.1818006E+00 -0.2659672E+00
 -0.1349950E+02  0.7215620E+01  0.0000000E+00  0.3228634E+00  0.2172824E+01  0.1828423E+00 -0.2661005E+00
 -0.1414170E+02  0.5857690E+01  0.0000000E+00  0.3240575E+00  0.2173044E+01  0.1835774E+00 -0.2670442E+00
 -0.1464780E+02  0.4443360E+01  0.0000000E+00  0.3245750E+00  0.2171644E+01  0.1834960E+00 -0.2677278E+00
 -0.1501280E+02  0.2986230E+01  0.0000000E+00  0.3238605E+00  0.2169010E+01  0.1823877E+00 -0.2676198E+00
 -0.1523320E+02  0.1500340E+01  0.0000000E+00  0.3221138E+00  0.2164132E+01  0.1801033E+00 -0.2670582E+00
 -0.1530690E+02 -0.1338170E-05  0.0000000E+00  0.3191946E+00  0.2157507E+01  0.1767140E+00 -0.2658145E+00
 -0.1523320E+02 -0.1500340E+01  0.0000000E+00  0.3152595E+00  0.2149314E+01  0.1723786E+00 -0.2639587E+00
 -0.1501280E+02 -0.2986230E+01  0.0000000E+00  0.3100620E+00  0.2140415E+01  0.1672199E+00 -0.2611052E+00
 -0.1464780E+02 -0.4443360E+01  0.0000000E+00  0.3037433E+00  0.2130936E+01  0.1613802E+00 -0.2573255E+00
 -0.1414170E+02 -0.5857700E+01  0.0000000E+00  0.2961636E+00  0.2120950E+01  0.1548399E+00 -0.2524629E+00
 -0.1349950E+02 -0.7215620E+01  0.0000000E+00  0.2877066E+00  0.2109708E+01  0.1476517E+00 -0.2469293E+00
 -0.1272720E+02 -0.8504060E+01  0.0000000E+00  0.2798477E+00  0.2093612E+01  0.1397340E+00 -0.2424647E+00
 -0.1183240E+02 -0.9710600E+01  0.0000000E+00  0.2716129E+00  0.2074353E+01  0.1310651E+00 -0.2378981E+00
 -0.1082360E+02 -0.1082360E+02  0.0000000E+00  0.2624082E+00  0.2052811E+01  0.1216432E+00 -0.2325102E+00
 -0.9710600E+01 -0.1183240E+02  0.0000000E+00  0.2505269E+00  0.2032376E+01  0.1115753E+00 -0.2243094E+00
 -0.8504050E+01 -0.1272720E+02  0.0000000E+00  0.2386547E+00  0.2007375E+01  0.1009132E+00 -0.2162697E+00
 -0.7215620E+01 -0.1349950E+02  0.0000000E+00  0.2207818E+00  0.1989031E+01  0.8967015E-01 -0.2017521E+00
 -0.5857690E+01 -0.1414170E+02  0.0000000E+00  0.1998620E+00  0.1970478E+01  0.7777127E-01 -0.1841099E+00
 -0.4443360E+01 -0.1464780E+02  0.0000000E+00  0.1714865E+00  0.1962451E+01  0.6545954E-01 -0.1585013E+00
 -0.2986230E+01 -0.1501280E+02  0.0000000E+00  0.1200782E+00  0.2027628E+01  0.5296738E-01 -0.1077647E+00
 -0.1500340E+01 -0.1523320E+02  0.0000000E+00  0.7414263E-01 -0.2201676E+01  0.4373344E-01  0.5987082E-01
  0.1825330E-06 -0.1530690E+02  0.0000000E+00  0.1600472E+00 -0.1769816E+01  0.3164272E-01  0.1568880E+00
  0.1500340E+01 -0.1523320E+02  0.0000000E+00  0.2396599E+00 -0.1638692E+01  0.1625929E-01  0.2391078E+00
  0.2986230E+01 -0.1501280E+02  0.0000000E+00  0.3374557E+00 -0.1545080E+01 -0.8677027E-02  0.3373441E+00
  0.4443360E+01 -0.1464780E+02  0.0000000E+00  0.3629336E+00 -0.1487246E+01 -0.3028784E-01  0.3616676E+00
  0.5857700E+01 -0.1414170E+02  0.0000000E+00  0.3755231E+00 -0.1441113E+01 -0.4856271E-01  0.3723698E+00
  0.7215620E+01 -0.1349950E+02  0.0000000E+00  0.3855165E+00 -0.1401826E+01 -0.6483116E-01  0.3800261E+00
  0.8504060E+01 -0.1272720E+02  0.0000000E+00  0.3943842E+00 -0.1367866E+01 -0.7948422E-01  0.3862915E+00
  0.9710600E+01 -0.1183240E+02  0.0000000E+00  0.3986759E+00 -0.1336139E+01 -0.9269584E-01  0.3877499E+00
  0.1082360E+02 -0.1082360E+02  0.0000000E+00  0.4033429E+00 -0.1308390E+01 -0.1046291E+00  0.3895359E+00
  0.1183240E+02 -0.9710590E+01  0.0000000E+00  0.4065322E+00 -0.1283361E+01 -0.1152494E+00  0.3898538E+00
  0.1272720E+02 -0.8504060E+01  0.0000000E+00  0.4095190E+00 -0.1261525E+01 -0.1246433E+00  0.3900895E+00
  0.1349950E+02 -0.7215620E+01  0.0000000E+00  0.4121960E+00 -0.1242751E+01 -0.1328069E+00  0.3902152E+00
  0.1414170E+02 -0.5857700E+01  0.0000000E+00  0.4153539E+00 -0.1227477E+01 -0.1398143E+00  0.3911149E+00
  0.1464780E+02 -0.4443350E+01  0.0000000E+00  0.4179012E+00 -0.1214859E+01 -0.1456256E+00  0.3917074E+00
  0.1501280E+02 -0.2986230E+01  0.0000000E+00  0.4193157E+00 -0.1204346E+01 -0.1502424E+00  0.3914753E+00
  0.1523320E+02 -0.1500330E+01  0.0000000E+00  0.4199578E+00 -0.1195927E+01 -0.1537680E+00  0.3907940E+00
  0.1530690E+02  0.0000000E+00 -0.2568960E-01  0.4190701E+00 -0.1189592E+01 -0.1559102E+00  0.3889881E+00
  0.1523320E+02  0.1500340E+01 -0.2568960E-01  0.4176268E+00 -0.1185499E+01 -0.1569587E+00  0.3870092E+00
  0.1501280E+02  0.2986230E+01 -0.2568960E-01  0.4147249E+00 -0.1183584E+01 -0.1566038E+00  0.3840208E+00
  0.1464780E+02  0.4443360E+01 -0.2568960E-01  0.4103906E+00 -0.1184093E+01 -0.1547735E+00  0.3800863E+00
  0.1414170E+02  0.5857700E+01 -0.2568960E-01  0.4045020E+00 -0.1186847E+01 -0.1515204E+00  0.3750512E+00
  0.1349950E+02  0.7215620E+01 -0.2568960E-01  0.3975205E+00 -0.1191913E+01 -0.1470360E+00  0.3693277E+00
  0.1272720E+02  0.8504060E+01 -0.2568960E-01  0.3913378E+00 -0.1199510E+01 -0.1419828E+00  0.3646727E+00
  0.1183240E+02  0.9710600E+01 -0.2568960E-01  0.3847997E+00 -0.1209214E+01 -0.1361248E+00  0.3599179E+00
  0.1082360E+02  0.1082360E+02 -0.2568960E-01  0.3772271E+00 -0.1220792E+01 -0.1293519E+00  0.3543563E+00
  0.9710590E+01  0.1183240E+02 -0.2568960E-01  0.3665486E+00 -0.1234159E+01 -0.1210765E+00  0.3459745E+00
  0.8504060E+01  0.1272720E+02 -0.2568960E-01  0.3559122E+00 -0.1249491E+01 -0.1123989E+00  0.3376980E+00
  0.7215620E+01  0.1349950E+02 -0.2568960E-01  0.3384316E+00 -0.1267264E+01 -0.1011548E+00  0.3229607E+00
  0.5857700E+01  0.1414170E+02 -0.2568960E-01  0.3176664E+00 -0.1287203E+01 -0.8888534E-01  0.3049776E+00
  0.4443360E+01  0.1464780E+02 -0.2568960E-01  0.2885987E+00 -0.1310937E+01 -0.7415383E-01  0.2789094E+00
  0.2986230E+01  0.1501280E+02 -0.2568960E-01  0.2330425E+00 -0.1348942E+01 -0.5127851E-01  0.2273308E+00
  0.1500340E+01  0.1523320E+02 -0.2568960E-01  0.5981642E-01 -0.1803632E+01  0.1380191E-01  0.5820233E-01
 -0.6690860E-06  0.1530690E+02 -0.2568960E-01  0.6966855E-01  0.2546538E+01  0.5769376E-01 -0.3905300E-01
 -0.1500340E+01  0.1523320E+02 -0.2568960E-01  0.1549418E+00  0.2249916E+01  0.9732021E-01 -0.1205643E+00
 -0.2986230E+01  0.1501280E+02 -0.2568960E-01  0.2590784E+00  0.2153598E+01  0.1425878E+00 -0.2163107E+00
 -0.4443360E+01  0.1464780E+02 -0.2568960E-01  0.2847239E+00  0.2142068E+01  0.1539509E+00 -0.2395137E+00
 -0.5857700E+01  0.1414170E+02 -0.2568960E-01  0.2966910E+00  0.2142473E+01  0.1605227E+00 -0.2495156E+00
 -0.7215620E+01  0.1349950E+02 -0.2568960E-01  0.3057337E+00  0.2145093E+01  0.1660880E+00 -0.2566863E+00
 -0.8504060E+01  0.1272720E+02 -0.2568960E-01  0.3134841E+00  0.2148965E+01  0.1713162E+00 -0.2625320E+00
 -0.9710590E+01  0.1183240E+02 -0.2568960E-01  0.3162839E+00  0.2155555E+01  0.1745881E+00 -0.2637319E+00
 -0.1082360E+02  0.1082360E+02 -0.2568960E-01  0.3193980E+00  0.2161375E+01  0.1778541E+00 -0.2652980E+00
 -0.1183240E+02  0.9710590E+01 -0.2568960E-01  0.3207981E+00  0.2166728E+01  0.1800576E+00 -0.2655008E+00
 -0.1272720E+02  0.8504060E+01 -0.2568960E-01  0.3218341E+00  0.2170368E+01  0.1816075E+00 -0.2656989E+00
 -0.1349950E+02  0.7215620E+01 -0.2568960E-01  0.3225340E+00  0.2172803E+01  0.1826503E+00 -0.2658328E+00
 -0.1414170E+02  0.5857690E+01 -0.2568960E-01  0.3237178E+00  0.2173028E+01  0.1833805E+00 -0.2667673E+00
 -0.1464780E+02  0.4443360E+01 -0.2568960E-01  0.3242216E+00  0.2171633E+01  0.1832931E+00 -0.2674384E+00
 -0.1501280E+02  0.2986230E+01 -0.2568960E-01  0.3234997E+00  0.2169007E+01  0.1821836E+00 -0.2673222E+00
 -0.1523320E+02  0.1500340E+01 -0.2568960E-01  0.3217500E+00  0.2164140E+01  0.1799020E+00 -0.2667553E+00
 -0.1530690E+02 -0.1338170E-05 -0.2568960E-01  0.3188325E+00  0.2157520E+01  0.1765171E+00 -0.2655106E+00
 -0.1523320E+02 -0.1500340E+01 -0.2568960E-01  0.3149033E+00  0.2149332E+01  0.1721887E+00 -0.2636572E+00
 -0.1501280E+02 -0.2986230E+01 -0.2568960E-01  0.3097148E+00  0.2140420E+01  0.1670340E+00 -0.2608120E+00
 -0.1464780E+02 -0.4443360E+01 -0.2568960E-01  0.3034132E+00  0.2130928E+01  0.1612028E+00 -0.2570472E+00
 -0.1414170E+02 -0.5857700E+01 -0.2568960E-01  0.2958516E+00  0.2120919E+01  0.1546687E+00 -0.2522018E+00
 -0.1349950E+02 -0.7215620E+01 -0.2568960E-01  0.2874158E+00  0.2109666E+01  0.1474920E+00 -0.2466860E+00
 -0.1272720E+02 -0.8504060E+01 -0.2568960E-01  0.2795635E+00  0.2093568E+01  0.1395814E+00 -0.2422246E+00
 -0.1183240E+02 -0.9710600E+01 -0.2568960E-01  0.2713308E+00  0.2074325E+01  0.1309224E+00 -0.2376547E+00
 -0.1082360E+02 -0.1082360E+02 -0.2568960E-01  0.2621343E+00  0.2052790E+01  0.1215114E+00 -0.2322700E+00
 -0.9710600E+01 -0.1183240E+02 -0.2568960E-01  0.2502777E+00  0.2032330E+01  0.1114540E+00 -0.2240913E+00
 -0.8504050E+01 -0.1272720E+02 -0.2568960E-01  0.2383983E+00  0.2007371E+01  0.1008038E+00 -0.2160378E+00
 -0.7215620E+01 -0.1349950E+02 -0.2568960E-01  0.2205810E+00  0.1988952E+01  0.8957249E-01 -0.2015756E+00
 -0.5857690E+01 -0.1414170E+02 -0.2568960E-01  0.1996658E+00  0.1970440E+01  0.7768792E-01 -0.1839322E+00
 -0.4443360E+01 -0.1464780E+02 -0.2568960E-01  0.1713320E+00  0.1962374E+01  0.6538844E-01 -0.1583636E+00
 -0.2986230E+01 -0.1501280E+02 -0.2568960E-01  0.1199421E+00  0.2027678E+01  0.5291263E-01 -0.1076399E+00
 -0.1500340E+01 -0.1523320E+02 -0.2568960E-01  0.7395858E-01 -0.2202692E+01  0.4368551E-01  0.5967788E-01
  0.1825330E-06 -0.1530690E+02 -0.2568960E-01  0.1598851E+00 -0.1769842E+01  0.3161477E-01  0.1567282E+00
  0.1500340E+01 -0.1523320E+02 -0.2568960E-01  0.2394628E+00 -0.1638650E+01  0.1623593E-01  0.2389117E+00
  0.2986230E+01 -0.1501280E+02 -0.2568960E-01  0.3371042E+00 -0.1545102E+01 -0.8660771E-02  0.3369929E+00
  0.4443360E+01 -0.1464780E+02 -0.2568960E-01  0.3625595E+00 -0.1487259E+01 -0.3025219E-01  0.3612952E+00
  0.5857700E+01 -0.1414170E+02 -0.2568960E-01  0.3751335E+00 -0.1441131E+01 -0.4850556E-01  0.3719843E+00
  0.7215620E+01 -0.1349950E+02 -0.2568960E-01  0.3851278E+00 -0.1401850E+01 -0.6475698E-01  0.3796445E+00
  0.8504060E+01 -0.1272720E+02 -0.2568960E-01  0.3939516E+00 -0.1367873E+01 -0.7939459E-01  0.3858683E+00
  0.9710600E+01 -0.1183240E+02 -0.2568960E-01  0.3982575E+00 -0.1336157E+01 -0.9259168E-01  0.3873445E+00
  0.1082360E+02 -0.1082360E+02 -0.2568960E-01  0.4029104E+00 -0.1308408E+01 -0.1045101E+00  0.3891201E+00
  0.1183240E+02 -0.9710590E+01 -0.2568960E-01  0.4060980E+00 -0.1283379E+01 -0.1151192E+00  0.3894395E+00
  0.1272720E+02 -0.8504060E+01 -0.2568960E-01  0.4090877E+00 -0.1261540E+01 -0.1245060E+00  0.3896806E+00
  0.1349950E+02 -0.7215620E+01 -0.2568960E-01  0.4117621E+00 -0.1242770E+01 -0.1326596E+00  0.3898070E+00
  0.1414170E+02 -0.5857700E+01 -0.2568960E-01  0.4149069E+00 -0.1227494E+01 -0.1396572E+00  0.3906963E+00
  0.1464780E+02 -0.4443350E+01 -0.2568960E-01  0.4174417E+00 -0.1214864E+01 -0.1454636E+00  0.3912773E+00
  0.1501280E+02 -0.2986230E+01 -0.2568960E-01  0.4188465E+00 -0.1204345E+01 -0.1500746E+00  0.3910371E+00
  0.1523320E+02 -0.1500330E+01 -0.2568960E-01  0.4194811E+00 -0.1195931E+01 -0.1535920E+00  0.3903510E+00
  0.1530690E+02  0.0000000E+00 -0.1027320E+00  0.4176227E+00 -0.1189591E+01 -0.1553722E+00  0.3876444E+00
  0.1523320E+02  0.1500340E+01 -0.1027320E+00  0.4161852E+00 -0.1185502E+01 -0.1564157E+00  0.3856737E+00
  0.1501280E+02  0.2986230E+01 -0.1027320E+00  0.4133085E+00 -0.1183598E+01 -0.1560637E+00  0.3827115E+00
  0.1464780E+02  0.4443360E+01 -0.1027320E+00  0.4090178E+00 -0.1184112E+01 -0.1542487E+00  0.3788178E+00
  0.1414170E+02  0.5857700E+01 -0.1027320E+00  0.4031877E+00 -0.1186879E+01 -0.1510161E+00  0.3738375E+00
  0.1349950E+02  0.7215620E+01 -0.1027320E+00  0.3962660E+00 -0.1191950E+01 -0.1465584E+00  0.3681676E+00
  0.1272720E+02  0.8504060E+01 -0.1027320E+00  0.3900992E+00 -0.1199545E+01 -0.1415211E+00  0.3635232E+00
  0.1183240E+02  0.9710600E+01 -0.1027320E+00  0.3835564E+00 -0.1209232E+01 -0.1356784E+00  0.3587574E+00
  0.1082360E+02  0.1082360E+02 -0.1027320E+00  0.3760005E+00 -0.1220816E+01 -0.1289227E+00  0.3532072E+00
  0.9710590E+01  0.1183240E+02 -0.1027320E+00  0.3654003E+00 -0.1234181E+01 -0.1206897E+00  0.3448932E+00
  0.8504060E+01  0.1272720E+02 -0.1027320E+00  0.3547297E+00 -0.1249511E+01 -0.1120188E+00  0.3365783E+00
  0.7215620E+01  0.1349950E+02 -0.1027320E+00  0.3374027E+00 -0.1267275E+01 -0.1008436E+00  0.3219800E+00
  0.5857700E+01  0.1414170E+02 -0.1027320E+00  0.3166772E+00 -0.1287210E+01 -0.8860631E-01  0.3040286E+00
  0.4443360E+01  0.1464780E+02 -0.1027320E+00  0.2877306E+00 -0.1310943E+01 -0.7392909E-01  0.2780709E+00
  0.2986230E+01  0.1501280E+02 -0.1027320E+00  0.2323317E+00 -0.1348909E+01 -0.5112941E-01  0.2266358E+00
  0.1500340E+01  0.1523320E+02 -0.1027320E+00  0.5973694E-01 -0.1802471E+01  0.1371609E-01  0.5814096E-01
 -0.6690860E-06  0.1530690E+02 -0.1027320E+00  0.6947731E-01  0.2546189E+01  0.5752179E-01 -0.3896588E-01
 -0.1500340E+01  0.1523320E+02 -0.1027320E+00  0.1545655E+00  0.2249729E+01  0.9706134E-01 -0.1202895E+00
 -0.2986230E+01  0.1501280E+02 -0.1027320E+00  0.2583672E+00  0.2153492E+01  0.1421736E+00 -0.2157319E+00
 -0.4443360E+01  0.1464780E+02 -0.1027320E+00  0.2838697E+00  0.2142030E+01  0.1534799E+00 -0.2388010E+00
 -0.5857700E+01  0.1414170E+02 -0.1027320E+00  0.2957982E+00  0.2142410E+01  0.1600238E+00 -0.2487749E+00
 -0.7215620E+01  0.1349950E+02 -0.1027320E+00  0.3048195E+00  0.2145026E+01  0.1655745E+00 -0.2559297E+00
 -0.8504060E+01  0.1272720E+02 -0.1027320E+00  0.3124610E+00  0.2148961E+01  0.1707561E+00 -0.2616758E+00
 -0.9710590E+01  0.1183240E+02 -0.1027320E+00  0.3153066E+00  0.2155509E+01  0.1740366E+00 -0.2629250E+00
 -0.1082360E+02  0.1082360E+02 -0.1027320E+00  0.3183804E+00  0.2161329E+01  0.1772754E+00 -0.2644608E+00
 -0.1183240E+02  0.9710590E+01 -0.1027320E+00  0.3197812E+00  0.2166682E+01  0.1794747E+00 -0.2646674E+00
 -0.1272720E+02  0.8504060E+01 -0.1027320E+00  0.3208307E+00  0.2170311E+01  0.1810261E+00 -0.2648809E+00
 -0.1349950E+02  0.7215620E+01 -0.1027320E+00  0.3215298E+00  0.2172741E+01  0.1820651E+00 -0.2650164E+00
 -0.1414170E+02  0.5857690E+01 -0.1027320E+00  0.3226824E+00  0.2172989E+01  0.1827837E+00 -0.2659212E+00
 -0.1464780E+02  0.4443360E+01 -0.1027320E+00  0.3231524E+00  0.2171624E+01  0.1826862E+00 -0.2665582E+00
 -0.1501280E+02  0.2986230E+01 -0.1027320E+00  0.3224062E+00  0.2169015E+01  0.1815700E+00 -0.2664171E+00
 -0.1523320E+02  0.1500340E+01 -0.1027320E+00  0.3206464E+00  0.2164174E+01  0.1792942E+00 -0.2658340E+00
 -0.1530690E+02 -0.1338170E-05 -0.1027320E+00  0.3177333E+00  0.2157572E+01  0.1759222E+00 -0.2645862E+00
 -0.1523320E+02 -0.1500340E+01 -0.1027320E+00  0.3138200E+00  0.2149391E+01  0.1716118E+00 -0.2627402E+00
 -0.1501280E+02 -0.2986230E+01 -0.1027320E+00  0.3086662E+00  0.2140470E+01  0.1664814E+00 -0.2599207E+00
 -0.1464780E+02 -0.4443360E+01 -0.1027320E+00  0.3024102E+00  0.2130942E+01  0.1606734E+00 -0.2561952E+00
 -0.1414170E+02 -0.5857700E+01 -0.1027320E+00  0.2949079E+00  0.2120872E+01  0.1541635E+00 -0.2514046E+00
 -0.1349950E+02 -0.7215620E+01 -0.1027320E+00  0.2865298E+00  0.2109548E+01  0.1470084E+00 -0.2459428E+00
 -0.1272720E+02 -0.8504060E+01 -0.1027320E+00  0.2786998E+00  0.2093466E+01  0.1391255E+00 -0.2414905E+00
 -0.1183240E+02 -0.9710600E+01 -0.1027320E+00  0.2704710E+00  0.2074267E+01  0.1304937E+00 -0.2369092E+00
 -0.1082360E+02 -0.1082360E+02 -0.1027320E+00  0.2612996E+00  0.2052746E+01  0.1211142E+00 -0.2315357E+00
 -0.9710600E+01 -0.1183240E+02 -0.1027320E+00  0.2495184E+00  0.2032218E+01  0.1110909E+00 -0.2234239E+00
 -0.8504050E+01 -0.1272720E+02 -0.1027320E+00  0.2376206E+00  0.2007386E+01  0.1004783E+00 -0.2153315E+00
 -0.7215620E+01 -0.1349950E+02 -0.1027320E+00  0.2199440E+00  0.1988796E+01  0.8928251E-01 -0.2010075E+00
 -0.5857690E+01 -0.1414170E+02 -0.1027320E+00  0.1990749E+00  0.1970348E+01  0.7744115E-01 -0.1833949E+00
 -0.4443360E+01 -0.1464780E+02 -0.1027320E+00  0.1708570E+00  0.1962219E+01  0.6518254E-01 -0.1579347E+00
 -0.2986230E+01 -0.1501280E+02 -0.1027320E+00  0.1196170E+00  0.2027541E+01  0.5275453E-01 -0.1073555E+00
 -0.1500340E+01 -0.1523320E+02 -0.1027320E+00  0.7360396E-01 -0.2203930E+01  0.4354955E-01  0.5933785E-01
  0.1825330E-06 -0.1530690E+02 -0.1027320E+00  0.1593874E+00 -0.1769919E+01  0.3152834E-01  0.1562380E+00
  0.1500340E+01 -0.1523320E+02 -0.1027320E+00  0.2387846E+00 -0.1638676E+01  0.1619628E-01  0.2382347E+00
  0.2986230E+01 -0.1501280E+02 -0.1027320E+00  0.3361127E+00 -0.1545171E+01 -0.8611909E-02  0.3360023E+00
  0.4443360E+01 -0.1464780E+02 -0.1027320E+00  0.3614275E+00 -0.1487300E+01 -0.3014293E-01  0.3601684E+00
  0.5857700E+01 -0.1414170E+02 -0.1027320E+00  0.3739649E+00 -0.1441182E+01 -0.4833548E-01  0.3708280E+00
  0.7215620E+01 -0.1349950E+02 -0.1027320E+00  0.3839322E+00 -0.1401904E+01 -0.6453518E-01  0.3784694E+00
  0.8504060E+01 -0.1272720E+02 -0.1027320E+00  0.3926477E+00 -0.1367898E+01 -0.7912194E-01  0.3845932E+00
  0.9710600E+01 -0.1183240E+02 -0.1027320E+00  0.3969912E+00 -0.1336210E+01 -0.9227674E-01  0.3861179E+00
  0.1082360E+02 -0.1082360E+02 -0.1027320E+00  0.4016044E+00 -0.1308444E+01 -0.1041574E+00  0.3878626E+00
  0.1183240E+02 -0.9710590E+01 -0.1027320E+00  0.4047843E+00 -0.1283422E+01 -0.1147301E+00  0.3881846E+00
  0.1272720E+02 -0.8504060E+01 -0.1027320E+00  0.4077808E+00 -0.1261592E+01 -0.1240880E+00  0.3884422E+00
