 VARIABLES="X" "Y" "Z" "abs(eta) (m)" "angle(phi) (rad)" "PRE1" "PRE2"
ZONE N=   3200 ,E =    3136 ,F=FEPOINT,ET=QUADRILATERAL
  0.1530690E+02  0.0000000E+00  0.0000000E+00  0.1565008E+00 -0.1070404E+01 -0.7508437E-01  0.1373129E+00
  0.1523320E+02  0.1500340E+01  0.0000000E+00  0.1600269E+00 -0.1075872E+01 -0.7600713E-01  0.1408245E+00
  0.1501280E+02  0.2986230E+01  0.0000000E+00  0.1633149E+00 -0.1085146E+01 -0.7623272E-01  0.1444310E+00
  0.1464780E+02  0.4443360E+01  0.0000000E+00  0.1664089E+00 -0.1098052E+01 -0.7577122E-01  0.1481575E+00
  0.1414170E+02  0.5857700E+01  0.0000000E+00  0.1692287E+00 -0.1115048E+01 -0.7448336E-01  0.1519559E+00
  0.1349950E+02  0.7215620E+01  0.0000000E+00  0.1713829E+00 -0.1136702E+01 -0.7208179E-01  0.1554873E+00
  0.1272720E+02  0.8504060E+01  0.0000000E+00  0.1733127E+00 -0.1164193E+01 -0.6854378E-01  0.1591824E+00
  0.1183240E+02  0.9710600E+01  0.0000000E+00  0.1752590E+00 -0.1197557E+01 -0.6390531E-01  0.1631926E+00
  0.1082360E+02  0.1082360E+02  0.0000000E+00  0.1772188E+00 -0.1233632E+01 -0.5862619E-01  0.1672408E+00
  0.9710590E+01  0.1183240E+02  0.0000000E+00  0.1791262E+00 -0.1274894E+01 -0.5223370E-01  0.1713413E+00
  0.8504060E+01  0.1272720E+02  0.0000000E+00  0.1812772E+00 -0.1325848E+01 -0.4396093E-01  0.1758660E+00
  0.7215620E+01  0.1349950E+02  0.0000000E+00  0.1847102E+00 -0.1384455E+01 -0.3422038E-01  0.1815126E+00
  0.5857700E+01  0.1414170E+02  0.0000000E+00  0.1885583E+00 -0.1453534E+01 -0.2206009E-01  0.1872634E+00
  0.4443360E+01  0.1464780E+02  0.0000000E+00  0.1945413E+00 -0.1538078E+01 -0.6363953E-02  0.1944372E+00
  0.2986230E+01  0.1501280E+02  0.0000000E+00  0.2087155E+00 -0.1666042E+01  0.1984915E-01  0.2077696E+00
  0.1500340E+01  0.1523320E+02  0.0000000E+00  0.2418187E+00 -0.1877071E+01  0.7291043E-01  0.2305653E+00
 -0.6690860E-06  0.1530690E+02  0.0000000E+00  0.2399755E+00 -0.1944641E+01  0.8763833E-01  0.2234004E+00
 -0.1500340E+01  0.1523320E+02  0.0000000E+00  0.2090307E+00 -0.1965780E+01  0.8043360E-01  0.1929359E+00
 -0.2986230E+01  0.1501280E+02  0.0000000E+00  0.1187135E+00 -0.1881171E+01  0.3625699E-01  0.1130413E+00
 -0.4443360E+01  0.1464780E+02  0.0000000E+00  0.8560093E-01 -0.1831312E+01  0.2204901E-01  0.8271252E-01
 -0.5857700E+01  0.1414170E+02  0.0000000E+00  0.6876357E-01 -0.1827729E+01  0.1747388E-01  0.6650633E-01
 -0.7215620E+01  0.1349950E+02  0.0000000E+00  0.5672742E-01 -0.1848490E+01  0.1555117E-01  0.5455420E-01
 -0.8504060E+01  0.1272720E+02  0.0000000E+00  0.4868772E-01 -0.1893805E+01  0.1545449E-01  0.4616982E-01
 -0.9710590E+01  0.1183240E+02  0.0000000E+00  0.4140892E-01 -0.1969509E+01  0.1607630E-01  0.3816086E-01
 -0.1082360E+02  0.1082360E+02  0.0000000E+00  0.3681922E-01 -0.2077941E+01  0.1788249E-01  0.3218496E-01
 -0.1183240E+02  0.9710590E+01  0.0000000E+00  0.3372355E-01 -0.2211183E+01  0.2015000E-01  0.2704173E-01
 -0.1272720E+02  0.8504060E+01  0.0000000E+00  0.3114534E-01 -0.2371558E+01  0.2235883E-01  0.2168213E-01
 -0.1349950E+02  0.7215620E+01  0.0000000E+00  0.3019185E-01 -0.2551099E+01  0.2507935E-01  0.1680995E-01
 -0.1414170E+02  0.5857690E+01  0.0000000E+00  0.3118112E-01 -0.2712960E+01  0.2836032E-01  0.1295972E-01
 -0.1464780E+02  0.4443360E+01  0.0000000E+00  0.3352325E-01 -0.2831919E+01  0.3192865E-01  0.1021613E-01
 -0.1501280E+02  0.2986230E+01  0.0000000E+00  0.3636350E-01 -0.2929358E+01  0.3554760E-01  0.7659796E-02
 -0.1523320E+02  0.1500340E+01  0.0000000E+00  0.3941183E-01 -0.3018992E+01  0.3911600E-01  0.4819830E-02
 -0.1530690E+02 -0.1338170E-05  0.0000000E+00  0.4270923E-01 -0.3104806E+01  0.4268033E-01  0.1570786E-02
 -0.1523320E+02 -0.1500340E+01  0.0000000E+00  0.4663152E-01  0.3103233E+01  0.4659721E-01 -0.1788343E-02
 -0.1501280E+02 -0.2986230E+01  0.0000000E+00  0.5092644E-01  0.3039083E+01  0.5065910E-01 -0.5211331E-02
 -0.1464780E+02 -0.4443360E+01  0.0000000E+00  0.5548110E-01  0.2984028E+01  0.5479382E-01 -0.8705750E-02
 -0.1414170E+02 -0.5857700E+01  0.0000000E+00  0.6018453E-01  0.2937102E+01  0.5893055E-01 -0.1222160E-01
 -0.1349950E+02 -0.7215620E+01  0.0000000E+00  0.6479155E-01  0.2900669E+01  0.6292024E-01 -0.1545927E-01
 -0.1272720E+02 -0.8504060E+01  0.0000000E+00  0.6951842E-01  0.2866878E+01  0.6691166E-01 -0.1885844E-01
 -0.1183240E+02 -0.9710600E+01  0.0000000E+00  0.7469157E-01  0.2833386E+01  0.7117203E-01 -0.2265773E-01
 -0.1082360E+02 -0.1082360E+02  0.0000000E+00  0.7991535E-01  0.2803046E+01  0.7537922E-01 -0.2654123E-01
 -0.9710600E+01 -0.1183240E+02  0.0000000E+00  0.8534790E-01  0.2775333E+01  0.7968707E-01 -0.3056527E-01
 -0.8504050E+01 -0.1272720E+02  0.0000000E+00  0.9165805E-01  0.2747792E+01  0.8464232E-01 -0.3516924E-01
 -0.7215620E+01 -0.1349950E+02  0.0000000E+00  0.9948356E-01  0.2716091E+01  0.9061280E-01 -0.4106458E-01
 -0.5857690E+01 -0.1414170E+02  0.0000000E+00  0.1081387E+00  0.2689005E+01  0.9725114E-01 -0.4728841E-01
 -0.4443360E+01 -0.1464780E+02  0.0000000E+00  0.1195760E+00  0.2661377E+01  0.1060514E+00 -0.5524053E-01
 -0.2986230E+01 -0.1501280E+02  0.0000000E+00  0.1414713E+00  0.2623225E+01  0.1228861E+00 -0.7009383E-01
 -0.1500340E+01 -0.1523320E+02  0.0000000E+00  0.1817933E+00  0.2584578E+01  0.1543129E+00 -0.9610587E-01
  0.1825330E-06 -0.1530690E+02  0.0000000E+00  0.1748730E+00  0.2602165E+01  0.1500415E+00 -0.8982269E-01
  0.1500340E+01 -0.1523320E+02  0.0000000E+00  0.1350489E+00  0.2689930E+01  0.1215066E+00 -0.5894374E-01
  0.2986230E+01 -0.1501280E+02  0.0000000E+00  0.5183852E-01 -0.2668073E+01  0.4613466E-01  0.2363949E-01
  0.4443360E+01 -0.1464780E+02  0.0000000E+00  0.5772082E-01 -0.1864954E+01  0.1673519E-01  0.5524153E-01
  0.5857700E+01 -0.1414170E+02  0.0000000E+00  0.7203884E-01 -0.1572136E+01  0.9649050E-04  0.7203878E-01
  0.7215620E+01 -0.1349950E+02  0.0000000E+00  0.8531173E-01 -0.1418126E+01 -0.1297403E-01  0.8431943E-01
  0.8504060E+01 -0.1272720E+02  0.0000000E+00  0.9567203E-01 -0.1327663E+01 -0.2303256E-01  0.9285817E-01
  0.9710600E+01 -0.1183240E+02  0.0000000E+00  0.1060465E+00 -0.1258196E+01 -0.3261287E-01  0.1009072E+00
  0.1082360E+02 -0.1082360E+02  0.0000000E+00  0.1141929E+00 -0.1209889E+01 -0.4032413E-01  0.1068362E+00
  0.1183240E+02 -0.9710590E+01  0.0000000E+00  0.1214157E+00 -0.1172131E+01 -0.4713220E-01  0.1118943E+00
  0.1272720E+02 -0.8504060E+01  0.0000000E+00  0.1289663E+00 -0.1139932E+01 -0.5386359E-01  0.1171794E+00
  0.1349950E+02 -0.7215620E+01  0.0000000E+00  0.1357617E+00 -0.1115492E+01 -0.5969928E-01  0.1219312E+00
  0.1414170E+02 -0.5857700E+01  0.0000000E+00  0.1411849E+00 -0.1097595E+01 -0.6434333E-01  0.1256707E+00
  0.1464780E+02 -0.4443350E+01  0.0000000E+00  0.1451718E+00 -0.1084493E+01 -0.6784765E-01  0.1283416E+00
  0.1501280E+02 -0.2986230E+01  0.0000000E+00  0.1488100E+00 -0.1075377E+01 -0.7074440E-01  0.1309185E+00
  0.1523320E+02 -0.1500330E+01  0.0000000E+00  0.1525726E+00 -0.1070534E+01 -0.7318234E-01  0.1338758E+00
  0.1530690E+02  0.0000000E+00 -0.2568960E-01  0.1562911E+00 -0.1070419E+01 -0.7498173E-01  0.1371300E+00
  0.1523320E+02  0.1500340E+01 -0.2568960E-01  0.1598112E+00 -0.1075882E+01 -0.7590327E-01  0.1406354E+00
  0.1501280E+02  0.2986230E+01 -0.2568960E-01  0.1630927E+00 -0.1085153E+01 -0.7612794E-01  0.1442351E+00
  0.1464780E+02  0.4443360E+01 -0.2568960E-01  0.1661800E+00 -0.1098060E+01 -0.7566573E-01  0.1479543E+00
  0.1414170E+02  0.5857700E+01 -0.2568960E-01  0.1689941E+00 -0.1115059E+01 -0.7437842E-01  0.1517460E+00
  0.1349950E+02  0.7215620E+01 -0.2568960E-01  0.1711473E+00 -0.1136716E+01 -0.7198039E-01  0.1552746E+00
  0.1272720E+02  0.8504060E+01 -0.2568960E-01  0.1730768E+00 -0.1164207E+01 -0.6844822E-01  0.1589667E+00
  0.1183240E+02  0.9710600E+01 -0.2568960E-01  0.1750216E+00 -0.1197563E+01 -0.6381781E-01  0.1629719E+00
  0.1082360E+02  0.1082360E+02 -0.2568960E-01  0.1769788E+00 -0.1233654E+01 -0.5854317E-01  0.1670156E+00
  0.9710590E+01  0.1183240E+02 -0.2568960E-01  0.1788856E+00 -0.1274929E+01 -0.5215759E-01  0.1711129E+00
  0.8504060E+01  0.1272720E+02 -0.2568960E-01  0.1810378E+00 -0.1325871E+01 -0.4389879E-01  0.1756348E+00
  0.7215620E+01  0.1349950E+02 -0.2568960E-01  0.1844626E+00 -0.1384484E+01 -0.3416915E-01  0.1812703E+00
  0.5857700E+01  0.1414170E+02 -0.2568960E-01  0.1883108E+00 -0.1453576E+01 -0.2202325E-01  0.1870186E+00
  0.4443360E+01  0.1464780E+02 -0.2568960E-01  0.1942969E+00 -0.1538167E+01 -0.6338552E-02  0.1941935E+00
  0.2986230E+01  0.1501280E+02 -0.2568960E-01  0.2084567E+00 -0.1666127E+01  0.1984227E-01  0.2075102E+00
  0.1500340E+01  0.1523320E+02 -0.2568960E-01  0.2415152E+00 -0.1877111E+01  0.7282811E-01  0.2302730E+00
 -0.6690860E-06  0.1530690E+02 -0.2568960E-01  0.2396463E+00 -0.1944645E+01  0.8751896E-01  0.2230936E+00
 -0.1500340E+01  0.1523320E+02 -0.2568960E-01  0.2087613E+00 -0.1965841E+01  0.8034175E-01  0.1926824E+00
 -0.2986230E+01  0.1501280E+02 -0.2568960E-01  0.1185696E+00 -0.1881297E+01  0.3622716E-01  0.1128997E+00
 -0.4443360E+01  0.1464780E+02 -0.2568960E-01  0.8549653E-01 -0.1831479E+01  0.2203588E-01  0.8260797E-01
 -0.5857700E+01  0.1414170E+02 -0.2568960E-01  0.6866865E-01 -0.1827833E+01  0.1745664E-01  0.6641272E-01
 -0.7215620E+01  0.1349950E+02 -0.2568960E-01  0.5664985E-01 -0.1848592E+01  0.1553545E-01  0.5447802E-01
 -0.8504060E+01  0.1272720E+02 -0.2568960E-01  0.4861312E-01 -0.1893929E+01  0.1543655E-01  0.4609716E-01
 -0.9710590E+01  0.1183240E+02 -0.2568960E-01  0.4135356E-01 -0.1969655E+01  0.1606037E-01  0.3810750E-01
 -0.1082360E+02  0.1082360E+02 -0.2568960E-01  0.3676692E-01 -0.2078072E+01  0.1786128E-01  0.3213691E-01
 -0.1183240E+02  0.9710590E+01 -0.2568960E-01  0.3367233E-01 -0.2211351E+01  0.2012395E-01  0.2699726E-01
 -0.1272720E+02  0.8504060E+01 -0.2568960E-01  0.3110276E-01 -0.2371701E+01  0.2233134E-01  0.2164932E-01
 -0.1349950E+02  0.7215620E+01 -0.2568960E-01  0.3015551E-01 -0.2551113E+01  0.2504938E-01  0.1678938E-01
 -0.1414170E+02  0.5857690E+01 -0.2568960E-01  0.3114319E-01 -0.2712902E+01  0.2832507E-01  0.1294562E-01
 -0.1464780E+02  0.4443360E+01 -0.2568960E-01  0.3347970E-01 -0.2831971E+01  0.3188770E-01  0.1020121E-01
 -0.1501280E+02  0.2986230E+01 -0.2568960E-01  0.3631467E-01 -0.2929512E+01  0.3550104E-01  0.7644048E-02
 -0.1523320E+02  0.1500340E+01 -0.2568960E-01  0.3935983E-01 -0.3019181E+01  0.3906531E-01  0.4806059E-02
 -0.1530690E+02 -0.1338170E-05 -0.2568960E-01  0.4265457E-01 -0.3104962E+01  0.4262595E-01  0.1562097E-02
 -0.1523320E+02 -0.1500340E+01 -0.2568960E-01  0.4657149E-01  0.3103127E+01  0.4653703E-01 -0.1790972E-02
 -0.1501280E+02 -0.2986230E+01 -0.2568960E-01  0.5086042E-01  0.3039031E+01  0.5059316E-01 -0.5207208E-02
 -0.1464780E+02 -0.4443360E+01 -0.2568960E-01  0.5540757E-01  0.2984015E+01  0.5472108E-01 -0.8694938E-02
 -0.1414170E+02 -0.5857700E+01 -0.2568960E-01  0.6010449E-01  0.2937119E+01  0.5885240E-01 -0.1220432E-01
 -0.1349950E+02 -0.7215620E+01 -0.2568960E-01  0.6470580E-01  0.2900654E+01  0.6283674E-01 -0.1543971E-01
 -0.1272720E+02 -0.8504060E+01 -0.2568960E-01  0.6942816E-01  0.2866838E+01  0.6682403E-01 -0.1883660E-01
 -0.1183240E+02 -0.9710600E+01 -0.2568960E-01  0.7459474E-01  0.2833351E+01  0.7107896E-01 -0.2263085E-01
 -0.1082360E+02 -0.1082360E+02 -0.2568960E-01  0.7981306E-01  0.2803010E+01  0.7528178E-01 -0.2650997E-01
 -0.9710600E+01 -0.1183240E+02 -0.2568960E-01  0.8524127E-01  0.2775285E+01  0.7958602E-01 -0.3053094E-01
 -0.8504050E+01 -0.1272720E+02 -0.2568960E-01  0.9154507E-01  0.2747722E+01  0.8453552E-01 -0.3513183E-01
 -0.7215620E+01 -0.1349950E+02 -0.2568960E-01  0.9935727E-01  0.2716048E+01  0.9049601E-01 -0.4101632E-01
 -0.5857690E+01 -0.1414170E+02 -0.2568960E-01  0.1080074E+00  0.2688940E+01  0.9712995E-01 -0.4723732E-01
 -0.4443360E+01 -0.1464780E+02 -0.2568960E-01  0.1194449E+00  0.2661284E+01  0.1059300E+00 -0.5518986E-01
 -0.2986230E+01 -0.1501280E+02 -0.2568960E-01  0.1413140E+00  0.2623146E+01  0.1227439E+00 -0.7002550E-01
 -0.1500340E+01 -0.1523320E+02 -0.2568960E-01  0.1815777E+00  0.2584523E+01  0.1541247E+00 -0.9600027E-01
  0.1825330E-06 -0.1530690E+02 -0.2568960E-01  0.1746354E+00  0.2602167E+01  0.1498378E+00 -0.8970030E-01
  0.1500340E+01 -0.1523320E+02 -0.2568960E-01  0.1348847E+00  0.2689894E+01  0.1213567E+00 -0.5887639E-01
  0.2986230E+01 -0.1501280E+02 -0.2568960E-01  0.5177626E-01 -0.2668503E+01  0.4608941E-01  0.2359127E-01
  0.4443360E+01 -0.1464780E+02 -0.2568960E-01  0.5763492E-01 -0.1865234E+01  0.1672578E-01  0.5515462E-01
  0.5857700E+01 -0.1414170E+02 -0.2568960E-01  0.7194085E-01 -0.1572169E+01  0.9877727E-04  0.7194078E-01
  0.7215620E+01 -0.1349950E+02 -0.2568960E-01  0.8519414E-01 -0.1418167E+01 -0.1295267E-01  0.8420374E-01
  0.8504060E+01 -0.1272720E+02 -0.2568960E-01  0.9554934E-01 -0.1327649E+01 -0.2300429E-01  0.9273876E-01
  0.9710600E+01 -0.1183240E+02 -0.2568960E-01  0.1058996E+00 -0.1258230E+01 -0.3256424E-01  0.1007685E+00
  0.1082360E+02 -0.1082360E+02 -0.2568960E-01  0.1140384E+00 -0.1209906E+01 -0.4026780E-01  0.1066924E+00
  0.1183240E+02 -0.9710590E+01 -0.2568960E-01  0.1212559E+00 -0.1172134E+01 -0.4706987E-01  0.1117471E+00
  0.1272720E+02 -0.8504060E+01 -0.2568960E-01  0.1287901E+00 -0.1139952E+01 -0.5378763E-01  0.1170204E+00
  0.1349950E+02 -0.7215620E+01 -0.2568960E-01  0.1355698E+00 -0.1115517E+01 -0.5961190E-01  0.1217604E+00
  0.1414170E+02 -0.5857700E+01 -0.2568960E-01  0.1409847E+00 -0.1097614E+01 -0.6424966E-01  0.1254936E+00
  0.1464780E+02 -0.4443350E+01 -0.2568960E-01  0.1449717E+00 -0.1084503E+01 -0.6775290E-01  0.1281653E+00
  0.1501280E+02 -0.2986230E+01 -0.2568960E-01  0.1486098E+00 -0.1075388E+01 -0.7064773E-01  0.1307432E+00
  0.1523320E+02 -0.1500330E+01 -0.2568960E-01  0.1523694E+00 -0.1070548E+01 -0.7308300E-01  0.1336985E+00
  0.1530690E+02  0.0000000E+00 -0.1027320E+00  0.1556751E+00 -0.1070444E+01 -0.7468271E-01  0.1365914E+00
  0.1523320E+02  0.1500340E+01 -0.1027320E+00  0.1591772E+00 -0.1075893E+01 -0.7560069E-01  0.1400782E+00
  0.1501280E+02  0.2986230E+01 -0.1027320E+00  0.1624394E+00 -0.1085155E+01 -0.7582274E-01  0.1436575E+00
  0.1464780E+02  0.4443360E+01 -0.1027320E+00  0.1655062E+00 -0.1098070E+01 -0.7535755E-01  0.1473551E+00
  0.1414170E+02  0.5857700E+01 -0.1027320E+00  0.1683022E+00 -0.1115079E+01 -0.7407084E-01  0.1511262E+00
  0.1349950E+02  0.7215620E+01 -0.1027320E+00  0.1704517E+00 -0.1136757E+01 -0.7168165E-01  0.1546464E+00
  0.1272720E+02  0.8504060E+01 -0.1027320E+00  0.1723805E+00 -0.1164246E+01 -0.6816673E-01  0.1583298E+00
  0.1183240E+02  0.9710600E+01 -0.1027320E+00  0.1743197E+00 -0.1197577E+01 -0.6355959E-01  0.1623192E+00
  0.1082360E+02  0.1082360E+02 -0.1027320E+00  0.1762692E+00 -0.1233699E+01 -0.5830090E-01  0.1663485E+00
  0.9710590E+01  0.1183240E+02 -0.1027320E+00  0.1781718E+00 -0.1275025E+01 -0.5193316E-01  0.1704351E+00
  0.8504060E+01  0.1272720E+02 -0.1027320E+00  0.1803261E+00 -0.1325934E+01 -0.4371514E-01  0.1749471E+00
  0.7215620E+01  0.1349950E+02 -0.1027320E+00  0.1837241E+00 -0.1384571E+01 -0.3401661E-01  0.1805475E+00
  0.5857700E+01  0.1414170E+02 -0.1027320E+00  0.1875760E+00 -0.1453697E+01 -0.2191480E-01  0.1862914E+00
  0.4443360E+01  0.1464780E+02 -0.1027320E+00  0.1935647E+00 -0.1538412E+01 -0.6267446E-02  0.1934632E+00
  0.2986230E+01  0.1501280E+02 -0.1027320E+00  0.2076662E+00 -0.1666320E+01  0.1980683E-01  0.2067194E+00
  0.1500340E+01  0.1523320E+02 -0.1027320E+00  0.2405266E+00 -0.1877017E+01  0.7250842E-01  0.2293372E+00
 -0.6690860E-06  0.1530690E+02 -0.1027320E+00  0.2386867E+00 -0.1944685E+01  0.8717758E-01  0.2221968E+00
 -0.1500340E+01  0.1523320E+02 -0.1027320E+00  0.2078519E+00 -0.1965853E+01  0.7999405E-01  0.1918421E+00
 -0.2986230E+01  0.1501280E+02 -0.1027320E+00  0.1181324E+00 -0.1881589E+01  0.3612651E-01  0.1124728E+00
 -0.4443360E+01  0.1464780E+02 -0.1027320E+00  0.8518322E-01 -0.1831917E+01  0.2199119E-01  0.8229561E-01
 -0.5857700E+01  0.1414170E+02 -0.1027320E+00  0.6838682E-01 -0.1828118E+01  0.1740387E-01  0.6613518E-01
 -0.7215620E+01  0.1349950E+02 -0.1027320E+00  0.5642915E-01 -0.1848869E+01  0.1548997E-01  0.5426149E-01
 -0.8504060E+01  0.1272720E+02 -0.1027320E+00  0.4839037E-01 -0.1894254E+01  0.1538074E-01  0.4588094E-01
 -0.9710590E+01  0.1183240E+02 -0.1027320E+00  0.4118730E-01 -0.1970034E+01  0.1601017E-01  0.3794823E-01
 -0.1082360E+02  0.1082360E+02 -0.1027320E+00  0.3660884E-01 -0.2078458E+01  0.1779683E-01  0.3199188E-01
 -0.1183240E+02  0.9710590E+01 -0.1027320E+00  0.3351609E-01 -0.2211848E+01  0.2004391E-01  0.2686206E-01
 -0.1272720E+02  0.8504060E+01 -0.1027320E+00  0.3097298E-01 -0.2372169E+01  0.2224824E-01  0.2154857E-01
 -0.1349950E+02  0.7215620E+01 -0.1027320E+00  0.3004264E-01 -0.2551241E+01  0.2495777E-01  0.1672333E-01
 -0.1414170E+02  0.5857690E+01 -0.1027320E+00  0.3102612E-01 -0.2712854E+01  0.2821797E-01  0.1289831E-01
 -0.1464780E+02  0.4443360E+01 -0.1027320E+00  0.3334515E-01 -0.2832281E+01  0.3176269E-01  0.1015037E-01
 -0.1501280E+02  0.2986230E+01 -0.1027320E+00  0.3616579E-01 -0.2930171E+01  0.3536051E-01  0.7589407E-02
 -0.1523320E+02  0.1500340E+01 -0.1027320E+00  0.3920151E-01 -0.3019957E+01  0.3891187E-01  0.4756547E-02
 -0.1530690E+02 -0.1338170E-05 -0.1027320E+00  0.4248817E-01 -0.3105617E+01  0.4246067E-01  0.1528223E-02
 -0.1523320E+02 -0.1500340E+01 -0.1027320E+00  0.4639030E-01  0.3102635E+01  0.4635510E-01 -0.1806790E-02
 -0.1501280E+02 -0.2986230E+01 -0.1027320E+00  0.5066080E-01  0.3038698E+01  0.5039285E-01 -0.5203526E-02
 -0.1464780E+02 -0.4443360E+01 -0.1027320E+00  0.5518736E-01  0.2983825E+01  0.5450196E-01 -0.8670719E-02
 -0.1414170E+02 -0.5857700E+01 -0.1027320E+00  0.5986288E-01  0.2937021E+01  0.5861462E-01 -0.1216103E-01
 -0.1349950E+02 -0.7215620E+01 -0.1027320E+00  0.6445105E-01  0.2900489E+01  0.6258680E-01 -0.1538930E-01
 -0.1272720E+02 -0.8504060E+01 -0.1027320E+00  0.6915961E-01  0.2866616E+01  0.6656139E-01 -0.1877852E-01
 -0.1183240E+02 -0.9710600E+01 -0.1027320E+00  0.7430516E-01  0.2833141E+01  0.7079832E-01 -0.2255784E-01
 -0.1082360E+02 -0.1082360E+02 -0.1027320E+00  0.7950764E-01  0.2802814E+01  0.7498853E-01 -0.2642321E-01
 -0.9710600E+01 -0.1183240E+02 -0.1027320E+00  0.8492320E-01  0.2775069E+01  0.7928249E-01 -0.3043413E-01
 -0.8504050E+01 -0.1272720E+02 -0.1027320E+00  0.9120816E-01  0.2747456E+01  0.8421509E-01 -0.3502495E-01
 -0.7215620E+01 -0.1349950E+02 -0.1027320E+00  0.9897909E-01  0.2715902E+01  0.9014556E-01 -0.4087344E-01
 -0.5857690E+01 -0.1414170E+02 -0.1027320E+00  0.1076170E+00  0.2688713E+01  0.9676824E-01 -0.4708854E-01
 -0.4443360E+01 -0.1464780E+02 -0.1027320E+00  0.1190453E+00  0.2660988E+01  0.1055594E+00 -0.5503647E-01
 -0.2986230E+01 -0.1501280E+02 -0.1027320E+00  0.1408201E+00  0.2622940E+01  0.1223005E+00 -0.6980596E-01
 -0.1500340E+01 -0.1523320E+02 -0.1027320E+00  0.1808378E+00  0.2584466E+01  0.1534911E+00 -0.9561783E-01
  0.1825330E-06 -0.1530690E+02 -0.1027320E+00  0.1739485E+00  0.2602110E+01  0.1492433E+00 -0.8935600E-01
  0.1500340E+01 -0.1523320E+02 -0.1027320E+00  0.1342765E+00  0.2690084E+01  0.1208206E+00 -0.5858808E-01
  0.2986230E+01 -0.1501280E+02 -0.1027320E+00  0.5158386E-01 -0.2669643E+01  0.4594490E-01  0.2345125E-01
  0.4443360E+01 -0.1464780E+02 -0.1027320E+00  0.5737747E-01 -0.1866022E+01  0.1669433E-01  0.5489511E-01
  0.5857700E+01 -0.1414170E+02 -0.1027320E+00  0.7164562E-01 -0.1572258E+01  0.1046922E-03  0.7164555E-01
  0.7215620E+01 -0.1349950E+02 -0.1027320E+00  0.8483088E-01 -0.1418328E+01 -0.1288394E-01  0.8384678E-01
  0.8504060E+01 -0.1272720E+02 -0.1027320E+00  0.9518240E-01 -0.1327590E+01 -0.2292140E-01  0.9238127E-01
  0.9710600E+01 -0.1183240E+02 -0.1027320E+00  0.1054614E+00 -0.1258297E+01 -0.3242279E-01  0.1003537E+00
  0.1082360E+02 -0.1082360E+02 -0.1027320E+00  0.1135796E+00 -0.1209924E+01 -0.4010393E-01  0.1062638E+00
  0.1183240E+02 -0.9710590E+01 -0.1027320E+00  0.1207820E+00 -0.1172112E+01 -0.4688829E-01  0.1113093E+00
  0.1272720E+02 -0.8504060E+01 -0.1027320E+00  0.1282695E+00 -0.1139973E+01 -0.5356779E-01  0.1165485E+00
