 VARIABLES="X" "Y" "Z" "abs(eta) (m)" "angle(phi) (rad)" "PRE1" "PRE2"
ZONE N=   3200 ,E =    3136 ,F=FEPOINT,ET=QUADRILATERAL
  0.1672760E+02  0.0000000E+00  0.0000000E+00  0.4367866E+00 -0.1146341E+01 -0.1798793E+00  0.3980276E+00
  0.1664710E+02  0.1639590E+01  0.0000000E+00  0.4362341E+00 -0.1143994E+01 -0.1805845E+00  0.3971012E+00
  0.1640620E+02  0.3263390E+01  0.0000000E+00  0.4351488E+00 -0.1144618E+01 -0.1798880E+00  0.3962257E+00
  0.1600730E+02  0.4855770E+01  0.0000000E+00  0.4317038E+00 -0.1147062E+01 -0.1775024E+00  0.3935239E+00
  0.1545430E+02  0.6401380E+01  0.0000000E+00  0.4254479E+00 -0.1151233E+01 -0.1733112E+00  0.3885475E+00
  0.1475240E+02  0.7885340E+01  0.0000000E+00  0.4165624E+00 -0.1157303E+01 -0.1673793E+00  0.3814557E+00
  0.1390850E+02  0.9293360E+01  0.0000000E+00  0.4070656E+00 -0.1166056E+01 -0.1602943E+00  0.3741766E+00
  0.1293060E+02  0.1061190E+02  0.0000000E+00  0.3977945E+00 -0.1177758E+01 -0.1523539E+00  0.3674625E+00
  0.1182820E+02  0.1182820E+02  0.0000000E+00  0.3871111E+00 -0.1191843E+01 -0.1432111E+00  0.3596464E+00
  0.1061190E+02  0.1293060E+02  0.0000000E+00  0.3733653E+00 -0.1207649E+01 -0.1326263E+00  0.3490156E+00
  0.9293360E+01  0.1390850E+02  0.0000000E+00  0.3576537E+00 -0.1226077E+01 -0.1208628E+00  0.3366130E+00
  0.7885330E+01  0.1475240E+02  0.0000000E+00  0.3370464E+00 -0.1247136E+01 -0.1071939E+00  0.3195462E+00
  0.6401380E+01  0.1545430E+02  0.0000000E+00  0.3060789E+00 -0.1271829E+01 -0.9015055E-01  0.2925015E+00
  0.4855770E+01  0.1600730E+02  0.0000000E+00  0.2638842E+00 -0.1302405E+01 -0.6997692E-01  0.2544368E+00
  0.3263390E+01  0.1640620E+02  0.0000000E+00  0.1937439E+00 -0.1354489E+01 -0.4158222E-01  0.1892290E+00
  0.1639590E+01  0.1664710E+02  0.0000000E+00  0.9383222E-01 -0.1535778E+01 -0.3285151E-02  0.9377470E-01
 -0.7311870E-06  0.1672760E+02  0.0000000E+00  0.3620136E-01 -0.3110110E+01  0.3618342E-01  0.1139546E-02
 -0.1639590E+01  0.1664710E+02  0.0000000E+00  0.1110485E+00  0.2305475E+01  0.7444119E-01 -0.8240315E-01
 -0.3263390E+01  0.1640620E+02  0.0000000E+00  0.1892649E+00  0.2185264E+01  0.1091156E+00 -0.1546447E+00
 -0.4855770E+01  0.1600730E+02  0.0000000E+00  0.2398386E+00  0.2157196E+01  0.1327185E+00 -0.1997707E+00
 -0.6401380E+01  0.1545430E+02  0.0000000E+00  0.2689172E+00  0.2154198E+01  0.1481373E+00 -0.2244366E+00
 -0.7885340E+01  0.1475240E+02  0.0000000E+00  0.2907444E+00  0.2156055E+01  0.1606115E+00 -0.2423556E+00
 -0.9293360E+01  0.1390850E+02  0.0000000E+00  0.3039390E+00  0.2163909E+01  0.1698852E+00 -0.2520277E+00
 -0.1061190E+02  0.1293060E+02  0.0000000E+00  0.3134745E+00  0.2172981E+01  0.1775657E+00 -0.2583344E+00
 -0.1182820E+02  0.1182820E+02  0.0000000E+00  0.3215503E+00  0.2180889E+01  0.1842301E+00 -0.2635410E+00
 -0.1293060E+02  0.1061190E+02  0.0000000E+00  0.3276190E+00  0.2187574E+01  0.1894979E+00 -0.2672541E+00
 -0.1390850E+02  0.9293360E+01  0.0000000E+00  0.3325563E+00  0.2193038E+01  0.1938331E+00 -0.2702266E+00
 -0.1475240E+02  0.7885330E+01  0.0000000E+00  0.3374972E+00  0.2196279E+01  0.1976009E+00 -0.2736023E+00
 -0.1545430E+02  0.6401370E+01  0.0000000E+00  0.3419491E+00  0.2197360E+01  0.2005068E+00 -0.2769950E+00
 -0.1600730E+02  0.4855770E+01  0.0000000E+00  0.3441759E+00  0.2197805E+01  0.2019367E+00 -0.2787089E+00
 -0.1640620E+02  0.3263390E+01  0.0000000E+00  0.3438640E+00  0.2198072E+01  0.2018280E+00 -0.2784024E+00
 -0.1664710E+02  0.1639590E+01  0.0000000E+00  0.3413599E+00  0.2197838E+01  0.2002936E+00 -0.2764218E+00
 -0.1672760E+02 -0.1462370E-05  0.0000000E+00  0.3384190E+00  0.2194412E+01  0.1976281E+00 -0.2747191E+00
 -0.1664710E+02 -0.1639590E+01  0.0000000E+00  0.3356774E+00  0.2187032E+01  0.1940105E+00 -0.2739329E+00
 -0.1640620E+02 -0.3263400E+01  0.0000000E+00  0.3324302E+00  0.2176969E+01  0.1893941E+00 -0.2732027E+00
 -0.1600730E+02 -0.4855770E+01  0.0000000E+00  0.3270421E+00  0.2166777E+01  0.1835756E+00 -0.2706594E+00
 -0.1545430E+02 -0.6401380E+01  0.0000000E+00  0.3191914E+00  0.2157238E+01  0.1766409E+00 -0.2658592E+00
 -0.1475240E+02 -0.7885340E+01  0.0000000E+00  0.3090708E+00  0.2148203E+01  0.1687071E+00 -0.2589646E+00
 -0.1390850E+02 -0.9293360E+01  0.0000000E+00  0.2983689E+00  0.2136483E+01  0.1599245E+00 -0.2518892E+00
 -0.1293060E+02 -0.1061190E+02  0.0000000E+00  0.2877395E+00  0.2120389E+01  0.1502979E+00 -0.2453661E+00
 -0.1182820E+02 -0.1182820E+02  0.0000000E+00  0.2757960E+00  0.2102304E+01  0.1397827E+00 -0.2377482E+00
 -0.1061190E+02 -0.1293060E+02  0.0000000E+00  0.2609809E+00  0.2084256E+01  0.1281922E+00 -0.2273275E+00
 -0.9293350E+01 -0.1390850E+02  0.0000000E+00  0.2443175E+00  0.2064439E+01  0.1157666E+00 -0.2151492E+00
 -0.7885340E+01 -0.1475240E+02  0.0000000E+00  0.2232389E+00  0.2047393E+01  0.1024127E+00 -0.1983614E+00
 -0.6401370E+01 -0.1545430E+02  0.0000000E+00  0.1928271E+00  0.2043865E+01  0.8785599E-01 -0.1716497E+00
 -0.4855760E+01 -0.1600730E+02  0.0000000E+00  0.1521934E+00  0.2064008E+01  0.7205699E-01 -0.1340545E+00
 -0.3263390E+01 -0.1640620E+02  0.0000000E+00  0.8828090E-01  0.2234979E+01  0.5441777E-01 -0.6951420E-01
 -0.1639590E+01 -0.1664710E+02  0.0000000E+00  0.4317654E-01 -0.2516776E+01  0.3501921E-01  0.2525606E-01
  0.1994750E-06 -0.1672760E+02  0.0000000E+00  0.1187665E+00 -0.1700870E+01  0.1540482E-01  0.1177632E+00
  0.1639600E+01 -0.1664710E+02  0.0000000E+00  0.2019056E+00 -0.1546917E+01 -0.4820971E-02  0.2018481E+00
  0.3263390E+01 -0.1640620E+02  0.0000000E+00  0.2764049E+00 -0.1475750E+01 -0.2623163E-01  0.2751573E+00
  0.4855770E+01 -0.1600730E+02  0.0000000E+00  0.3246462E+00 -0.1425951E+01 -0.4685923E-01  0.3212466E+00
  0.6401380E+01 -0.1545430E+02  0.0000000E+00  0.3527551E+00 -0.1383757E+01 -0.6559496E-01  0.3466028E+00
  0.7885340E+01 -0.1475240E+02  0.0000000E+00  0.3742887E+00 -0.1347755E+01 -0.8279154E-01  0.3650173E+00
  0.9293360E+01 -0.1390850E+02  0.0000000E+00  0.3877615E+00 -0.1314247E+01 -0.9839233E-01  0.3750705E+00
  0.1061190E+02 -0.1293060E+02  0.0000000E+00  0.3979105E+00 -0.1284101E+01 -0.1125227E+00  0.3816692E+00
  0.1182820E+02 -0.1182820E+02  0.0000000E+00  0.4068976E+00 -0.1257541E+01 -0.1253884E+00  0.3870961E+00
  0.1293060E+02 -0.1061190E+02  0.0000000E+00  0.4142278E+00 -0.1233877E+01 -0.1369360E+00  0.3909389E+00
  0.1390850E+02 -0.9293360E+01  0.0000000E+00  0.4205580E+00 -0.1213376E+01 -0.1471359E+00  0.3939798E+00
  0.1475240E+02 -0.7885330E+01  0.0000000E+00  0.4269163E+00 -0.1196619E+01 -0.1560409E+00  0.3973773E+00
  0.1545430E+02 -0.6401380E+01  0.0000000E+00  0.4328731E+00 -0.1183081E+01 -0.1636583E+00  0.4007432E+00
  0.1600730E+02 -0.4855760E+01  0.0000000E+00  0.4367891E+00 -0.1171273E+01 -0.1699018E+00  0.4023905E+00
  0.1640620E+02 -0.3263390E+01  0.0000000E+00  0.4382963E+00 -0.1160864E+01 -0.1746816E+00  0.4019825E+00
  0.1664710E+02 -0.1639590E+01  0.0000000E+00  0.4376723E+00 -0.1152113E+01 -0.1779392E+00  0.3998684E+00
  0.1672760E+02  0.0000000E+00 -0.2568960E-01  0.4362758E+00 -0.1146333E+01 -0.1796721E+00  0.3975608E+00
  0.1664710E+02  0.1639590E+01 -0.2568960E-01  0.4357195E+00 -0.1143987E+01 -0.1803741E+00  0.3966317E+00
  0.1640620E+02  0.3263390E+01 -0.2568960E-01  0.4346302E+00 -0.1144610E+01 -0.1796767E+00  0.3957521E+00
  0.1600730E+02  0.4855770E+01 -0.2568960E-01  0.4311953E+00 -0.1147051E+01 -0.1772977E+00  0.3930584E+00
  0.1545430E+02  0.6401380E+01 -0.2568960E-01  0.4249595E+00 -0.1151235E+01 -0.1731116E+00  0.3881017E+00
  0.1475240E+02  0.7885340E+01 -0.2568960E-01  0.4161078E+00 -0.1157303E+01 -0.1671964E+00  0.3810395E+00
  0.1390850E+02  0.9293360E+01 -0.2568960E-01  0.4066345E+00 -0.1166067E+01 -0.1601204E+00  0.3737821E+00
  0.1293060E+02  0.1061190E+02 -0.2568960E-01  0.3973734E+00 -0.1177768E+01 -0.1521891E+00  0.3670750E+00
  0.1182820E+02  0.1182820E+02 -0.2568960E-01  0.3866955E+00 -0.1191849E+01 -0.1430551E+00  0.3592613E+00
  0.1061190E+02  0.1293060E+02 -0.2568960E-01  0.3729744E+00 -0.1207657E+01 -0.1324844E+00  0.3486514E+00
  0.9293360E+01  0.1390850E+02 -0.2568960E-01  0.3572726E+00 -0.1226089E+01 -0.1207299E+00  0.3362558E+00
  0.7885330E+01  0.1475240E+02 -0.2568960E-01  0.3366788E+00 -0.1247137E+01 -0.1070765E+00  0.3191978E+00
  0.6401380E+01  0.1545430E+02 -0.2568960E-01  0.3057634E+00 -0.1271830E+01 -0.9005726E-01  0.2922002E+00
  0.4855770E+01  0.1600730E+02 -0.2568960E-01  0.2636065E+00 -0.1302412E+01 -0.6990170E-01  0.2541696E+00
  0.3263390E+01  0.1640620E+02 -0.2568960E-01  0.1935399E+00 -0.1354493E+01 -0.4153757E-01  0.1890300E+00
  0.1639590E+01  0.1664710E+02 -0.2568960E-01  0.9370472E-01 -0.1535858E+01 -0.3273193E-02  0.9364754E-01
 -0.7311870E-06  0.1672760E+02 -0.2568960E-01  0.3616524E-01 -0.3110600E+01  0.3614788E-01  0.1120676E-02
 -0.1639590E+01  0.1664710E+02 -0.2568960E-01  0.1109277E+00  0.2305471E+01  0.7435998E-01 -0.8231375E-01
 -0.3263390E+01  0.1640620E+02 -0.2568960E-01  0.1890805E+00  0.2185222E+01  0.1090028E+00 -0.1544986E+00
 -0.4855770E+01  0.1600730E+02 -0.2568960E-01  0.2395975E+00  0.2157184E+01  0.1325826E+00 -0.1995716E+00
 -0.6401380E+01  0.1545430E+02 -0.2568960E-01  0.2686509E+00  0.2154164E+01  0.1479831E+00 -0.2242194E+00
 -0.7885340E+01  0.1475240E+02 -0.2568960E-01  0.2904316E+00  0.2156048E+01  0.1604370E+00 -0.2420961E+00
 -0.9293360E+01  0.1390850E+02 -0.2568960E-01  0.3036219E+00  0.2163898E+01  0.1697051E+00 -0.2517667E+00
 -0.1061190E+02  0.1293060E+02 -0.2568960E-01  0.3131515E+00  0.2172959E+01  0.1773772E+00 -0.2580721E+00
 -0.1182820E+02  0.1182820E+02 -0.2568960E-01  0.3212106E+00  0.2180865E+01  0.1840293E+00 -0.2632670E+00
 -0.1293060E+02  0.1061190E+02 -0.2568960E-01  0.3272783E+00  0.2187556E+01  0.1892960E+00 -0.2669795E+00
 -0.1390850E+02  0.9293360E+01 -0.2568960E-01  0.3322083E+00  0.2193017E+01  0.1936247E+00 -0.2699478E+00
 -0.1475240E+02  0.7885330E+01 -0.2568960E-01  0.3371302E+00  0.2196269E+01  0.1973833E+00 -0.2733069E+00
 -0.1545430E+02  0.6401370E+01 -0.2568960E-01  0.3415569E+00  0.2197364E+01  0.2002781E+00 -0.2766764E+00
 -0.1600730E+02  0.4855770E+01 -0.2568960E-01  0.3437692E+00  0.2197829E+01  0.2017048E+00 -0.2783746E+00
 -0.1640620E+02  0.3263390E+01 -0.2568960E-01  0.3434524E+00  0.2198100E+01  0.2015940E+00 -0.2780636E+00
 -0.1664710E+02  0.1639590E+01 -0.2568960E-01  0.3409559E+00  0.2197867E+01  0.2000644E+00 -0.2760890E+00
 -0.1672760E+02 -0.1462370E-05 -0.2568960E-01  0.3380217E+00  0.2194437E+01  0.1974027E+00 -0.2743918E+00
 -0.1664710E+02 -0.1639590E+01 -0.2568960E-01  0.3352815E+00  0.2187065E+01  0.1937908E+00 -0.2736034E+00
 -0.1640620E+02 -0.3263400E+01 -0.2568960E-01  0.3320343E+00  0.2177016E+01  0.1891813E+00 -0.2728685E+00
 -0.1600730E+02 -0.4855770E+01 -0.2568960E-01  0.3266557E+00  0.2166816E+01  0.1833690E+00 -0.2703327E+00
 -0.1545430E+02 -0.6401380E+01 -0.2568960E-01  0.3188266E+00  0.2157256E+01  0.1764437E+00 -0.2655523E+00
 -0.1475240E+02 -0.7885340E+01 -0.2568960E-01  0.3087363E+00  0.2148186E+01  0.1685203E+00 -0.2586871E+00
 -0.1390850E+02 -0.9293360E+01 -0.2568960E-01  0.2980589E+00  0.2136446E+01  0.1597489E+00 -0.2516334E+00
 -0.1293060E+02 -0.1061190E+02 -0.2568960E-01  0.2874401E+00  0.2120353E+01  0.1501326E+00 -0.2451164E+00
 -0.1182820E+02 -0.1182820E+02 -0.2568960E-01  0.2755048E+00  0.2102280E+01  0.1396294E+00 -0.2375006E+00
 -0.1061190E+02 -0.1293060E+02 -0.2568960E-01  0.2607148E+00  0.2084216E+01  0.1280524E+00 -0.2271009E+00
 -0.9293350E+01 -0.1390850E+02 -0.2568960E-01  0.2440648E+00  0.2064414E+01  0.1156415E+00 -0.2149295E+00
 -0.7885340E+01 -0.1475240E+02 -0.2568960E-01  0.2230022E+00  0.2047391E+01  0.1023035E+00 -0.1981514E+00
 -0.6401370E+01 -0.1545430E+02 -0.2568960E-01  0.1926385E+00  0.2043818E+01  0.8776200E-01 -0.1714859E+00
 -0.4855760E+01 -0.1600730E+02 -0.2568960E-01  0.1520415E+00  0.2063969E+01  0.7197999E-01 -0.1339235E+00
 -0.3263390E+01 -0.1640620E+02 -0.2568960E-01  0.8819468E-01  0.2234889E+01  0.5435836E-01 -0.6945120E-01
 -0.1639590E+01 -0.1664710E+02 -0.2568960E-01  0.4314186E-01 -0.2516447E+01  0.3498277E-01  0.2524730E-01
  0.1994750E-06 -0.1672760E+02 -0.2568960E-01  0.1186493E+00 -0.1700901E+01  0.1539328E-01  0.1176466E+00
  0.1639600E+01 -0.1664710E+02 -0.2568960E-01  0.2016792E+00 -0.1546953E+01 -0.4808280E-02  0.2016218E+00
  0.3263390E+01 -0.1640620E+02 -0.2568960E-01  0.2761196E+00 -0.1475764E+01 -0.2620069E-01  0.2748737E+00
  0.4855770E+01 -0.1600730E+02 -0.2568960E-01  0.3243040E+00 -0.1425967E+01 -0.4680463E-01  0.3209087E+00
  0.6401380E+01 -0.1545430E+02 -0.2568960E-01  0.3523919E+00 -0.1383774E+01 -0.6552154E-01  0.3462470E+00
  0.7885340E+01 -0.1475240E+02 -0.2568960E-01  0.3738782E+00 -0.1347768E+01 -0.8269580E-01  0.3646181E+00
  0.9293360E+01 -0.1390850E+02 -0.2568960E-01  0.3873470E+00 -0.1314255E+01 -0.9828426E-01  0.3746704E+00
  0.1061190E+02 -0.1293060E+02 -0.2568960E-01  0.3974891E+00 -0.1284116E+01 -0.1123978E+00  0.3812667E+00
  0.1182820E+02 -0.1182820E+02 -0.2568960E-01  0.4064617E+00 -0.1257551E+01 -0.1252504E+00  0.3866827E+00
  0.1293060E+02 -0.1061190E+02 -0.2568960E-01  0.4137849E+00 -0.1233897E+01 -0.1367818E+00  0.3905236E+00
  0.1390850E+02 -0.9293360E+01 -0.2568960E-01  0.4201064E+00 -0.1213396E+01 -0.1469701E+00  0.3935596E+00
  0.1475240E+02 -0.7885330E+01 -0.2568960E-01  0.4264467E+00 -0.1196627E+01 -0.1558662E+00  0.3969414E+00
  0.1545430E+02 -0.6401380E+01 -0.2568960E-01  0.4323792E+00 -0.1183077E+01 -0.1634732E+00  0.4002852E+00
  0.1600730E+02 -0.4855760E+01 -0.2568960E-01  0.4362758E+00 -0.1171264E+01 -0.1697058E+00  0.4019160E+00
  0.1640620E+02 -0.3263390E+01 -0.2568960E-01  0.4377772E+00 -0.1160851E+01 -0.1744803E+00  0.4015040E+00
  0.1664710E+02 -0.1639590E+01 -0.2568960E-01  0.4371583E+00 -0.1152102E+01 -0.1777343E+00  0.3993969E+00
  0.1672760E+02  0.0000000E+00 -0.1027320E+00  0.4347373E+00 -0.1146302E+01 -0.1790509E+00  0.3961532E+00
  0.1664710E+02  0.1639590E+01 -0.1027320E+00  0.4341707E+00 -0.1143962E+01 -0.1797430E+00  0.3952172E+00
  0.1640620E+02  0.3263390E+01 -0.1027320E+00  0.4330699E+00 -0.1144585E+01 -0.1790414E+00  0.3943269E+00
  0.1600730E+02  0.4855770E+01 -0.1027320E+00  0.4296587E+00 -0.1147035E+01 -0.1766723E+00  0.3916548E+00
  0.1545430E+02  0.6401380E+01 -0.1027320E+00  0.4234865E+00 -0.1151236E+01 -0.1725111E+00  0.3867567E+00
  0.1475240E+02  0.7885340E+01 -0.1027320E+00  0.4147289E+00 -0.1157331E+01 -0.1666318E+00  0.3797813E+00
  0.1390850E+02  0.9293360E+01 -0.1027320E+00  0.4053301E+00 -0.1166103E+01 -0.1595933E+00  0.3725889E+00
  0.1293060E+02  0.1061190E+02 -0.1027320E+00  0.3960981E+00 -0.1177801E+01 -0.1516885E+00  0.3659021E+00
  0.1182820E+02  0.1182820E+02 -0.1027320E+00  0.3854372E+00 -0.1191869E+01 -0.1425825E+00  0.3580950E+00
  0.1061190E+02  0.1293060E+02 -0.1027320E+00  0.3717900E+00 -0.1207689E+01 -0.1320527E+00  0.3475484E+00
  0.9293360E+01  0.1390850E+02 -0.1027320E+00  0.3561228E+00 -0.1226118E+01 -0.1203316E+00  0.3351772E+00
  0.7885330E+01  0.1475240E+02 -0.1027320E+00  0.3355695E+00 -0.1247165E+01 -0.1067148E+00  0.3181491E+00
  0.6401380E+01  0.1545430E+02 -0.1027320E+00  0.3048131E+00 -0.1271844E+01 -0.8977325E-01  0.2912933E+00
  0.4855770E+01  0.1600730E+02 -0.1027320E+00  0.2627629E+00 -0.1302426E+01 -0.6967442E-01  0.2533571E+00
  0.3263390E+01  0.1640620E+02 -0.1027320E+00  0.1929451E+00 -0.1354479E+01 -0.4141270E-01  0.1884484E+00
  0.1639590E+01  0.1664710E+02 -0.1027320E+00  0.9332550E-01 -0.1536063E+01 -0.3240847E-02  0.9326921E-01
 -0.7311870E-06  0.1672760E+02 -0.1027320E+00  0.3605714E-01 -0.3111915E+01  0.3604126E-01  0.1069929E-02
 -0.1639590E+01  0.1664710E+02 -0.1027320E+00  0.1105594E+00  0.2305452E+01  0.7411151E-01 -0.8204186E-01
 -0.3263390E+01  0.1640620E+02 -0.1027320E+00  0.1885411E+00  0.2185121E+01  0.1086764E+00 -0.1540688E+00
 -0.4855770E+01  0.1600730E+02 -0.1027320E+00  0.2388603E+00  0.2157130E+01  0.1321639E+00 -0.1989647E+00
 -0.6401380E+01  0.1545430E+02 -0.1027320E+00  0.2678493E+00  0.2154085E+01  0.1475238E+00 -0.2235620E+00
 -0.7885340E+01  0.1475240E+02 -0.1027320E+00  0.2894875E+00  0.2156036E+01  0.1599128E+00 -0.2413108E+00
 -0.9293360E+01  0.1390850E+02 -0.1027320E+00  0.3026628E+00  0.2163860E+01  0.1691594E+00 -0.2509778E+00
 -0.1061190E+02  0.1293060E+02 -0.1027320E+00  0.3121732E+00  0.2172900E+01  0.1768080E+00 -0.2572763E+00
 -0.1182820E+02  0.1182820E+02 -0.1027320E+00  0.3201859E+00  0.2180823E+01  0.1834310E+00 -0.2624349E+00
 -0.1293060E+02  0.1061190E+02 -0.1027320E+00  0.3262454E+00  0.2187508E+01  0.1886858E+00 -0.2661460E+00
 -0.1390850E+02  0.9293360E+01 -0.1027320E+00  0.3311568E+00  0.2192979E+01  0.1930015E+00 -0.2691008E+00
 -0.1475240E+02  0.7885330E+01 -0.1027320E+00  0.3360244E+00  0.2196265E+01  0.1967346E+00 -0.2724112E+00
 -0.1545430E+02  0.6401370E+01 -0.1027320E+00  0.3403777E+00  0.2197411E+01  0.1995996E+00 -0.2757117E+00
 -0.1600730E+02  0.4855770E+01 -0.1027320E+00  0.3425430E+00  0.2197915E+01  0.2010090E+00 -0.2773645E+00
 -0.1640620E+02  0.3263390E+01 -0.1027320E+00  0.3422159E+00  0.2198200E+01  0.2008962E+00 -0.2770423E+00
 -0.1664710E+02  0.1639590E+01 -0.1027320E+00  0.3397419E+00  0.2197963E+01  0.1993784E+00 -0.2750870E+00
 -0.1672760E+02 -0.1462370E-05 -0.1027320E+00  0.3368257E+00  0.2194532E+01  0.1967303E+00 -0.2734022E+00
 -0.1664710E+02 -0.1639590E+01 -0.1027320E+00  0.3340872E+00  0.2187185E+01  0.1931332E+00 -0.2726057E+00
 -0.1640620E+02 -0.3263400E+01 -0.1027320E+00  0.3308394E+00  0.2177152E+01  0.1885377E+00 -0.2718607E+00
 -0.1600730E+02 -0.4855770E+01 -0.1027320E+00  0.3254898E+00  0.2166938E+01  0.1827475E+00 -0.2693455E+00
 -0.1545430E+02 -0.6401380E+01 -0.1027320E+00  0.3177256E+00  0.2157325E+01  0.1758527E+00 -0.2646231E+00
 -0.1475240E+02 -0.7885340E+01 -0.1027320E+00  0.3077261E+00  0.2148168E+01  0.1679640E+00 -0.2578438E+00
 -0.1390850E+02 -0.9293360E+01 -0.1027320E+00  0.2971218E+00  0.2136364E+01  0.1592261E+00 -0.2508554E+00
 -0.1293060E+02 -0.1061190E+02 -0.1027320E+00  0.2865359E+00  0.2120270E+01  0.1496400E+00 -0.2443578E+00
 -0.1182820E+02 -0.1182820E+02 -0.1027320E+00  0.2746238E+00  0.2102229E+01  0.1391707E+00 -0.2367483E+00
 -0.1061190E+02 -0.1293060E+02 -0.1027320E+00  0.2599097E+00  0.2084127E+01  0.1276368E+00 -0.2264108E+00
 -0.9293350E+01 -0.1390850E+02 -0.1027320E+00  0.2433000E+00  0.2064347E+01  0.1152648E+00 -0.2142637E+00
 -0.7885340E+01 -0.1475240E+02 -0.1027320E+00  0.2222813E+00  0.2047369E+01  0.1019684E+00 -0.1975130E+00
 -0.6401370E+01 -0.1545430E+02 -0.1027320E+00  0.1920684E+00  0.2043694E+01  0.8748095E-01 -0.1709893E+00
 -0.4855760E+01 -0.1600730E+02 -0.1027320E+00  0.1515788E+00  0.2063902E+01  0.7175188E-01 -0.1335208E+00
 -0.3263390E+01 -0.1640620E+02 -0.1027320E+00  0.8795552E-01  0.2234613E+01  0.5419182E-01 -0.6927785E-01
 -0.1639590E+01 -0.1664710E+02 -0.1027320E+00  0.4303823E-01 -0.2515497E+01  0.3487481E-01  0.2521977E-01
  0.1994750E-06 -0.1672760E+02 -0.1027320E+00  0.1182911E+00 -0.1700964E+01  0.1535423E-01  0.1172903E+00
  0.1639600E+01 -0.1664710E+02 -0.1027320E+00  0.2009990E+00 -0.1547005E+01 -0.4781514E-02  0.2009422E+00
  0.3263390E+01 -0.1640620E+02 -0.1027320E+00  0.2752743E+00 -0.1475832E+01 -0.2610200E-01  0.2740340E+00
  0.4855770E+01 -0.1600730E+02 -0.1027320E+00  0.3232717E+00 -0.1426020E+01 -0.4663877E-01  0.3198897E+00
  0.6401380E+01 -0.1545430E+02 -0.1027320E+00  0.3512965E+00 -0.1383835E+01 -0.6529703E-01  0.3451747E+00
  0.7885340E+01 -0.1475240E+02 -0.1027320E+00  0.3726444E+00 -0.1347795E+01 -0.8241300E-01  0.3634170E+00
  0.9293360E+01 -0.1390850E+02 -0.1027320E+00  0.3860943E+00 -0.1314297E+01 -0.9795056E-01  0.3734629E+00
  0.1061190E+02 -0.1293060E+02 -0.1027320E+00  0.3962182E+00 -0.1284168E+01 -0.1120186E+00  0.3800536E+00
  0.1182820E+02 -0.1182820E+02 -0.1027320E+00  0.4051414E+00 -0.1257590E+01 -0.1248282E+00  0.3854315E+00
  0.1293060E+02 -0.1061190E+02 -0.1027320E+00  0.4124512E+00 -0.1233946E+01 -0.1363216E+00  0.3892716E+00
  0.1390850E+02 -0.9293360E+01 -0.1027320E+00  0.4187471E+00 -0.1213444E+01 -0.1464757E+00  0.3922932E+00
