 VARIABLES="X" "Y" "Z" "abs(eta) (m)" "angle(phi) (rad)" "PRE1" "PRE2"
ZONE N=   3200 ,E =    3136 ,F=FEPOINT,ET=QUADRILATERAL
  0.1530690E+02  0.0000000E+00  0.0000000E+00  0.2699978E+00  0.2166768E+01  0.1515533E+00 -0.2234512E+00
  0.1523320E+02  0.1500340E+01  0.0000000E+00  0.2734734E+00  0.2174962E+01  0.1553536E+00 -0.2250621E+00
  0.1501280E+02  0.2986230E+01  0.0000000E+00  0.2759664E+00  0.2181307E+01  0.1582077E+00 -0.2261145E+00
  0.1464780E+02  0.4443360E+01  0.0000000E+00  0.2776069E+00  0.2185240E+01  0.1600414E+00 -0.2268311E+00
  0.1414170E+02  0.5857700E+01  0.0000000E+00  0.2782431E+00  0.2188005E+01  0.1610362E+00 -0.2269065E+00
  0.1349950E+02  0.7215620E+01  0.0000000E+00  0.2783775E+00  0.2189242E+01  0.1613947E+00 -0.2268166E+00
  0.1272720E+02  0.8504060E+01  0.0000000E+00  0.2789105E+00  0.2188434E+01  0.1615201E+00 -0.2273814E+00
  0.1183240E+02  0.9710600E+01  0.0000000E+00  0.2791686E+00  0.2186587E+01  0.1612490E+00 -0.2278901E+00
  0.1082360E+02  0.1082360E+02  0.0000000E+00  0.2792466E+00  0.2183240E+01  0.1605302E+00 -0.2284923E+00
  0.9710590E+01  0.1183240E+02  0.0000000E+00  0.2780688E+00  0.2179611E+01  0.1590263E+00 -0.2281071E+00
  0.8504060E+01  0.1272720E+02  0.0000000E+00  0.2772425E+00  0.2175457E+01  0.1576075E+00 -0.2280861E+00
  0.7215620E+01  0.1349950E+02  0.0000000E+00  0.2723517E+00  0.2174228E+01  0.1545519E+00 -0.2242525E+00
  0.5857700E+01  0.1414170E+02  0.0000000E+00  0.2667256E+00  0.2174686E+01  0.1514598E+00 -0.2195507E+00
  0.4443360E+01  0.1464780E+02  0.0000000E+00  0.2594728E+00  0.2177929E+01  0.1480330E+00 -0.2131017E+00
  0.2986230E+01  0.1501280E+02  0.0000000E+00  0.2424729E+00  0.2193598E+01  0.1414375E+00 -0.1969480E+00
  0.1500340E+01  0.1523320E+02  0.0000000E+00  0.1646136E+00  0.2281688E+01  0.1074120E+00 -0.1247409E+00
 -0.6690860E-06  0.1530690E+02  0.0000000E+00  0.9212437E-01  0.2476107E+01  0.7246662E-01 -0.5688135E-01
 -0.1500340E+01  0.1523320E+02  0.0000000E+00  0.4181317E-01 -0.2376200E+01  0.3015192E-01  0.2896900E-01
 -0.2986230E+01  0.1501280E+02  0.0000000E+00  0.1895992E+00 -0.1366901E+01 -0.3839110E-01  0.1856717E+00
 -0.4443360E+01  0.1464780E+02  0.0000000E+00  0.2426647E+00 -0.1314401E+01 -0.6153858E-01  0.2347321E+00
 -0.5857700E+01  0.1414170E+02  0.0000000E+00  0.2707794E+00 -0.1287112E+01 -0.7578973E-01  0.2599565E+00
 -0.7215620E+01  0.1349950E+02  0.0000000E+00  0.2907461E+00 -0.1266026E+01 -0.8724524E-01  0.2773473E+00
 -0.8504060E+01  0.1272720E+02  0.0000000E+00  0.3075736E+00 -0.1247643E+01 -0.9767260E-01  0.2916531E+00
 -0.9710590E+01  0.1183240E+02  0.0000000E+00  0.3180554E+00 -0.1232565E+01 -0.1055369E+00  0.3000353E+00
 -0.1082360E+02  0.1082360E+02  0.0000000E+00  0.3285506E+00 -0.1219317E+01 -0.1131156E+00  0.3084645E+00
 -0.1183240E+02  0.9710590E+01  0.0000000E+00  0.3360675E+00 -0.1208251E+01 -0.1191880E+00  0.3142222E+00
 -0.1272720E+02  0.8504060E+01  0.0000000E+00  0.3425277E+00 -0.1199178E+01 -0.1243801E+00  0.3191470E+00
 -0.1349950E+02  0.7215620E+01  0.0000000E+00  0.3486716E+00 -0.1192140E+01 -0.1288941E+00  0.3239725E+00
 -0.1414170E+02  0.5857690E+01  0.0000000E+00  0.3555627E+00 -0.1187492E+01 -0.1329757E+00  0.3297610E+00
 -0.1464780E+02  0.4443360E+01  0.0000000E+00  0.3614123E+00 -0.1185301E+01 -0.1358974E+00  0.3348891E+00
 -0.1501280E+02  0.2986230E+01  0.0000000E+00  0.3658306E+00 -0.1185532E+01 -0.1374807E+00  0.3390149E+00
 -0.1523320E+02  0.1500340E+01  0.0000000E+00  0.3689062E+00 -0.1188234E+01 -0.1377121E+00  0.3422385E+00
 -0.1530690E+02 -0.1338170E-05  0.0000000E+00  0.3706422E+00 -0.1193155E+01 -0.1366665E+00  0.3445256E+00
 -0.1523320E+02 -0.1500340E+01  0.0000000E+00  0.3714618E+00 -0.1200344E+01 -0.1344828E+00  0.3462633E+00
 -0.1501280E+02 -0.2986230E+01  0.0000000E+00  0.3714106E+00 -0.1209647E+01 -0.1312377E+00  0.3474514E+00
 -0.1464780E+02 -0.4443360E+01  0.0000000E+00  0.3707606E+00 -0.1221079E+01 -0.1270346E+00  0.3483182E+00
 -0.1414170E+02 -0.5857700E+01  0.0000000E+00  0.3691553E+00 -0.1234774E+01 -0.1217233E+00  0.3485098E+00
 -0.1349950E+02 -0.7215620E+01  0.0000000E+00  0.3670647E+00 -0.1251305E+01 -0.1152889E+00  0.3484896E+00
 -0.1272720E+02 -0.8504060E+01  0.0000000E+00  0.3653527E+00 -0.1271307E+01 -0.1077908E+00  0.3490899E+00
 -0.1183240E+02 -0.9710600E+01  0.0000000E+00  0.3633738E+00 -0.1294436E+01 -0.9914877E-01  0.3495856E+00
 -0.1082360E+02 -0.1082360E+02  0.0000000E+00  0.3613101E+00 -0.1321060E+01 -0.8929712E-01  0.3501014E+00
 -0.9710600E+01 -0.1183240E+02  0.0000000E+00  0.3581597E+00 -0.1350874E+01 -0.7813381E-01  0.3495332E+00
 -0.8504050E+01 -0.1272720E+02  0.0000000E+00  0.3553945E+00 -0.1384756E+01 -0.6573690E-01  0.3492619E+00
 -0.7215620E+01 -0.1349950E+02  0.0000000E+00  0.3489660E+00 -0.1421314E+01 -0.5197016E-01  0.3450744E+00
 -0.5857690E+01 -0.1414170E+02  0.0000000E+00  0.3418663E+00 -0.1463758E+01 -0.3652291E-01  0.3399097E+00
 -0.4443360E+01 -0.1464780E+02  0.0000000E+00  0.3333288E+00 -0.1514432E+01 -0.1877802E-01  0.3327994E+00
 -0.2986230E+01 -0.1501280E+02  0.0000000E+00  0.3155959E+00 -0.1579698E+01  0.2809192E-02  0.3155834E+00
 -0.1500340E+01 -0.1523320E+02  0.0000000E+00  0.2428351E+00 -0.1690445E+01  0.2898552E-01  0.2410990E+00
  0.1825330E-06 -0.1530690E+02  0.0000000E+00  0.1775060E+00 -0.1807040E+01  0.4154569E-01  0.1725756E+00
  0.1500340E+01 -0.1523320E+02  0.0000000E+00  0.9921175E-01 -0.2074281E+01  0.4786775E-01  0.8690023E-01
  0.2986230E+01 -0.1501280E+02  0.0000000E+00  0.8129956E-01  0.2149192E+01  0.4444497E-01 -0.6807542E-01
  0.4443360E+01 -0.1464780E+02  0.0000000E+00  0.1275518E+00  0.1993438E+01  0.5231801E-01 -0.1163284E+00
  0.5857700E+01 -0.1414170E+02  0.0000000E+00  0.1540527E+00  0.1983995E+01  0.6185843E-01 -0.1410878E+00
  0.7215620E+01 -0.1349950E+02  0.0000000E+00  0.1736673E+00  0.1996444E+01  0.7170911E-01 -0.1581712E+00
  0.8504060E+01 -0.1272720E+02  0.0000000E+00  0.1904138E+00  0.2011348E+01  0.8119987E-01 -0.1722324E+00
  0.9710600E+01 -0.1183240E+02  0.0000000E+00  0.2018623E+00  0.2035903E+01  0.9053891E-01 -0.1804192E+00
  0.1082360E+02 -0.1082360E+02  0.0000000E+00  0.2132371E+00  0.2055524E+01  0.9936146E-01 -0.1886726E+00
  0.1183240E+02 -0.9710590E+01  0.0000000E+00  0.2222098E+00  0.2077597E+01  0.1078568E+00 -0.1942785E+00
  0.1272720E+02 -0.8504060E+01  0.0000000E+00  0.2302853E+00  0.2097774E+01  0.1158158E+00 -0.1990427E+00
  0.1349950E+02 -0.7215620E+01  0.0000000E+00  0.2380242E+00  0.2114557E+01  0.1231437E+00 -0.2036937E+00
  0.1414170E+02 -0.5857700E+01  0.0000000E+00  0.2462745E+00  0.2125962E+01  0.1298073E+00 -0.2092873E+00
  0.1464780E+02 -0.4443350E+01  0.0000000E+00  0.2537726E+00  0.2136492E+01  0.1360229E+00 -0.2142389E+00
  0.1501280E+02 -0.2986230E+01  0.0000000E+00  0.2602042E+00  0.2146890E+01  0.1417469E+00 -0.2182064E+00
  0.1523320E+02 -0.1500330E+01  0.0000000E+00  0.2656534E+00  0.2157065E+01  0.1469745E+00 -0.2212922E+00
  0.1530690E+02  0.0000000E+00 -0.2568960E-01  0.2696910E+00  0.2166779E+01  0.1513836E+00 -0.2231956E+00
  0.1523320E+02  0.1500340E+01 -0.2568960E-01  0.2731643E+00  0.2174963E+01  0.1551782E+00 -0.2248076E+00
  0.1501280E+02  0.2986230E+01 -0.2568960E-01  0.2756590E+00  0.2181303E+01  0.1580305E+00 -0.2258633E+00
  0.1464780E+02  0.4443360E+01 -0.2568960E-01  0.2773055E+00  0.2185228E+01  0.1598649E+00 -0.2265867E+00
  0.1414170E+02  0.5857700E+01 -0.2568960E-01  0.2779503E+00  0.2187983E+01  0.1608617E+00 -0.2266713E+00
  0.1349950E+02  0.7215620E+01 -0.2568960E-01  0.2780930E+00  0.2189220E+01  0.1612249E+00 -0.2265883E+00
  0.1272720E+02  0.8504060E+01 -0.2568960E-01  0.2786237E+00  0.2188408E+01  0.1613481E+00 -0.2271519E+00
  0.1183240E+02  0.9710600E+01 -0.2568960E-01  0.2788780E+00  0.2186569E+01  0.1610769E+00 -0.2276558E+00
  0.1082360E+02  0.1082360E+02 -0.2568960E-01  0.2789546E+00  0.2183221E+01  0.1603580E+00 -0.2282565E+00
  0.9710590E+01  0.1183240E+02 -0.2568960E-01  0.2777849E+00  0.2179592E+01  0.1588596E+00 -0.2278773E+00
  0.8504060E+01  0.1272720E+02 -0.2568960E-01  0.2769451E+00  0.2175461E+01  0.1574394E+00 -0.2278408E+00
  0.7215620E+01  0.1349950E+02 -0.2568960E-01  0.2720886E+00  0.2174195E+01  0.1543951E+00 -0.2240409E+00
  0.5857700E+01  0.1414170E+02 -0.2568960E-01  0.2664582E+00  0.2174668E+01  0.1513039E+00 -0.2193333E+00
  0.4443360E+01  0.1464780E+02 -0.2568960E-01  0.2592155E+00  0.2177915E+01  0.1478833E+00 -0.2128925E+00
  0.2986230E+01  0.1501280E+02 -0.2568960E-01  0.2422360E+00  0.2193577E+01  0.1412952E+00 -0.1967585E+00
  0.1500340E+01  0.1523320E+02 -0.2568960E-01  0.1644877E+00  0.2281591E+01  0.1073177E+00 -0.1246559E+00
 -0.6690860E-06  0.1530690E+02 -0.2568960E-01  0.9204409E-01  0.2476013E+01  0.7239809E-01 -0.5683865E-01
 -0.1500340E+01  0.1523320E+02 -0.2568960E-01  0.4181555E-01 -0.2373480E+01  0.3007472E-01  0.2905257E-01
 -0.2986230E+01  0.1501280E+02 -0.2568960E-01  0.1893749E+00 -0.1366916E+01 -0.3834284E-01  0.1854527E+00
 -0.4443360E+01  0.1464780E+02 -0.2568960E-01  0.2424277E+00 -0.1314394E+01 -0.6148029E-01  0.2345024E+00
 -0.5857700E+01  0.1414170E+02 -0.2568960E-01  0.2704985E+00 -0.1287112E+01 -0.7571097E-01  0.2596869E+00
 -0.7215620E+01  0.1349950E+02 -0.2568960E-01  0.2904643E+00 -0.1266018E+01 -0.8716314E-01  0.2770778E+00
 -0.8504060E+01  0.1272720E+02 -0.2568960E-01  0.3072349E+00 -0.1247654E+01 -0.9756164E-01  0.2913331E+00
 -0.9710590E+01  0.1183240E+02 -0.2568960E-01  0.3177268E+00 -0.1232570E+01 -0.1054262E+00  0.2997259E+00
 -0.1082360E+02  0.1082360E+02 -0.2568960E-01  0.3281977E+00 -0.1219327E+01 -0.1129911E+00  0.3081343E+00
 -0.1183240E+02  0.9710590E+01 -0.2568960E-01  0.3357093E+00 -0.1208258E+01 -0.1190588E+00  0.3138881E+00
 -0.1272720E+02  0.8504060E+01 -0.2568960E-01  0.3421713E+00 -0.1199188E+01 -0.1242473E+00  0.3188162E+00
 -0.1349950E+02  0.7215620E+01 -0.2568960E-01  0.3483096E+00 -0.1192150E+01 -0.1287571E+00  0.3236375E+00
 -0.1414170E+02  0.5857690E+01 -0.2568960E-01  0.3551808E+00 -0.1187506E+01 -0.1328283E+00  0.3294086E+00
 -0.1464780E+02  0.4443360E+01 -0.2568960E-01  0.3610131E+00 -0.1185311E+01 -0.1357442E+00  0.3345205E+00
 -0.1501280E+02  0.2986230E+01 -0.2568960E-01  0.3654173E+00 -0.1185540E+01 -0.1373225E+00  0.3386330E+00
 -0.1523320E+02  0.1500340E+01 -0.2568960E-01  0.3684853E+00 -0.1188239E+01 -0.1375533E+00  0.3418486E+00
 -0.1530690E+02 -0.1338170E-05 -0.2568960E-01  0.3702202E+00 -0.1193154E+01 -0.1365114E+00  0.3441332E+00
 -0.1523320E+02 -0.1500340E+01 -0.2568960E-01  0.3710415E+00 -0.1200346E+01 -0.1343303E+00  0.3458716E+00
 -0.1501280E+02 -0.2986230E+01 -0.2568960E-01  0.3709951E+00 -0.1209649E+01 -0.1310902E+00  0.3470630E+00
 -0.1464780E+02 -0.4443360E+01 -0.2568960E-01  0.3703526E+00 -0.1221087E+01 -0.1268918E+00  0.3479360E+00
 -0.1414170E+02 -0.5857700E+01 -0.2568960E-01  0.3687582E+00 -0.1234788E+01 -0.1215874E+00  0.3481367E+00
 -0.1349950E+02 -0.7215620E+01 -0.2568960E-01  0.3666776E+00 -0.1251328E+01 -0.1151595E+00  0.3481246E+00
 -0.1272720E+02 -0.8504060E+01 -0.2568960E-01  0.3649672E+00 -0.1271326E+01 -0.1076704E+00  0.3487236E+00
 -0.1183240E+02 -0.9710600E+01 -0.2568960E-01  0.3629863E+00 -0.1294448E+01 -0.9903879E-01  0.3492139E+00
 -0.1082360E+02 -0.1082360E+02 -0.2568960E-01  0.3609217E+00 -0.1321079E+01 -0.8919448E-01  0.3497268E+00
 -0.9710600E+01 -0.1183240E+02 -0.2568960E-01  0.3577819E+00 -0.1350892E+01 -0.7804517E-01  0.3491659E+00
 -0.8504050E+01 -0.1272720E+02 -0.2568960E-01  0.3550044E+00 -0.1384765E+01 -0.6566176E-01  0.3488792E+00
 -0.7215620E+01 -0.1349950E+02 -0.2568960E-01  0.3486120E+00 -0.1421340E+01 -0.5190849E-01  0.3447258E+00
 -0.5857690E+01 -0.1414170E+02 -0.2568960E-01  0.3415098E+00 -0.1463776E+01 -0.3647874E-01  0.3395559E+00
 -0.4443360E+01 -0.1464780E+02 -0.2568960E-01  0.3329827E+00 -0.1514446E+01 -0.1875378E-01  0.3324542E+00
 -0.2986230E+01 -0.1501280E+02 -0.2568960E-01  0.3152698E+00 -0.1579726E+01  0.2815159E-02  0.3152573E+00
 -0.1500340E+01 -0.1523320E+02 -0.2568960E-01  0.2426166E+00 -0.1690395E+01  0.2894751E-01  0.2408835E+00
  0.1825330E-06 -0.1530690E+02 -0.2568960E-01  0.1773283E+00 -0.1807089E+01  0.4151259E-01  0.1724008E+00
  0.1500340E+01 -0.1523320E+02 -0.2568960E-01  0.9899466E-01 -0.2074773E+01  0.4780567E-01  0.8668657E-01
  0.2986230E+01 -0.1501280E+02 -0.2568960E-01  0.8120725E-01  0.2149343E+01  0.4440473E-01 -0.6799145E-01
  0.4443360E+01 -0.1464780E+02 -0.2568960E-01  0.1274408E+00  0.1993349E+01  0.5226214E-01 -0.1162318E+00
  0.5857700E+01 -0.1414170E+02 -0.2568960E-01  0.1539022E+00  0.1983950E+01  0.6179177E-01 -0.1409528E+00
  0.7215620E+01 -0.1349950E+02 -0.2568960E-01  0.1735118E+00  0.1996343E+01  0.7162891E-01 -0.1580369E+00
  0.8504060E+01 -0.1272720E+02 -0.2568960E-01  0.1902092E+00  0.2011343E+01  0.8111169E-01 -0.1720477E+00
  0.9710600E+01 -0.1183240E+02 -0.2568960E-01  0.2016626E+00  0.2035851E+01  0.9043992E-01 -0.1802455E+00
  0.1082360E+02 -0.1082360E+02 -0.2568960E-01  0.2130159E+00  0.2055497E+01  0.9925331E-01 -0.1884795E+00
  0.1183240E+02 -0.9710590E+01 -0.2568960E-01  0.2219805E+00  0.2077569E+01  0.1077399E+00 -0.1940810E+00
  0.1272720E+02 -0.8504060E+01 -0.2568960E-01  0.2300530E+00  0.2097721E+01  0.1156884E+00 -0.1988481E+00
  0.1349950E+02 -0.7215620E+01 -0.2568960E-01  0.2377839E+00  0.2114504E+01  0.1230086E+00 -0.2034947E+00
  0.1414170E+02 -0.5857700E+01 -0.2568960E-01  0.2460174E+00  0.2125933E+01  0.1296659E+00 -0.2090725E+00
  0.1464780E+02 -0.4443350E+01 -0.2568960E-01  0.2534961E+00  0.2136484E+01  0.1358731E+00 -0.2140065E+00
  0.1501280E+02 -0.2986230E+01 -0.2568960E-01  0.2599133E+00  0.2146898E+01  0.1415900E+00 -0.2179614E+00
  0.1523320E+02 -0.1500330E+01 -0.2568960E-01  0.2653516E+00  0.2157079E+01  0.1468106E+00 -0.2210388E+00
  0.1530690E+02  0.0000000E+00 -0.1027320E+00  0.2687604E+00  0.2166827E+01  0.1508720E+00 -0.2224181E+00
  0.1523320E+02  0.1500340E+01 -0.1027320E+00  0.2722279E+00  0.2175000E+01  0.1546547E+00 -0.2240312E+00
  0.1501280E+02  0.2986230E+01 -0.1027320E+00  0.2747299E+00  0.2181314E+01  0.1575003E+00 -0.2251004E+00
  0.1464780E+02  0.4443360E+01 -0.1027320E+00  0.2763911E+00  0.2185210E+01  0.1593337E+00 -0.2258424E+00
  0.1414170E+02  0.5857700E+01 -0.1027320E+00  0.2770624E+00  0.2187941E+01  0.1603385E+00 -0.2259538E+00
  0.1349950E+02  0.7215620E+01 -0.1027320E+00  0.2772274E+00  0.2189160E+01  0.1607094E+00 -0.2258927E+00
  0.1272720E+02  0.8504060E+01 -0.1027320E+00  0.2777562E+00  0.2188355E+01  0.1608338E+00 -0.2264530E+00
  0.1183240E+02  0.9710600E+01 -0.1027320E+00  0.2779952E+00  0.2186520E+01  0.1605561E+00 -0.2269429E+00
  0.1082360E+02  0.1082360E+02 -0.1027320E+00  0.2780696E+00  0.2183183E+01  0.1598407E+00 -0.2275383E+00
  0.9710590E+01  0.1183240E+02 -0.1027320E+00  0.2769245E+00  0.2179539E+01  0.1583555E+00 -0.2271799E+00
  0.8504060E+01  0.1272720E+02 -0.1027320E+00  0.2760392E+00  0.2175439E+01  0.1569194E+00 -0.2270989E+00
  0.7215620E+01  0.1349950E+02 -0.1027320E+00  0.2712747E+00  0.2174144E+01  0.1539218E+00 -0.2233787E+00
  0.5857700E+01  0.1414170E+02 -0.1027320E+00  0.2656603E+00  0.2174612E+01  0.1508385E+00 -0.2186850E+00
  0.4443360E+01  0.1464780E+02 -0.1027320E+00  0.2584307E+00  0.2177869E+01  0.1474258E+00 -0.2122548E+00
  0.2986230E+01  0.1501280E+02 -0.1027320E+00  0.2415737E+00  0.2193472E+01  0.1408884E+00 -0.1962354E+00
  0.1500340E+01  0.1523320E+02 -0.1027320E+00  0.1640591E+00  0.2281431E+01  0.1070182E+00 -0.1243483E+00
 -0.6690860E-06  0.1530690E+02 -0.1027320E+00  0.9178932E-01  0.2475783E+01  0.7218468E-01 -0.5669789E-01
 -0.1500340E+01  0.1523320E+02 -0.1027320E+00  0.4172604E-01 -0.2370821E+01  0.2993316E-01  0.2907006E-01
 -0.2986230E+01  0.1501280E+02 -0.1027320E+00  0.1887890E+00 -0.1366899E+01 -0.3822731E-01  0.1848782E+00
 -0.4443360E+01  0.1464780E+02 -0.1027320E+00  0.2417033E+00 -0.1314380E+01 -0.6129979E-01  0.2338008E+00
 -0.5857700E+01  0.1414170E+02 -0.1027320E+00  0.2696540E+00 -0.1287117E+01 -0.7547335E-01  0.2588765E+00
 -0.7215620E+01  0.1349950E+02 -0.1027320E+00  0.2895826E+00 -0.1266020E+01 -0.8689777E-01  0.2762369E+00
 -0.8504060E+01  0.1272720E+02 -0.1027320E+00  0.3062122E+00 -0.1247684E+01 -0.9722836E-01  0.2903662E+00
 -0.9710590E+01  0.1183240E+02 -0.1027320E+00  0.3167321E+00 -0.1232587E+01 -0.1050911E+00  0.2987894E+00
 -0.1082360E+02  0.1082360E+02 -0.1027320E+00  0.3271292E+00 -0.1219352E+01 -0.1126157E+00  0.3071339E+00
 -0.1183240E+02  0.9710590E+01 -0.1027320E+00  0.3346227E+00 -0.1208278E+01 -0.1186673E+00  0.3128745E+00
 -0.1272720E+02  0.8504060E+01 -0.1027320E+00  0.3410890E+00 -0.1199214E+01 -0.1238462E+00  0.3178110E+00
 -0.1349950E+02  0.7215620E+01 -0.1027320E+00  0.3472117E+00 -0.1192174E+01 -0.1283435E+00  0.3226204E+00
 -0.1414170E+02  0.5857690E+01 -0.1027320E+00  0.3540250E+00 -0.1187533E+01 -0.1323874E+00  0.3283402E+00
 -0.1464780E+02  0.4443360E+01 -0.1027320E+00  0.3598025E+00 -0.1185336E+01 -0.1352806E+00  0.3334022E+00
 -0.1501280E+02  0.2986230E+01 -0.1027320E+00  0.3641672E+00 -0.1185554E+01 -0.1368482E+00  0.3374764E+00
 -0.1523320E+02  0.1500340E+01 -0.1027320E+00  0.3672127E+00 -0.1188241E+01 -0.1370776E+00  0.3406683E+00
 -0.1530690E+02 -0.1338170E-05 -0.1027320E+00  0.3689424E+00 -0.1193151E+01 -0.1360410E+00  0.3429451E+00
 -0.1523320E+02 -0.1500340E+01 -0.1027320E+00  0.3697695E+00 -0.1200336E+01 -0.1338730E+00  0.3446847E+00
 -0.1501280E+02 -0.2986230E+01 -0.1027320E+00  0.3697392E+00 -0.1209654E+01 -0.1306448E+00  0.3458887E+00
 -0.1464780E+02 -0.4443360E+01 -0.1027320E+00  0.3691190E+00 -0.1221107E+01 -0.1264624E+00  0.3467796E+00
 -0.1414170E+02 -0.5857700E+01 -0.1027320E+00  0.3675566E+00 -0.1234828E+01 -0.1211772E+00  0.3470071E+00
 -0.1349950E+02 -0.7215620E+01 -0.1027320E+00  0.3655037E+00 -0.1251380E+01 -0.1147729E+00  0.3470161E+00
 -0.1272720E+02 -0.8504060E+01 -0.1027320E+00  0.3637970E+00 -0.1271382E+01 -0.1073058E+00  0.3476114E+00
 -0.1183240E+02 -0.9710600E+01 -0.1027320E+00  0.3618113E+00 -0.1294494E+01 -0.9870233E-01  0.3480880E+00
 -0.1082360E+02 -0.1082360E+02 -0.1027320E+00  0.3597509E+00 -0.1321121E+01 -0.8889072E-01  0.3485960E+00
 -0.9710600E+01 -0.1183240E+02 -0.1027320E+00  0.3566411E+00 -0.1350942E+01 -0.7777890E-01  0.3480565E+00
 -0.8504050E+01 -0.1272720E+02 -0.1027320E+00  0.3538300E+00 -0.1384792E+01 -0.6543508E-01  0.3477268E+00
 -0.7215620E+01 -0.1349950E+02 -0.1027320E+00  0.3475254E+00 -0.1421397E+01 -0.5172721E-01  0.3436542E+00
 -0.5857690E+01 -0.1414170E+02 -0.1027320E+00  0.3404437E+00 -0.1463835E+01 -0.3634499E-01  0.3384981E+00
 -0.4443360E+01 -0.1464780E+02 -0.1027320E+00  0.3319370E+00 -0.1514487E+01 -0.1868119E-01  0.3314109E+00
 -0.2986230E+01 -0.1501280E+02 -0.1027320E+00  0.3143427E+00 -0.1579818E+01  0.2835928E-02  0.3143299E+00
 -0.1500340E+01 -0.1523320E+02 -0.1027320E+00  0.2419091E+00 -0.1690405E+01  0.2886537E-01  0.2401807E+00
  0.1825330E-06 -0.1530690E+02 -0.1027320E+00  0.1767805E+00 -0.1807173E+01  0.4139872E-01  0.1718647E+00
  0.1500340E+01 -0.1523320E+02 -0.1027320E+00  0.9855869E-01 -0.2075400E+01  0.4764922E-01  0.8627496E-01
  0.2986230E+01 -0.1501280E+02 -0.1027320E+00  0.8099043E-01  0.2149173E+01  0.4427462E-01 -0.6781745E-01
  0.4443360E+01 -0.1464780E+02 -0.1027320E+00  0.1270992E+00  0.1993120E+01  0.5209554E-01 -0.1159322E+00
  0.5857700E+01 -0.1414170E+02 -0.1027320E+00  0.1534521E+00  0.1983853E+01  0.6159738E-01 -0.1405465E+00
  0.7215620E+01 -0.1349950E+02 -0.1027320E+00  0.1730184E+00  0.1996163E+01  0.7139679E-01 -0.1576003E+00
  0.8504060E+01 -0.1272720E+02 -0.1027320E+00  0.1895909E+00  0.2011372E+01  0.8085304E-01 -0.1714861E+00
  0.9710600E+01 -0.1183240E+02 -0.1027320E+00  0.2010561E+00  0.2035723E+01  0.9014505E-01 -0.1797149E+00
  0.1082360E+02 -0.1082360E+02 -0.1027320E+00  0.2123400E+00  0.2055467E+01  0.9893284E-01 -0.1878844E+00
  0.1183240E+02 -0.9710590E+01 -0.1027320E+00  0.2212794E+00  0.2077510E+01  0.1073883E+00 -0.1934744E+00
  0.1272720E+02 -0.8504060E+01 -0.1027320E+00  0.2293454E+00  0.2097605E+01  0.1153096E+00 -0.1982499E+00
