 VARIABLES="X" "Y" "Z" "abs(eta) (m)" "angle(phi) (rad)" "PRE1" "PRE2"
ZONE N=   3200 ,E =    3136 ,F=FEPOINT,ET=QUADRILATERAL
  0.1530690E+02  0.0000000E+00  0.0000000E+00  0.1065437E+00  0.2084063E+01  0.5231573E-01 -0.9281501E-01
  0.1523320E+02  0.1500340E+01  0.0000000E+00  0.1096238E+00  0.2090449E+01  0.5443684E-01 -0.9515259E-01
  0.1501280E+02  0.2986230E+01  0.0000000E+00  0.1124499E+00  0.2097047E+01  0.5648297E-01 -0.9723507E-01
  0.1464780E+02  0.4443360E+01  0.0000000E+00  0.1151548E+00  0.2103517E+01  0.5848465E-01 -0.9919760E-01
  0.1414170E+02  0.5857700E+01  0.0000000E+00  0.1182167E+00  0.2108087E+01  0.6050450E-01 -0.1015599E+00
  0.1349950E+02  0.7215620E+01  0.0000000E+00  0.1219712E+00  0.2110198E+01  0.6264716E-01 -0.1046533E+00
  0.1272720E+02  0.8504060E+01  0.0000000E+00  0.1253641E+00  0.2112728E+01  0.6466180E-01 -0.1074012E+00
  0.1183240E+02  0.9710600E+01  0.0000000E+00  0.1276286E+00  0.2116960E+01  0.6629197E-01 -0.1090616E+00
  0.1082360E+02  0.1082360E+02  0.0000000E+00  0.1301679E+00  0.2119680E+01  0.6791321E-01 -0.1110472E+00
  0.9710590E+01  0.1183240E+02  0.0000000E+00  0.1330108E+00  0.2121653E+01  0.6962011E-01 -0.1133354E+00
  0.8504060E+01  0.1272720E+02  0.0000000E+00  0.1347785E+00  0.2126806E+01  0.7113621E-01 -0.1144766E+00
  0.7215620E+01  0.1349950E+02  0.0000000E+00  0.1376392E+00  0.2131919E+01  0.7324291E-01 -0.1165334E+00
  0.5857700E+01  0.1414170E+02  0.0000000E+00  0.1409278E+00  0.2138760E+01  0.7580739E-01 -0.1188019E+00
  0.4443360E+01  0.1464780E+02  0.0000000E+00  0.1434379E+00  0.2151460E+01  0.7868708E-01 -0.1199282E+00
  0.2986230E+01  0.1501280E+02  0.0000000E+00  0.1480938E+00  0.2171764E+01  0.8373824E-01 -0.1221461E+00
  0.1500340E+01  0.1523320E+02  0.0000000E+00  0.1359348E+00  0.2240960E+01  0.8443101E-01 -0.1065349E+00
 -0.6690860E-06  0.1530690E+02  0.0000000E+00  0.1073370E+00  0.2332270E+01  0.7406133E-01 -0.7769272E-01
 -0.1500340E+01  0.1523320E+02  0.0000000E+00  0.6228162E-01  0.2634036E+01  0.5443006E-01 -0.3027157E-01
 -0.2986230E+01  0.1501280E+02  0.0000000E+00  0.7088696E-01 -0.1756644E+01  0.1309844E-01  0.6966629E-01
 -0.4443360E+01  0.1464780E+02  0.0000000E+00  0.1025022E+00 -0.1569329E+01 -0.1504564E-03  0.1025021E+00
 -0.5857700E+01  0.1414170E+02  0.0000000E+00  0.1203011E+00 -0.1508454E+01 -0.7495017E-02  0.1200674E+00
 -0.7215620E+01  0.1349950E+02  0.0000000E+00  0.1326315E+00 -0.1473426E+01 -0.1289398E-01  0.1320033E+00
 -0.8504060E+01  0.1272720E+02  0.0000000E+00  0.1416601E+00 -0.1450525E+01 -0.1699664E-01  0.1406368E+00
 -0.9710590E+01  0.1183240E+02  0.0000000E+00  0.1503173E+00 -0.1430780E+01 -0.2097820E-01  0.1488463E+00
 -0.1082360E+02  0.1082360E+02  0.0000000E+00  0.1560502E+00 -0.1417346E+01 -0.2385204E-01  0.1542165E+00
 -0.1183240E+02  0.9710590E+01  0.0000000E+00  0.1619577E+00 -0.1405458E+01 -0.2665601E-01  0.1597490E+00
 -0.1272720E+02  0.8504060E+01  0.0000000E+00  0.1674232E+00 -0.1395738E+01 -0.2915944E-01  0.1648644E+00
 -0.1349950E+02  0.7215620E+01  0.0000000E+00  0.1704218E+00 -0.1389826E+01 -0.3067326E-01  0.1676387E+00
 -0.1414170E+02  0.5857690E+01  0.0000000E+00  0.1724131E+00 -0.1385902E+01 -0.3169687E-01  0.1694744E+00
 -0.1464780E+02  0.4443360E+01  0.0000000E+00  0.1751290E+00 -0.1383200E+01 -0.3266117E-01  0.1720564E+00
 -0.1501280E+02  0.2986230E+01  0.0000000E+00  0.1786190E+00 -0.1381840E+01 -0.3355063E-01  0.1754397E+00
 -0.1523320E+02  0.1500340E+01  0.0000000E+00  0.1817816E+00 -0.1382651E+01 -0.3399994E-01  0.1785736E+00
 -0.1530690E+02 -0.1338170E-05  0.0000000E+00  0.1844620E+00 -0.1385784E+01 -0.3393348E-01  0.1813140E+00
 -0.1523320E+02 -0.1500340E+01  0.0000000E+00  0.1866925E+00 -0.1391181E+01 -0.3335283E-01  0.1836891E+00
 -0.1501280E+02 -0.2986230E+01  0.0000000E+00  0.1885752E+00 -0.1398930E+01 -0.3225037E-01  0.1857970E+00
 -0.1464780E+02 -0.4443360E+01  0.0000000E+00  0.1902530E+00 -0.1409162E+01 -0.3061763E-01  0.1877731E+00
 -0.1414170E+02 -0.5857700E+01  0.0000000E+00  0.1922719E+00 -0.1421824E+01 -0.2853746E-01  0.1901423E+00
 -0.1349950E+02 -0.7215620E+01  0.0000000E+00  0.1949629E+00 -0.1437401E+01 -0.2593015E-01  0.1932309E+00
 -0.1272720E+02 -0.8504060E+01  0.0000000E+00  0.1972756E+00 -0.1455186E+01 -0.2275627E-01  0.1959587E+00
 -0.1183240E+02 -0.9710600E+01  0.0000000E+00  0.1984987E+00 -0.1474633E+01 -0.1905880E-01  0.1975816E+00
 -0.1082360E+02 -0.1082360E+02  0.0000000E+00  0.2000699E+00 -0.1496590E+01 -0.1483282E-01  0.1995193E+00
 -0.9710600E+01 -0.1183240E+02  0.0000000E+00  0.2019934E+00 -0.1520866E+01 -0.1008143E-01  0.2017416E+00
 -0.8504050E+01 -0.1272720E+02  0.0000000E+00  0.2028297E+00 -0.1547910E+01 -0.4641694E-02  0.2027766E+00
 -0.7215620E+01 -0.1349950E+02  0.0000000E+00  0.2046946E+00 -0.1579242E+01  0.1728812E-02  0.2046873E+00
 -0.5857690E+01 -0.1414170E+02  0.0000000E+00  0.2069518E+00 -0.1615512E+01  0.9250984E-02  0.2067450E+00
 -0.4443360E+01 -0.1464780E+02  0.0000000E+00  0.2083707E+00 -0.1657870E+01  0.1812061E-01  0.2075813E+00
 -0.2986230E+01 -0.1501280E+02  0.0000000E+00  0.2115450E+00 -0.1716867E+01  0.3079070E-01  0.2092922E+00
 -0.1500340E+01 -0.1523320E+02  0.0000000E+00  0.1986045E+00 -0.1816700E+01  0.4834684E-01  0.1926300E+00
  0.1825330E-06 -0.1530690E+02  0.0000000E+00  0.1715294E+00 -0.1877690E+01  0.5181889E-01  0.1635149E+00
  0.1500340E+01 -0.1523320E+02  0.0000000E+00  0.1253437E+00 -0.1954116E+01  0.4687876E-01  0.1162472E+00
  0.2986230E+01 -0.1501280E+02  0.0000000E+00  0.3119434E-01 -0.2556540E+01  0.2600619E-01  0.1722686E-01
  0.4443360E+01 -0.1464780E+02  0.0000000E+00  0.2713146E-01  0.2548497E+01  0.2249780E-01 -0.1516460E-01
  0.5857700E+01 -0.1414170E+02  0.0000000E+00  0.3980394E-01  0.2186834E+01  0.2299894E-01 -0.3248696E-01
  0.7215620E+01 -0.1349950E+02  0.0000000E+00  0.5060798E-01  0.2077534E+01  0.2456143E-01 -0.4424821E-01
  0.8504060E+01 -0.1272720E+02  0.0000000E+00  0.5922167E-01  0.2042322E+01  0.2690121E-01 -0.5275917E-01
  0.9710600E+01 -0.1183240E+02  0.0000000E+00  0.6753165E-01  0.2018740E+01  0.2924886E-01 -0.6086894E-01
  0.1082360E+02 -0.1082360E+02  0.0000000E+00  0.7350504E-01  0.2021507E+01  0.3201919E-01 -0.6616466E-01
  0.1183240E+02 -0.9710590E+01  0.0000000E+00  0.7957280E-01  0.2021373E+01  0.3465273E-01 -0.7163113E-01
  0.1272720E+02 -0.8504060E+01  0.0000000E+00  0.8526501E-01  0.2023236E+01  0.3727453E-01 -0.7668593E-01
  0.1349950E+02 -0.7215620E+01  0.0000000E+00  0.8898479E-01  0.2038875E+01  0.4014746E-01 -0.7941331E-01
  0.1414170E+02 -0.5857700E+01  0.0000000E+00  0.9186941E-01  0.2057478E+01  0.4296693E-01 -0.8120241E-01
  0.1464780E+02 -0.4443350E+01  0.0000000E+00  0.9532051E-01  0.2069107E+01  0.4555766E-01 -0.8372872E-01
  0.1501280E+02 -0.2986230E+01  0.0000000E+00  0.9934540E-01  0.2073663E+01  0.4787844E-01 -0.8704690E-01
  0.1523320E+02 -0.1500330E+01  0.0000000E+00  0.1031224E+00  0.2078355E+01  0.5012216E-01 -0.9012216E-01
  0.1530690E+02  0.0000000E+00 -0.2568960E-01  0.1064570E+00  0.2084043E+01  0.5227125E-01 -0.9274050E-01
  0.1523320E+02  0.1500340E+01 -0.2568960E-01  0.1095342E+00  0.2090433E+01  0.5439080E-01 -0.9507567E-01
  0.1501280E+02  0.2986230E+01 -0.2568960E-01  0.1123590E+00  0.2097039E+01  0.5643655E-01 -0.9715688E-01
  0.1464780E+02  0.4443360E+01 -0.2568960E-01  0.1150613E+00  0.2103510E+01  0.5843649E-01 -0.9911750E-01
  0.1414170E+02  0.5857700E+01 -0.2568960E-01  0.1181172E+00  0.2108086E+01  0.6045347E-01 -0.1014744E+00
  0.1349950E+02  0.7215620E+01 -0.2568960E-01  0.1218611E+00  0.2110209E+01  0.6259181E-01 -0.1045580E+00
  0.1272720E+02  0.8504060E+01 -0.2568960E-01  0.1252476E+00  0.2112746E+01  0.6460360E-01 -0.1073002E+00
  0.1183240E+02  0.9710600E+01 -0.2568960E-01  0.1275161E+00  0.2116960E+01  0.6623348E-01 -0.1089655E+00
  0.1082360E+02  0.1082360E+02 -0.2568960E-01  0.1300547E+00  0.2119673E+01  0.6785332E-01 -0.1109511E+00
  0.9710590E+01  0.1183240E+02 -0.2568960E-01  0.1328924E+00  0.2121665E+01  0.6955959E-01 -0.1132336E+00
  0.8504060E+01  0.1272720E+02 -0.2568960E-01  0.1346684E+00  0.2126808E+01  0.7107843E-01 -0.1143829E+00
  0.7215620E+01  0.1349950E+02 -0.2568960E-01  0.1375267E+00  0.2131917E+01  0.7318275E-01 -0.1164383E+00
  0.5857700E+01  0.1414170E+02 -0.2568960E-01  0.1408062E+00  0.2138773E+01  0.7574350E-01 -0.1186984E+00
  0.4443360E+01  0.1464780E+02 -0.2568960E-01  0.1433299E+00  0.2151452E+01  0.7862677E-01 -0.1198386E+00
  0.2986230E+01  0.1501280E+02 -0.2568960E-01  0.1479883E+00  0.2171768E+01  0.8367909E-01 -0.1220588E+00
  0.1500340E+01  0.1523320E+02 -0.2568960E-01  0.1358676E+00  0.2240912E+01  0.8438420E-01 -0.1064862E+00
 -0.6690860E-06  0.1530690E+02 -0.2568960E-01  0.1072621E+00  0.2332245E+01  0.7400776E-01 -0.7764030E-01
 -0.1500340E+01  0.1523320E+02 -0.2568960E-01  0.6226261E-01  0.2633679E+01  0.5440266E-01 -0.3028172E-01
 -0.2986230E+01  0.1501280E+02 -0.2568960E-01  0.7082675E-01 -0.1756691E+01  0.1309060E-01  0.6960650E-01
 -0.4443360E+01  0.1464780E+02 -0.2568960E-01  0.1024213E+00 -0.1569326E+01 -0.1506333E-03  0.1024212E+00
 -0.5857700E+01  0.1414170E+02 -0.2568960E-01  0.1201989E+00 -0.1508458E+01 -0.7488121E-02  0.1199655E+00
 -0.7215620E+01  0.1349950E+02 -0.2568960E-01  0.1325204E+00 -0.1473435E+01 -0.1288203E-01  0.1318928E+00
 -0.8504060E+01  0.1272720E+02 -0.2568960E-01  0.1415447E+00 -0.1450523E+01 -0.1698307E-01  0.1405222E+00
 -0.9710590E+01  0.1183240E+02 -0.2568960E-01  0.1501803E+00 -0.1430803E+01 -0.2095566E-01  0.1487111E+00
 -0.1082360E+02  0.1082360E+02 -0.2568960E-01  0.1559159E+00 -0.1417351E+01 -0.2383071E-01  0.1540839E+00
 -0.1183240E+02  0.9710590E+01 -0.2568960E-01  0.1618136E+00 -0.1405470E+01 -0.2663035E-01  0.1596072E+00
 -0.1272720E+02  0.8504060E+01 -0.2568960E-01  0.1672639E+00 -0.1395756E+01 -0.2912862E-01  0.1647080E+00
 -0.1349950E+02  0.7215620E+01 -0.2568960E-01  0.1702655E+00 -0.1389832E+01 -0.3064416E-01  0.1674851E+00
 -0.1414170E+02  0.5857690E+01 -0.2568960E-01  0.1722659E+00 -0.1385904E+01 -0.3166948E-01  0.1693298E+00
 -0.1464780E+02  0.4443360E+01 -0.2568960E-01  0.1749836E+00 -0.1383208E+01 -0.3263275E-01  0.1719138E+00
 -0.1501280E+02  0.2986230E+01 -0.2568960E-01  0.1784689E+00 -0.1381850E+01 -0.3352081E-01  0.1752926E+00
 -0.1523320E+02  0.1500340E+01 -0.2568960E-01  0.1816266E+00 -0.1382663E+01 -0.3396886E-01  0.1784218E+00
 -0.1530690E+02 -0.1338170E-05 -0.2568960E-01  0.1843037E+00 -0.1385799E+01 -0.3390160E-01  0.1811589E+00
 -0.1523320E+02 -0.1500340E+01 -0.2568960E-01  0.1865318E+00 -0.1391202E+01 -0.3332028E-01  0.1835317E+00
 -0.1501280E+02 -0.2986230E+01 -0.2568960E-01  0.1884133E+00 -0.1398947E+01 -0.3221956E-01  0.1856380E+00
 -0.1464780E+02 -0.4443360E+01 -0.2568960E-01  0.1900896E+00 -0.1409181E+01 -0.3058784E-01  0.1876125E+00
 -0.1414170E+02 -0.5857700E+01 -0.2568960E-01  0.1921041E+00 -0.1421842E+01 -0.2850894E-01  0.1899769E+00
 -0.1349950E+02 -0.7215620E+01 -0.2568960E-01  0.1947853E+00 -0.1437413E+01 -0.2590412E-01  0.1930551E+00
 -0.1272720E+02 -0.8504060E+01 -0.2568960E-01  0.1970926E+00 -0.1455193E+01 -0.2273385E-01  0.1957771E+00
 -0.1183240E+02 -0.9710600E+01 -0.2568960E-01  0.1983207E+00 -0.1474647E+01 -0.1903903E-01  0.1974047E+00
 -0.1082360E+02 -0.1082360E+02 -0.2568960E-01  0.1998924E+00 -0.1496603E+01 -0.1481703E-01  0.1993425E+00
 -0.9710600E+01 -0.1183240E+02 -0.2568960E-01  0.2018107E+00 -0.1520881E+01 -0.1006932E-01  0.2015594E+00
 -0.8504050E+01 -0.1272720E+02 -0.2568960E-01  0.2026560E+00 -0.1547929E+01 -0.4633845E-02  0.2026031E+00
 -0.7215620E+01 -0.1349950E+02 -0.2568960E-01  0.2045192E+00 -0.1579264E+01  0.1731823E-02  0.2045119E+00
 -0.5857690E+01 -0.1414170E+02 -0.2568960E-01  0.2067689E+00 -0.1615532E+01  0.9246916E-02  0.2065620E+00
 -0.4443360E+01 -0.1464780E+02 -0.2568960E-01  0.2082007E+00 -0.1657901E+01  0.1811240E-01  0.2074114E+00
 -0.2986230E+01 -0.1501280E+02 -0.2568960E-01  0.2113777E+00 -0.1716910E+01  0.3077549E-01  0.2091253E+00
 -0.1500340E+01 -0.1523320E+02 -0.2568960E-01  0.1984757E+00 -0.1816769E+01  0.4832877E-01  0.1925018E+00
  0.1825330E-06 -0.1530690E+02 -0.2568960E-01  0.1713942E+00 -0.1877729E+01  0.5178441E-01  0.1633840E+00
  0.1500340E+01 -0.1523320E+02 -0.2568960E-01  0.1252721E+00 -0.1954172E+01  0.4685841E-01  0.1161783E+00
  0.2986230E+01 -0.1501280E+02 -0.2568960E-01  0.3117026E-01 -0.2556769E+01  0.2599005E-01  0.1720762E-01
  0.4443360E+01 -0.1464780E+02 -0.2568960E-01  0.2711661E-01  0.2548181E+01  0.2248069E-01 -0.1516342E-01
  0.5857700E+01 -0.1414170E+02 -0.2568960E-01  0.3977600E-01  0.2186788E+01  0.2298131E-01 -0.3246520E-01
  0.7215620E+01 -0.1349950E+02 -0.2568960E-01  0.5057200E-01  0.2077491E+01  0.2454208E-01 -0.4421780E-01
  0.8504060E+01 -0.1272720E+02 -0.2568960E-01  0.5918048E-01  0.2042222E+01  0.2687722E-01 -0.5272517E-01
  0.9710600E+01 -0.1183240E+02 -0.2568960E-01  0.6747217E-01  0.2018800E+01  0.2922673E-01 -0.6081359E-01
  0.1082360E+02 -0.1082360E+02 -0.2568960E-01  0.7344537E-01  0.2021478E+01  0.3199129E-01 -0.6611188E-01
  0.1183240E+02 -0.9710590E+01 -0.2568960E-01  0.7950395E-01  0.2021366E+01  0.3462227E-01 -0.7156938E-01
  0.1272720E+02 -0.8504060E+01 -0.2568960E-01  0.8518248E-01  0.2023278E+01  0.3724171E-01 -0.7661012E-01
  0.1349950E+02 -0.7215620E+01 -0.2568960E-01  0.8890416E-01  0.2038905E+01  0.4011348E-01 -0.7934014E-01
  0.1414170E+02 -0.5857700E+01 -0.2568960E-01  0.9179465E-01  0.2057432E+01  0.4292820E-01 -0.8113832E-01
  0.1464780E+02 -0.4443350E+01 -0.2568960E-01  0.9524633E-01  0.2069042E+01  0.4551679E-01 -0.8366651E-01
  0.1501280E+02 -0.2986230E+01 -0.2568960E-01  0.9926660E-01  0.2073618E+01  0.4783654E-01 -0.8698002E-01
  0.1523320E+02 -0.1500330E+01 -0.2568960E-01  0.1030389E+00  0.2078325E+01  0.5007888E-01 -0.9005070E-01
  0.1530690E+02  0.0000000E+00 -0.1027320E+00  0.1062058E+00  0.2083937E+01  0.5213809E-01 -0.9252726E-01
  0.1523320E+02  0.1500340E+01 -0.1027320E+00  0.1092755E+00  0.2090340E+01  0.5425359E-01 -0.9485614E-01
  0.1501280E+02  0.2986230E+01 -0.1027320E+00  0.1120940E+00  0.2096949E+01  0.5629468E-01 -0.9693278E-01
  0.1464780E+02  0.4443360E+01 -0.1027320E+00  0.1147895E+00  0.2103416E+01  0.5828917E-01 -0.9888884E-01
  0.1414170E+02  0.5857700E+01 -0.1027320E+00  0.1178290E+00  0.2108020E+01  0.6029927E-01 -0.1012308E+00
  0.1349950E+02  0.7215620E+01 -0.1027320E+00  0.1215402E+00  0.2110201E+01  0.6242615E-01 -0.1042832E+00
  0.1272720E+02  0.8504060E+01 -0.1027320E+00  0.1249069E+00  0.2112758E+01  0.6442919E-01 -0.1070075E+00
  0.1183240E+02  0.9710600E+01 -0.1027320E+00  0.1271870E+00  0.2116940E+01  0.6606036E-01 -0.1086856E+00
  0.1082360E+02  0.1082360E+02 -0.1027320E+00  0.1297234E+00  0.2119655E+01  0.6767848E-01 -0.1106698E+00
  0.9710590E+01  0.1183240E+02 -0.1027320E+00  0.1325425E+00  0.2121677E+01  0.6937779E-01 -0.1129347E+00
  0.8504060E+01  0.1272720E+02 -0.1027320E+00  0.1343424E+00  0.2126768E+01  0.7090178E-01 -0.1141088E+00
  0.7215620E+01  0.1349950E+02 -0.1027320E+00  0.1371833E+00  0.2131912E+01  0.7299944E-01 -0.1161479E+00
  0.5857700E+01  0.1414170E+02 -0.1027320E+00  0.1404490E+00  0.2138797E+01  0.7555419E-01 -0.1183954E+00
  0.4443360E+01  0.1464780E+02 -0.1027320E+00  0.1430072E+00  0.2151415E+01  0.7844529E-01 -0.1195717E+00
  0.2986230E+01  0.1501280E+02 -0.1027320E+00  0.1476552E+00  0.2171756E+01  0.8348931E-01 -0.1217850E+00
  0.1500340E+01  0.1523320E+02 -0.1027320E+00  0.1356077E+00  0.2240768E+01  0.8420745E-01 -0.1062947E+00
 -0.6690860E-06  0.1530690E+02 -0.1027320E+00  0.1070294E+00  0.2332187E+01  0.7384265E-01 -0.7747614E-01
 -0.1500340E+01  0.1523320E+02 -0.1027320E+00  0.6208396E-01  0.2634135E+01  0.5426031E-01 -0.3017013E-01
 -0.2986230E+01  0.1501280E+02 -0.1027320E+00  0.7063749E-01 -0.1756892E+01  0.1306959E-01  0.6941788E-01
 -0.4443360E+01  0.1464780E+02 -0.1027320E+00  0.1021833E+00 -0.1569304E+01 -0.1525336E-03  0.1021832E+00
 -0.5857700E+01  0.1414170E+02 -0.1027320E+00  0.1198937E+00 -0.1508493E+01 -0.7464895E-02  0.1196611E+00
 -0.7215620E+01  0.1349950E+02 -0.1027320E+00  0.1321734E+00 -0.1473496E+01 -0.1284024E-01  0.1315482E+00
 -0.8504060E+01  0.1272720E+02 -0.1027320E+00  0.1412008E+00 -0.1450516E+01 -0.1694283E-01  0.1401806E+00
 -0.9710590E+01  0.1183240E+02 -0.1027320E+00  0.1497734E+00 -0.1430853E+01 -0.2089140E-01  0.1483092E+00
 -0.1082360E+02  0.1082360E+02 -0.1027320E+00  0.1555193E+00 -0.1417365E+01 -0.2376809E-01  0.1536923E+00
 -0.1183240E+02  0.9710590E+01 -0.1027320E+00  0.1613886E+00 -0.1405495E+01 -0.2655646E-01  0.1591887E+00
 -0.1272720E+02  0.8504060E+01 -0.1027320E+00  0.1667947E+00 -0.1395805E+01 -0.2903884E-01  0.1642475E+00
 -0.1349950E+02  0.7215620E+01 -0.1027320E+00  0.1698057E+00 -0.1389865E+01 -0.3055586E-01  0.1670339E+00
 -0.1414170E+02  0.5857690E+01 -0.1027320E+00  0.1718354E+00 -0.1385915E+01 -0.3158851E-01  0.1689070E+00
 -0.1464780E+02  0.4443360E+01 -0.1027320E+00  0.1745601E+00 -0.1383220E+01 -0.3255170E-01  0.1714981E+00
 -0.1501280E+02  0.2986230E+01 -0.1027320E+00  0.1780306E+00 -0.1381875E+01 -0.3343410E-01  0.1748629E+00
 -0.1523320E+02  0.1500340E+01 -0.1027320E+00  0.1811737E+00 -0.1382703E+01 -0.3387694E-01  0.1779782E+00
 -0.1530690E+02 -0.1338170E-05 -0.1027320E+00  0.1838405E+00 -0.1385846E+01 -0.3380777E-01  0.1807052E+00
 -0.1523320E+02 -0.1500340E+01 -0.1027320E+00  0.1860622E+00 -0.1391257E+01 -0.3322627E-01  0.1830715E+00
 -0.1501280E+02 -0.2986230E+01 -0.1027320E+00  0.1879398E+00 -0.1399007E+01 -0.3212753E-01  0.1851734E+00
 -0.1464780E+02 -0.4443360E+01 -0.1027320E+00  0.1896123E+00 -0.1409238E+01 -0.3050039E-01  0.1871431E+00
 -0.1414170E+02 -0.5857700E+01 -0.1027320E+00  0.1916129E+00 -0.1421893E+01 -0.2842652E-01  0.1894926E+00
 -0.1349950E+02 -0.7215620E+01 -0.1027320E+00  0.1942644E+00 -0.1437443E+01 -0.2582914E-01  0.1925396E+00
 -0.1272720E+02 -0.8504060E+01 -0.1027320E+00  0.1965550E+00 -0.1455215E+01 -0.2266749E-01  0.1952436E+00
 -0.1183240E+02 -0.9710600E+01 -0.1027320E+00  0.1977974E+00 -0.1474679E+01 -0.1898240E-01  0.1968845E+00
 -0.1082360E+02 -0.1082360E+02 -0.1027320E+00  0.1993692E+00 -0.1496637E+01 -0.1477160E-01  0.1988213E+00
 -0.9710600E+01 -0.1183240E+02 -0.1027320E+00  0.2012711E+00 -0.1520921E+01 -0.1003432E-01  0.2010208E+00
 -0.8504050E+01 -0.1272720E+02 -0.1027320E+00  0.2021407E+00 -0.1547992E+01 -0.4609336E-02  0.2020881E+00
 -0.7215620E+01 -0.1349950E+02 -0.1027320E+00  0.2039890E+00 -0.1579327E+01  0.1740115E-02  0.2039816E+00
 -0.5857690E+01 -0.1414170E+02 -0.1027320E+00  0.2062268E+00 -0.1615587E+01  0.9234012E-02  0.2060200E+00
 -0.4443360E+01 -0.1464780E+02 -0.1027320E+00  0.2076946E+00 -0.1657988E+01  0.1808637E-01  0.2069057E+00
 -0.2986230E+01 -0.1501280E+02 -0.1027320E+00  0.2108635E+00 -0.1717013E+01  0.3072205E-01  0.2086134E+00
 -0.1500340E+01 -0.1523320E+02 -0.1027320E+00  0.1980388E+00 -0.1816840E+01  0.4823607E-01  0.1920746E+00
  0.1825330E-06 -0.1530690E+02 -0.1027320E+00  0.1709815E+00 -0.1877843E+01  0.5167819E-01  0.1629848E+00
  0.1500340E+01 -0.1523320E+02 -0.1027320E+00  0.1249106E+00 -0.1954414E+01  0.4675126E-01  0.1158317E+00
  0.2986230E+01 -0.1501280E+02 -0.1027320E+00  0.3110150E-01 -0.2557204E+01  0.2594020E-01  0.1715836E-01
  0.4443360E+01 -0.1464780E+02 -0.1027320E+00  0.2707278E-01  0.2547088E+01  0.2242780E-01 -0.1516342E-01
  0.5857700E+01 -0.1414170E+02 -0.1027320E+00  0.3969040E-01  0.2186627E+01  0.2292663E-01 -0.3239904E-01
  0.7215620E+01 -0.1349950E+02 -0.1027320E+00  0.5045307E-01  0.2077540E+01  0.2448653E-01 -0.4411261E-01
  0.8504060E+01 -0.1272720E+02 -0.1027320E+00  0.5905707E-01  0.2041958E+01  0.2680730E-01 -0.5262229E-01
  0.9710600E+01 -0.1183240E+02 -0.1027320E+00  0.6729478E-01  0.2018890E+01  0.2915535E-01 -0.6065108E-01
  0.1082360E+02 -0.1082360E+02 -0.1027320E+00  0.7327146E-01  0.2021336E+01  0.3190614E-01 -0.6595988E-01
  0.1183240E+02 -0.9710590E+01 -0.1027320E+00  0.7930367E-01  0.2021328E+01  0.3453230E-01 -0.7139043E-01
  0.1272720E+02 -0.8504060E+01 -0.1027320E+00  0.8494289E-01  0.2023427E+01  0.3714831E-01 -0.7638912E-01
