 VARIABLES="X" "Y" "Z" "abs(eta) (m)" "angle(phi) (rad)" "PRE1" "PRE2"
ZONE N=   3200 ,E =    3136 ,F=FEPOINT,ET=QUADRILATERAL
  0.1530690E+02  0.0000000E+00  0.0000000E+00  0.4401268E-01 -0.1722676E+01  0.6658941E-02  0.4350603E-01
  0.1523320E+02  0.1500340E+01  0.0000000E+00  0.4140263E-01 -0.1760360E+01  0.7801522E-02  0.4066097E-01
  0.1501280E+02  0.2986230E+01  0.0000000E+00  0.3884773E-01 -0.1809930E+01  0.9201526E-02  0.3774225E-01
  0.1464780E+02  0.4443360E+01  0.0000000E+00  0.3640113E-01 -0.1872863E+01  0.1082912E-01  0.3475302E-01
  0.1414170E+02  0.5857700E+01  0.0000000E+00  0.3432979E-01 -0.1943052E+01  0.1248633E-01  0.3197852E-01
  0.1349950E+02  0.7215620E+01  0.0000000E+00  0.3249799E-01 -0.2024461E+01  0.1424264E-01  0.2921073E-01
  0.1272720E+02  0.8504060E+01  0.0000000E+00  0.3075057E-01 -0.2126530E+01  0.1622297E-01  0.2612303E-01
  0.1183240E+02  0.9710600E+01  0.0000000E+00  0.2907369E-01 -0.2264253E+01  0.1858388E-01  0.2235886E-01
  0.1082360E+02  0.1082360E+02  0.0000000E+00  0.2785785E-01 -0.2430262E+01  0.2110216E-01  0.1818678E-01
  0.9710590E+01  0.1183240E+02  0.0000000E+00  0.2747738E-01 -0.2610110E+01  0.2368706E-01  0.1392586E-01
  0.8504060E+01  0.1272720E+02  0.0000000E+00  0.2824121E-01 -0.2826694E+01  0.2685253E-01  0.8746867E-02
  0.7215620E+01  0.1349950E+02  0.0000000E+00  0.3059807E-01 -0.3048765E+01  0.3046633E-01  0.2836264E-02
  0.5857700E+01  0.1414170E+02  0.0000000E+00  0.3555376E-01  0.3001043E+01  0.3520317E-01 -0.4980640E-02
  0.4443360E+01  0.1464780E+02  0.0000000E+00  0.4409596E-01  0.2788743E+01  0.4137928E-01 -0.1523840E-01
  0.2986230E+01  0.1501280E+02  0.0000000E+00  0.6299248E-01  0.2565429E+01  0.5282290E-01 -0.3431899E-01
  0.1500340E+01  0.1523320E+02  0.0000000E+00  0.1130551E+00  0.2358826E+01  0.8015215E-01 -0.7973139E-01
 -0.6690860E-06  0.1530690E+02  0.0000000E+00  0.1244079E+00  0.2335986E+01  0.8617415E-01 -0.8972932E-01
 -0.1500340E+01  0.1523320E+02  0.0000000E+00  0.1130551E+00  0.2358825E+01  0.8015205E-01 -0.7973152E-01
 -0.2986230E+01  0.1501280E+02  0.0000000E+00  0.6299263E-01  0.2565429E+01  0.5282303E-01 -0.3431909E-01
 -0.4443360E+01  0.1464780E+02  0.0000000E+00  0.4409607E-01  0.2788741E+01  0.4137936E-01 -0.1523851E-01
 -0.5857700E+01  0.1414170E+02  0.0000000E+00  0.3555376E-01  0.3001041E+01  0.3520316E-01 -0.4980707E-02
 -0.7215620E+01  0.1349950E+02  0.0000000E+00  0.3059803E-01 -0.3048768E+01  0.3046630E-01  0.2836166E-02
 -0.8504060E+01  0.1272720E+02  0.0000000E+00  0.2824126E-01 -0.2826697E+01  0.2685260E-01  0.8746804E-02
 -0.9710590E+01  0.1183240E+02  0.0000000E+00  0.2747747E-01 -0.2610114E+01  0.2368718E-01  0.1392583E-01
 -0.1082360E+02  0.1082360E+02  0.0000000E+00  0.2785788E-01 -0.2430267E+01  0.2110227E-01  0.1818669E-01
 -0.1183240E+02  0.9710590E+01  0.0000000E+00  0.2907360E-01 -0.2264251E+01  0.1858378E-01  0.2235883E-01
 -0.1272720E+02  0.8504060E+01  0.0000000E+00  0.3075054E-01 -0.2126529E+01  0.1622293E-01  0.2612302E-01
 -0.1349950E+02  0.7215620E+01  0.0000000E+00  0.3249799E-01 -0.2024462E+01  0.1424268E-01  0.2921070E-01
 -0.1414170E+02  0.5857690E+01  0.0000000E+00  0.3432976E-01 -0.1943052E+01  0.1248633E-01  0.3197849E-01
 -0.1464780E+02  0.4443360E+01  0.0000000E+00  0.3640109E-01 -0.1872865E+01  0.1082918E-01  0.3475296E-01
 -0.1501280E+02  0.2986230E+01  0.0000000E+00  0.3884774E-01 -0.1809931E+01  0.9201569E-02  0.3774225E-01
 -0.1523320E+02  0.1500340E+01  0.0000000E+00  0.4140262E-01 -0.1760361E+01  0.7801566E-02  0.4066095E-01
 -0.1530690E+02 -0.1338170E-05  0.0000000E+00  0.4401265E-01 -0.1722677E+01  0.6659007E-02  0.4350599E-01
 -0.1523320E+02 -0.1500340E+01  0.0000000E+00  0.4670442E-01 -0.1694717E+01  0.5772851E-02  0.4634628E-01
 -0.1501280E+02 -0.2986230E+01  0.0000000E+00  0.4951949E-01 -0.1675194E+01  0.5160328E-02  0.4924989E-01
 -0.1464780E+02 -0.4443360E+01  0.0000000E+00  0.5243633E-01 -0.1662610E+01  0.4807623E-02  0.5221547E-01
 -0.1414170E+02 -0.5857700E+01  0.0000000E+00  0.5515729E-01 -0.1653060E+01  0.4532339E-02  0.5497076E-01
 -0.1349950E+02 -0.7215620E+01  0.0000000E+00  0.5788853E-01 -0.1647229E+01  0.4420296E-02  0.5771952E-01
 -0.1272720E+02 -0.8504060E+01  0.0000000E+00  0.6095714E-01 -0.1646564E+01  0.4614194E-02  0.6078226E-01
 -0.1183240E+02 -0.9710600E+01  0.0000000E+00  0.6472417E-01 -0.1652525E+01  0.5283932E-02  0.6450813E-01
 -0.1082360E+02 -0.1082360E+02  0.0000000E+00  0.6892011E-01 -0.1661392E+01  0.6235344E-02  0.6863747E-01
 -0.9710600E+01 -0.1183240E+02  0.0000000E+00  0.7321553E-01 -0.1671787E+01  0.7381528E-02  0.7284248E-01
 -0.8504050E+01 -0.1272720E+02  0.0000000E+00  0.7847528E-01 -0.1688498E+01  0.9215371E-02  0.7793232E-01
 -0.7215620E+01 -0.1349950E+02  0.0000000E+00  0.8452496E-01 -0.1708758E+01  0.1162426E-01  0.8372183E-01
 -0.5857690E+01 -0.1414170E+02  0.0000000E+00  0.9262377E-01 -0.1736220E+01  0.1525241E-01  0.9135932E-01
 -0.4443360E+01 -0.1464780E+02  0.0000000E+00  0.1033965E+00 -0.1769423E+01  0.2040256E-01  0.1013635E+00
 -0.2986230E+01 -0.1501280E+02  0.0000000E+00  0.1238437E+00 -0.1821059E+01  0.3067090E-01  0.1199856E+00
 -0.1500340E+01 -0.1523320E+02  0.0000000E+00  0.1737207E+00 -0.1899080E+01  0.5601087E-01  0.1644435E+00
  0.1825330E-06 -0.1530690E+02  0.0000000E+00  0.1847913E+00 -0.1910434E+01  0.6156235E-01  0.1742352E+00
  0.1500340E+01 -0.1523320E+02  0.0000000E+00  0.1737208E+00 -0.1899080E+01  0.5601083E-01  0.1644436E+00
  0.2986230E+01 -0.1501280E+02  0.0000000E+00  0.1238436E+00 -0.1821059E+01  0.3067091E-01  0.1199855E+00
  0.4443360E+01 -0.1464780E+02  0.0000000E+00  0.1033965E+00 -0.1769423E+01  0.2040249E-01  0.1013635E+00
  0.5857700E+01 -0.1414170E+02  0.0000000E+00  0.9262365E-01 -0.1736220E+01  0.1525232E-01  0.9135922E-01
  0.7215620E+01 -0.1349950E+02  0.0000000E+00  0.8452502E-01 -0.1708758E+01  0.1162422E-01  0.8372190E-01
  0.8504060E+01 -0.1272720E+02  0.0000000E+00  0.7847527E-01 -0.1688498E+01  0.9215350E-02  0.7793231E-01
  0.9710600E+01 -0.1183240E+02  0.0000000E+00  0.7321551E-01 -0.1671787E+01  0.7381488E-02  0.7284247E-01
  0.1082360E+02 -0.1082360E+02  0.0000000E+00  0.6892011E-01 -0.1661392E+01  0.6235301E-02  0.6863748E-01
  0.1183240E+02 -0.9710590E+01  0.0000000E+00  0.6472413E-01 -0.1652525E+01  0.5283956E-02  0.6450809E-01
  0.1272720E+02 -0.8504060E+01  0.0000000E+00  0.6095709E-01 -0.1646563E+01  0.4614125E-02  0.6078220E-01
  0.1349950E+02 -0.7215620E+01  0.0000000E+00  0.5788849E-01 -0.1647229E+01  0.4420260E-02  0.5771948E-01
  0.1414170E+02 -0.5857700E+01  0.0000000E+00  0.5515733E-01 -0.1653058E+01  0.4532206E-02  0.5497081E-01
  0.1464780E+02 -0.4443350E+01  0.0000000E+00  0.5243633E-01 -0.1662609E+01  0.4807570E-02  0.5221548E-01
  0.1501280E+02 -0.2986230E+01  0.0000000E+00  0.4951953E-01 -0.1675193E+01  0.5160299E-02  0.4924992E-01
  0.1523320E+02 -0.1500330E+01  0.0000000E+00  0.4670440E-01 -0.1694717E+01  0.5772838E-02  0.4634626E-01
  0.1530690E+02  0.0000000E+00 -0.2568960E-01  0.4397305E-01 -0.1722733E+01  0.6655427E-02  0.4346647E-01
  0.1523320E+02  0.1500340E+01 -0.2568960E-01  0.4136603E-01 -0.1760412E+01  0.7796718E-02  0.4062461E-01
  0.1501280E+02  0.2986230E+01 -0.2568960E-01  0.3881424E-01 -0.1809968E+01  0.9195024E-02  0.3770937E-01
  0.1464780E+02  0.4443360E+01 -0.2568960E-01  0.3637051E-01 -0.1872876E+01  0.1082047E-01  0.3472364E-01
  0.1414170E+02  0.5857700E+01 -0.2568960E-01  0.3430021E-01 -0.1943072E+01  0.1247623E-01  0.3195071E-01
  0.1349950E+02  0.7215620E+01 -0.2568960E-01  0.3246884E-01 -0.2024523E+01  0.1423170E-01  0.2918363E-01
  0.1272720E+02  0.8504060E+01 -0.2568960E-01  0.3072263E-01 -0.2126622E+01  0.1621065E-01  0.2609779E-01
  0.1183240E+02  0.9710600E+01 -0.2568960E-01  0.2904828E-01 -0.2264278E+01  0.1856819E-01  0.2233886E-01
  0.1082360E+02  0.1082360E+02 -0.2568960E-01  0.2783453E-01 -0.2430241E+01  0.2108410E-01  0.1817201E-01
  0.9710590E+01  0.1183240E+02 -0.2568960E-01  0.2745461E-01 -0.2610181E+01  0.2366841E-01  0.1391265E-01
  0.8504060E+01  0.1272720E+02 -0.2568960E-01  0.2821810E-01 -0.2826671E+01  0.2683035E-01  0.8740338E-02
  0.7215620E+01  0.1349950E+02 -0.2568960E-01  0.3057374E-01 -0.3048794E+01  0.3044219E-01  0.2833131E-02
  0.5857700E+01  0.1414170E+02 -0.2568960E-01  0.3552419E-01  0.3001086E+01  0.3517410E-01 -0.4974968E-02
  0.4443360E+01  0.1464780E+02 -0.2568960E-01  0.4406311E-01  0.2788713E+01  0.4134800E-01 -0.1522830E-01
  0.2986230E+01  0.1501280E+02 -0.2568960E-01  0.6295054E-01  0.2565376E+01  0.5278591E-01 -0.3429896E-01
  0.1500340E+01  0.1523320E+02 -0.2568960E-01  0.1130079E+00  0.2358740E+01  0.8011183E-01 -0.7970501E-01
 -0.6690860E-06  0.1530690E+02 -0.2568960E-01  0.1243203E+00  0.2335971E+01  0.8611210E-01 -0.8966743E-01
 -0.1500340E+01  0.1523320E+02 -0.2568960E-01  0.1130079E+00  0.2358739E+01  0.8011174E-01 -0.7970506E-01
 -0.2986230E+01  0.1501280E+02 -0.2568960E-01  0.6295075E-01  0.2565376E+01  0.5278608E-01 -0.3429908E-01
 -0.4443360E+01  0.1464780E+02 -0.2568960E-01  0.4406328E-01  0.2788711E+01  0.4134812E-01 -0.1522844E-01
 -0.5857700E+01  0.1414170E+02 -0.2568960E-01  0.3552424E-01  0.3001084E+01  0.3517415E-01 -0.4975065E-02
 -0.7215620E+01  0.1349950E+02 -0.2568960E-01  0.3057389E-01 -0.3048797E+01  0.3044234E-01  0.2833050E-02
 -0.8504060E+01  0.1272720E+02 -0.2568960E-01  0.2821807E-01 -0.2826674E+01  0.2683035E-01  0.8740228E-02
 -0.9710590E+01  0.1183240E+02 -0.2568960E-01  0.2745467E-01 -0.2610185E+01  0.2366853E-01  0.1391257E-01
 -0.1082360E+02  0.1082360E+02 -0.2568960E-01  0.2783444E-01 -0.2430243E+01  0.2108407E-01  0.1817191E-01
 -0.1183240E+02  0.9710590E+01 -0.2568960E-01  0.2904836E-01 -0.2264279E+01  0.1856828E-01  0.2233890E-01
 -0.1272720E+02  0.8504060E+01 -0.2568960E-01  0.3072255E-01 -0.2126622E+01  0.1621060E-01  0.2609773E-01
 -0.1349950E+02  0.7215620E+01 -0.2568960E-01  0.3246885E-01 -0.2024525E+01  0.1423174E-01  0.2918362E-01
 -0.1414170E+02  0.5857690E+01 -0.2568960E-01  0.3430030E-01 -0.1943075E+01  0.1247636E-01  0.3195076E-01
 -0.1464780E+02  0.4443360E+01 -0.2568960E-01  0.3637052E-01 -0.1872877E+01  0.1082050E-01  0.3472364E-01
 -0.1501280E+02  0.2986230E+01 -0.2568960E-01  0.3881425E-01 -0.1809971E+01  0.9195115E-02  0.3770936E-01
 -0.1523320E+02  0.1500340E+01 -0.2568960E-01  0.4136602E-01 -0.1760413E+01  0.7796779E-02  0.4062460E-01
 -0.1530690E+02 -0.1338170E-05 -0.2568960E-01  0.4397307E-01 -0.1722733E+01  0.6655425E-02  0.4346649E-01
 -0.1523320E+02 -0.1500340E+01 -0.2568960E-01  0.4666173E-01 -0.1694770E+01  0.5770011E-02  0.4630361E-01
 -0.1501280E+02 -0.2986230E+01 -0.2568960E-01  0.4947344E-01 -0.1675236E+01  0.5157576E-02  0.4920387E-01
 -0.1464780E+02 -0.4443360E+01 -0.2568960E-01  0.5238665E-01 -0.1662637E+01  0.4804479E-02  0.5216587E-01
 -0.1414170E+02 -0.5857700E+01 -0.2568960E-01  0.5510605E-01 -0.1653087E+01  0.4529625E-02  0.5491957E-01
 -0.1349950E+02 -0.7215620E+01 -0.2568960E-01  0.5783661E-01 -0.1647265E+01  0.4418371E-02  0.5766759E-01
 -0.1272720E+02 -0.8504060E+01 -0.2568960E-01  0.6090350E-01 -0.1646603E+01  0.4612462E-02  0.6072859E-01
 -0.1183240E+02 -0.9710600E+01 -0.2568960E-01  0.6466519E-01 -0.1652549E+01  0.5280661E-02  0.6444921E-01
 -0.1082360E+02 -0.1082360E+02 -0.2568960E-01  0.6885586E-01 -0.1661412E+01  0.6230873E-02  0.6857336E-01
 -0.9710600E+01 -0.1183240E+02 -0.2568960E-01  0.7314979E-01 -0.1671828E+01  0.7377862E-02  0.7277678E-01
 -0.8504050E+01 -0.1272720E+02 -0.2568960E-01  0.7840280E-01 -0.1688531E+01  0.9209438E-02  0.7786004E-01
 -0.7215620E+01 -0.1349950E+02 -0.2568960E-01  0.8444905E-01 -0.1708803E+01  0.1161760E-01  0.8364612E-01
 -0.5857690E+01 -0.1414170E+02 -0.2568960E-01  0.9253882E-01 -0.1736258E+01  0.1524186E-01  0.9127496E-01
 -0.4443360E+01 -0.1464780E+02 -0.2568960E-01  0.1033073E+00 -0.1769478E+01  0.2039050E-01  0.1012750E+00
 -0.2986230E+01 -0.1501280E+02 -0.2568960E-01  0.1237442E+00 -0.1821123E+01  0.3065393E-01  0.1198873E+00
 -0.1500340E+01 -0.1523320E+02 -0.2568960E-01  0.1736156E+00 -0.1899165E+01  0.5599094E-01  0.1643393E+00
  0.1825330E-06 -0.1530690E+02 -0.2568960E-01  0.1846466E+00 -0.1910481E+01  0.6152240E-01  0.1740958E+00
  0.1500340E+01 -0.1523320E+02 -0.2568960E-01  0.1736156E+00 -0.1899165E+01  0.5599089E-01  0.1643392E+00
  0.2986230E+01 -0.1501280E+02 -0.2568960E-01  0.1237441E+00 -0.1821123E+01  0.3065391E-01  0.1198872E+00
  0.4443360E+01 -0.1464780E+02 -0.2568960E-01  0.1033073E+00 -0.1769477E+01  0.2039044E-01  0.1012750E+00
  0.5857700E+01 -0.1414170E+02 -0.2568960E-01  0.9253884E-01 -0.1736257E+01  0.1524179E-01  0.9127500E-01
  0.7215620E+01 -0.1349950E+02 -0.2568960E-01  0.8444904E-01 -0.1708802E+01  0.1161750E-01  0.8364612E-01
  0.8504060E+01 -0.1272720E+02 -0.2568960E-01  0.7840276E-01 -0.1688531E+01  0.9209382E-02  0.7786000E-01
  0.9710600E+01 -0.1183240E+02 -0.2568960E-01  0.7314982E-01 -0.1671827E+01  0.7377797E-02  0.7277682E-01
  0.1082360E+02 -0.1082360E+02 -0.2568960E-01  0.6885581E-01 -0.1661410E+01  0.6230774E-02  0.6857332E-01
  0.1183240E+02 -0.9710590E+01 -0.2568960E-01  0.6466513E-01 -0.1652549E+01  0.5280640E-02  0.6444916E-01
  0.1272720E+02 -0.8504060E+01 -0.2568960E-01  0.6090344E-01 -0.1646603E+01  0.4612444E-02  0.6072854E-01
  0.1349950E+02 -0.7215620E+01 -0.2568960E-01  0.5783660E-01 -0.1647264E+01  0.4418319E-02  0.5766759E-01
  0.1414170E+02 -0.5857700E+01 -0.2568960E-01  0.5510608E-01 -0.1653088E+01  0.4529631E-02  0.5491960E-01
  0.1464780E+02 -0.4443350E+01 -0.2568960E-01  0.5238668E-01 -0.1662638E+01  0.4804512E-02  0.5216589E-01
  0.1501280E+02 -0.2986230E+01 -0.2568960E-01  0.4947345E-01 -0.1675234E+01  0.5157526E-02  0.4920388E-01
  0.1523320E+02 -0.1500330E+01 -0.2568960E-01  0.4666170E-01 -0.1694768E+01  0.5769924E-02  0.4630359E-01
  0.1530690E+02  0.0000000E+00 -0.1027320E+00  0.4385441E-01 -0.1722867E+01  0.6643290E-02  0.4334831E-01
  0.1523320E+02  0.1500340E+01 -0.1027320E+00  0.4125605E-01 -0.1760535E+01  0.7781002E-02  0.4051565E-01
  0.1501280E+02  0.2986230E+01 -0.1027320E+00  0.3871319E-01 -0.1810043E+01  0.9173905E-02  0.3761051E-01
  0.1464780E+02  0.4443360E+01 -0.1027320E+00  0.3627788E-01 -0.1872875E+01  0.1079285E-01  0.3463522E-01
  0.1414170E+02  0.5857700E+01 -0.1027320E+00  0.3421067E-01 -0.1943115E+01  0.1244503E-01  0.3186678E-01
  0.1349950E+02  0.7215620E+01 -0.1027320E+00  0.3238022E-01 -0.2024695E+01  0.1419784E-01  0.2910155E-01
  0.1272720E+02  0.8504060E+01 -0.1027320E+00  0.3063701E-01 -0.2126894E+01  0.1617252E-01  0.2602068E-01
  0.1183240E+02  0.9710600E+01 -0.1027320E+00  0.2897054E-01 -0.2264371E+01  0.1852057E-01  0.2227736E-01
  0.1082360E+02  0.1082360E+02 -0.1027320E+00  0.2776236E-01 -0.2430192E+01  0.2102855E-01  0.1812590E-01
  0.9710590E+01  0.1183240E+02 -0.1027320E+00  0.2738463E-01 -0.2610443E+01  0.2361171E-01  0.1387101E-01
  0.8504060E+01  0.1272720E+02 -0.1027320E+00  0.2814723E-01 -0.2826664E+01  0.2676291E-01  0.8718560E-02
  0.7215620E+01  0.1349950E+02 -0.1027320E+00  0.3050199E-01 -0.3049047E+01  0.3037146E-01  0.2818782E-02
  0.5857700E+01  0.1414170E+02 -0.1027320E+00  0.3543615E-01  0.3001143E+01  0.3508721E-01 -0.4960654E-02
  0.4443360E+01  0.1464780E+02 -0.1027320E+00  0.4396234E-01  0.2788624E+01  0.4125210E-01 -0.1519712E-01
  0.2986230E+01  0.1501280E+02 -0.1027320E+00  0.6282137E-01  0.2565222E+01  0.5267234E-01 -0.3423667E-01
  0.1500340E+01  0.1523320E+02 -0.1027320E+00  0.1127509E+00  0.2358720E+01  0.7992803E-01 -0.7952537E-01
 -0.6690860E-06  0.1530690E+02 -0.1027320E+00  0.1240483E+00  0.2335938E+01  0.8592067E-01 -0.8947412E-01
 -0.1500340E+01  0.1523320E+02 -0.1027320E+00  0.1127513E+00  0.2358717E+01  0.7992812E-01 -0.7952584E-01
 -0.2986230E+01  0.1501280E+02 -0.1027320E+00  0.6282160E-01  0.2565221E+01  0.5267250E-01 -0.3423686E-01
 -0.4443360E+01  0.1464780E+02 -0.1027320E+00  0.4396256E-01  0.2788625E+01  0.4125230E-01 -0.1519716E-01
 -0.5857700E+01  0.1414170E+02 -0.1027320E+00  0.3543629E-01  0.3001142E+01  0.3508735E-01 -0.4960699E-02
 -0.7215620E+01  0.1349950E+02 -0.1027320E+00  0.3050210E-01 -0.3049049E+01  0.3037157E-01  0.2818757E-02
 -0.8504060E+01  0.1272720E+02 -0.1027320E+00  0.2814728E-01 -0.2826668E+01  0.2676299E-01  0.8718490E-02
 -0.9710590E+01  0.1183240E+02 -0.1027320E+00  0.2738460E-01 -0.2610444E+01  0.2361171E-01  0.1387095E-01
 -0.1082360E+02  0.1082360E+02 -0.1027320E+00  0.2776231E-01 -0.2430193E+01  0.2102853E-01  0.1812587E-01
 -0.1183240E+02  0.9710590E+01 -0.1027320E+00  0.2897057E-01 -0.2264375E+01  0.1852069E-01  0.2227730E-01
 -0.1272720E+02  0.8504060E+01 -0.1027320E+00  0.3063703E-01 -0.2126897E+01  0.1617264E-01  0.2602063E-01
 -0.1349950E+02  0.7215620E+01 -0.1027320E+00  0.3238022E-01 -0.2024695E+01  0.1419784E-01  0.2910154E-01
 -0.1414170E+02  0.5857690E+01 -0.1027320E+00  0.3421066E-01 -0.1943116E+01  0.1244507E-01  0.3186675E-01
 -0.1464780E+02  0.4443360E+01 -0.1027320E+00  0.3627780E-01 -0.1872874E+01  0.1079281E-01  0.3463516E-01
 -0.1501280E+02  0.2986230E+01 -0.1027320E+00  0.3871321E-01 -0.1810047E+01  0.9174045E-02  0.3761049E-01
 -0.1523320E+02  0.1500340E+01 -0.1027320E+00  0.4125605E-01 -0.1760536E+01  0.7781042E-02  0.4051564E-01
 -0.1530690E+02 -0.1338170E-05 -0.1027320E+00  0.4385441E-01 -0.1722868E+01  0.6643329E-02  0.4334830E-01
 -0.1523320E+02 -0.1500340E+01 -0.1027320E+00  0.4653408E-01 -0.1694893E+01  0.5759902E-02  0.4617623E-01
 -0.1501280E+02 -0.2986230E+01 -0.1027320E+00  0.4933582E-01 -0.1675328E+01  0.5147750E-02  0.4906652E-01
 -0.1464780E+02 -0.4443360E+01 -0.1027320E+00  0.5223875E-01 -0.1662690E+01  0.4793654E-02  0.5201834E-01
 -0.1414170E+02 -0.5857700E+01 -0.1027320E+00  0.5495383E-01 -0.1653145E+01  0.4520237E-02  0.5476760E-01
 -0.1349950E+02 -0.7215620E+01 -0.1027320E+00  0.5768258E-01 -0.1647348E+01  0.4411394E-02  0.5751365E-01
 -0.1272720E+02 -0.8504060E+01 -0.1027320E+00  0.6074448E-01 -0.1646698E+01  0.4606176E-02  0.6056959E-01
 -0.1183240E+02 -0.9710600E+01 -0.1027320E+00  0.6449050E-01 -0.1652600E+01  0.5269677E-02  0.6427485E-01
 -0.1082360E+02 -0.1082360E+02 -0.1027320E+00  0.6866553E-01 -0.1661451E+01  0.6216323E-02  0.6838357E-01
 -0.9710600E+01 -0.1183240E+02 -0.1027320E+00  0.7295536E-01 -0.1671934E+01  0.7365926E-02  0.7258255E-01
 -0.8504050E+01 -0.1272720E+02 -0.1027320E+00  0.7818818E-01 -0.1688614E+01  0.9190614E-02  0.7764615E-01
 -0.7215620E+01 -0.1349950E+02 -0.1027320E+00  0.8422734E-01 -0.1708939E+01  0.1159846E-01  0.8342494E-01
 -0.5857690E+01 -0.1414170E+02 -0.1027320E+00  0.9228744E-01 -0.1736362E+01  0.1520994E-01  0.9102543E-01
 -0.4443360E+01 -0.1464780E+02 -0.1027320E+00  0.1030389E+00 -0.1769620E+01  0.2035190E-01  0.1010089E+00
 -0.2986230E+01 -0.1501280E+02 -0.1027320E+00  0.1234437E+00 -0.1821295E+01  0.3060013E-01  0.1195909E+00
 -0.1500340E+01 -0.1523320E+02 -0.1027320E+00  0.1731881E+00 -0.1899283E+01  0.5587232E-01  0.1639281E+00
  0.1825330E-06 -0.1530690E+02 -0.1027320E+00  0.1842042E+00 -0.1910606E+01  0.6139658E-01  0.1736711E+00
  0.1500340E+01 -0.1523320E+02 -0.1027320E+00  0.1731880E+00 -0.1899283E+01  0.5587230E-01  0.1639279E+00
  0.2986230E+01 -0.1501280E+02 -0.1027320E+00  0.1234437E+00 -0.1821295E+01  0.3060010E-01  0.1195909E+00
  0.4443360E+01 -0.1464780E+02 -0.1027320E+00  0.1030387E+00 -0.1769620E+01  0.2035185E-01  0.1010088E+00
  0.5857700E+01 -0.1414170E+02 -0.1027320E+00  0.9228750E-01 -0.1736362E+01  0.1520991E-01  0.9102549E-01
  0.7215620E+01 -0.1349950E+02 -0.1027320E+00  0.8422731E-01 -0.1708939E+01  0.1159840E-01  0.8342492E-01
  0.8504060E+01 -0.1272720E+02 -0.1027320E+00  0.7818805E-01 -0.1688614E+01  0.9190611E-02  0.7764601E-01
  0.9710600E+01 -0.1183240E+02 -0.1027320E+00  0.7295532E-01 -0.1671932E+01  0.7365844E-02  0.7258252E-01
  0.1082360E+02 -0.1082360E+02 -0.1027320E+00  0.6866549E-01 -0.1661450E+01  0.6216273E-02  0.6838353E-01
  0.1183240E+02 -0.9710590E+01 -0.1027320E+00  0.6449042E-01 -0.1652599E+01  0.5269574E-02  0.6427477E-01
  0.1272720E+02 -0.8504060E+01 -0.1027320E+00  0.6074452E-01 -0.1646697E+01  0.4606142E-02  0.6056963E-01
