 VARIABLES="X" "Y" "Z" "abs(eta) (m)" "angle(phi) (rad)" "PRE1" "PRE2"
ZONE N=   3200 ,E =    3136 ,F=FEPOINT,ET=QUADRILATERAL
  0.1530690E+02  0.0000000E+00  0.0000000E+00  0.1384155E+00 -0.1415631E+01 -0.2139120E-01  0.1367526E+00
  0.1523320E+02  0.1500340E+01  0.0000000E+00  0.1355592E+00 -0.1414516E+01 -0.2109914E-01  0.1339072E+00
  0.1501280E+02  0.2986230E+01  0.0000000E+00  0.1323462E+00 -0.1416290E+01 -0.2036710E-01  0.1307697E+00
  0.1464780E+02  0.4443360E+01  0.0000000E+00  0.1288851E+00 -0.1420814E+01 -0.1925805E-01  0.1274382E+00
  0.1414170E+02  0.5857700E+01  0.0000000E+00  0.1260276E+00 -0.1426672E+01 -0.1810085E-01  0.1247210E+00
  0.1349950E+02  0.7215620E+01  0.0000000E+00  0.1236669E+00 -0.1433881E+01 -0.1687900E-01  0.1225096E+00
  0.1272720E+02  0.8504060E+01  0.0000000E+00  0.1205175E+00 -0.1443974E+01 -0.1524339E-01  0.1195496E+00
  0.1183240E+02  0.9710600E+01  0.0000000E+00  0.1154823E+00 -0.1459866E+01 -0.1278427E-01  0.1147725E+00
  0.1082360E+02  0.1082360E+02  0.0000000E+00  0.1100323E+00 -0.1479129E+01 -0.1007222E-01  0.1095704E+00
  0.9710590E+01  0.1183240E+02  0.0000000E+00  0.1046970E+00 -0.1501009E+01 -0.7300575E-02  0.1044421E+00
  0.8504060E+01  0.1272720E+02  0.0000000E+00  0.9713951E-01 -0.1534206E+01 -0.3553573E-02  0.9707449E-01
  0.7215620E+01  0.1349950E+02  0.0000000E+00  0.8916338E-01 -0.1575562E+01  0.4249015E-03  0.8916236E-01
  0.5857700E+01  0.1414170E+02  0.0000000E+00  0.7856466E-01 -0.1643441E+01  0.5702290E-02  0.7835745E-01
  0.4443360E+01  0.1464780E+02  0.0000000E+00  0.6419651E-01 -0.1772271E+01  0.1284663E-01  0.6289798E-01
  0.2986230E+01  0.1501280E+02  0.0000000E+00  0.4286833E-01 -0.2222631E+01  0.2600590E-01  0.3407913E-01
  0.1500340E+01  0.1523320E+02  0.0000000E+00  0.8117630E-01  0.2493360E+01  0.6470988E-01 -0.4901248E-01
 -0.6690860E-06  0.1530690E+02  0.0000000E+00  0.1167483E+00  0.2332963E+01  0.8061361E-01 -0.8444887E-01
 -0.1500340E+01  0.1523320E+02  0.0000000E+00  0.1321070E+00  0.2277213E+01  0.8575226E-01 -0.1004928E+00
 -0.2986230E+01  0.1501280E+02  0.0000000E+00  0.1218356E+00  0.2240316E+01  0.7561237E-01 -0.9553369E-01
 -0.4443360E+01  0.1464780E+02  0.0000000E+00  0.1108477E+00  0.2231179E+01  0.6799610E-01 -0.8754274E-01
 -0.5857700E+01  0.1414170E+02  0.0000000E+00  0.1048983E+00  0.2224239E+01  0.6377013E-01 -0.8328882E-01
 -0.7215620E+01  0.1349950E+02  0.0000000E+00  0.9943756E-01  0.2221953E+01  0.6026977E-01 -0.7909098E-01
 -0.8504060E+01  0.1272720E+02  0.0000000E+00  0.9504214E-01  0.2220409E+01  0.5748891E-01 -0.7568377E-01
 -0.9710590E+01  0.1183240E+02  0.0000000E+00  0.9168614E-01  0.2218073E+01  0.5528822E-01 -0.7314069E-01
 -0.1082360E+02  0.1082360E+02  0.0000000E+00  0.8800320E-01  0.2219383E+01  0.5315930E-01 -0.7013311E-01
 -0.1183240E+02  0.9710590E+01  0.0000000E+00  0.8455770E-01  0.2219935E+01  0.5111520E-01 -0.6735905E-01
 -0.1272720E+02  0.8504060E+01  0.0000000E+00  0.8142790E-01  0.2218364E+01  0.4912125E-01 -0.6494310E-01
 -0.1349950E+02  0.7215620E+01  0.0000000E+00  0.7781287E-01  0.2219202E+01  0.4699248E-01 -0.6202056E-01
 -0.1414170E+02  0.5857690E+01  0.0000000E+00  0.7409222E-01  0.2221120E+01  0.4485871E-01 -0.5896910E-01
 -0.1464780E+02  0.4443360E+01  0.0000000E+00  0.7083900E-01  0.2220438E+01  0.4285058E-01 -0.5640915E-01
 -0.1501280E+02  0.2986230E+01  0.0000000E+00  0.6775818E-01  0.2218254E+01  0.4086908E-01 -0.5404525E-01
 -0.1523320E+02  0.1500340E+01  0.0000000E+00  0.6466189E-01  0.2217016E+01  0.3893765E-01 -0.5162382E-01
 -0.1530690E+02 -0.1338170E-05  0.0000000E+00  0.6147181E-01  0.2217644E+01  0.3704747E-01 -0.4905373E-01
 -0.1523320E+02 -0.1500340E+01  0.0000000E+00  0.5811545E-01  0.2221388E+01  0.3519804E-01 -0.4624395E-01
 -0.1501280E+02 -0.2986230E+01  0.0000000E+00  0.5457496E-01  0.2229635E+01  0.3341075E-01 -0.4315261E-01
 -0.1464780E+02 -0.4443360E+01  0.0000000E+00  0.5091566E-01  0.2241884E+01  0.3166129E-01 -0.3987440E-01
 -0.1414170E+02 -0.5857700E+01  0.0000000E+00  0.4762997E-01  0.2245246E+01  0.2974337E-01 -0.3720142E-01
 -0.1349950E+02 -0.7215620E+01  0.0000000E+00  0.4466702E-01  0.2240210E+01  0.2771704E-01 -0.3502724E-01
 -0.1272720E+02 -0.8504060E+01  0.0000000E+00  0.4116475E-01  0.2247028E+01  0.2576331E-01 -0.3210590E-01
 -0.1183240E+02 -0.9710600E+01  0.0000000E+00  0.3651989E-01  0.2293928E+01  0.2416653E-01 -0.2738031E-01
 -0.1082360E+02 -0.1082360E+02  0.0000000E+00  0.3174229E-01  0.2365559E+01  0.2265438E-01 -0.2223403E-01
 -0.9710600E+01 -0.1183240E+02  0.0000000E+00  0.2720821E-01  0.2458624E+01  0.2110548E-01 -0.1717107E-01
 -0.8504050E+01 -0.1272720E+02  0.0000000E+00  0.2240892E-01  0.2684119E+01  0.2010463E-01 -0.9897642E-02
 -0.7215620E+01 -0.1349950E+02  0.0000000E+00  0.1941676E-01  0.3033036E+01  0.1930247E-01 -0.2103687E-02
 -0.5857690E+01 -0.1414170E+02  0.0000000E+00  0.2126642E-01 -0.2728950E+01  0.1948140E-01  0.8528514E-02
 -0.4443360E+01 -0.1464780E+02  0.0000000E+00  0.3167042E-01 -0.2293844E+01  0.2095547E-01  0.2374624E-01
 -0.2986230E+01 -0.1501280E+02  0.0000000E+00  0.5874964E-01 -0.2050404E+01  0.2710893E-01  0.5212127E-01
 -0.1500340E+01 -0.1523320E+02  0.0000000E+00  0.1437455E+00 -0.1935459E+01  0.5126463E-01  0.1342934E+00
  0.1825330E-06 -0.1530690E+02  0.0000000E+00  0.1789032E+00 -0.1895360E+01  0.5705138E-01  0.1695627E+00
  0.1500340E+01 -0.1523320E+02  0.0000000E+00  0.1932614E+00 -0.1848456E+01  0.5297412E-01  0.1858594E+00
  0.2986230E+01 -0.1501280E+02  0.0000000E+00  0.1847267E+00 -0.1745423E+01  0.3209452E-01  0.1819173E+00
  0.4443360E+01 -0.1464780E+02  0.0000000E+00  0.1755266E+00 -0.1683401E+01  0.1972337E-01  0.1744149E+00
  0.5857700E+01 -0.1414170E+02  0.0000000E+00  0.1708456E+00 -0.1639868E+01  0.1179126E-01  0.1704382E+00
  0.7215620E+01 -0.1349950E+02  0.0000000E+00  0.1665237E+00 -0.1602718E+01  0.5314895E-02  0.1664389E+00
  0.8504060E+01 -0.1272720E+02  0.0000000E+00  0.1631675E+00 -0.1571166E+01  0.6025684E-04  0.1631674E+00
  0.9710600E+01 -0.1183240E+02  0.0000000E+00  0.1607806E+00 -0.1543807E+01 -0.4338848E-02  0.1607220E+00
  0.1082360E+02 -0.1082360E+02  0.0000000E+00  0.1579780E+00 -0.1519921E+01 -0.8033711E-02  0.1577736E+00
  0.1183240E+02 -0.9710590E+01  0.0000000E+00  0.1554534E+00 -0.1498028E+01 -0.1130212E-01  0.1550420E+00
  0.1272720E+02 -0.8504060E+01  0.0000000E+00  0.1533124E+00 -0.1478603E+01 -0.1411432E-01  0.1526613E+00
  0.1349950E+02 -0.7215620E+01  0.0000000E+00  0.1506543E+00 -0.1461645E+01 -0.1641154E-01  0.1497578E+00
  0.1414170E+02 -0.5857700E+01  0.0000000E+00  0.1478403E+00 -0.1447269E+01 -0.1821587E-01  0.1467138E+00
  0.1464780E+02 -0.4443350E+01  0.0000000E+00  0.1454788E+00 -0.1435669E+01 -0.1959840E-01  0.1441526E+00
  0.1501280E+02 -0.2986230E+01  0.0000000E+00  0.1432802E+00 -0.1426191E+01 -0.2064691E-01  0.1417848E+00
  0.1523320E+02 -0.1500330E+01  0.0000000E+00  0.1409588E+00 -0.1419510E+01 -0.2124390E-01  0.1393487E+00
  0.1530690E+02  0.0000000E+00 -0.2568960E-01  0.1382959E+00 -0.1415653E+01 -0.2136968E-01  0.1366349E+00
  0.1523320E+02  0.1500340E+01 -0.2568960E-01  0.1354429E+00 -0.1414532E+01 -0.2107885E-01  0.1337926E+00
  0.1501280E+02  0.2986230E+01 -0.2568960E-01  0.1322347E+00 -0.1416302E+01 -0.2034837E-01  0.1306597E+00
  0.1464780E+02  0.4443360E+01 -0.2568960E-01  0.1287782E+00 -0.1420821E+01 -0.1924125E-01  0.1273327E+00
  0.1414170E+02  0.5857700E+01 -0.2568960E-01  0.1259202E+00 -0.1426676E+01 -0.1808489E-01  0.1246147E+00
  0.1349950E+02  0.7215620E+01 -0.2568960E-01  0.1235531E+00 -0.1433897E+01 -0.1686154E-01  0.1223971E+00
  0.1272720E+02  0.8504060E+01 -0.2568960E-01  0.1204027E+00 -0.1444002E+01 -0.1522547E-01  0.1194361E+00
  0.1183240E+02  0.9710600E+01 -0.2568960E-01  0.1153796E+00 -0.1459878E+01 -0.1277144E-01  0.1146706E+00
  0.1082360E+02  0.1082360E+02 -0.2568960E-01  0.1099381E+00 -0.1479136E+01 -0.1006283E-01  0.1094766E+00
  0.9710590E+01  0.1183240E+02 -0.2568960E-01  0.1046011E+00 -0.1501035E+01 -0.7291224E-02  0.1043467E+00
  0.8504060E+01  0.1272720E+02 -0.2568960E-01  0.9706093E-01 -0.1534202E+01 -0.3551058E-02  0.9699595E-01
  0.7215620E+01  0.1349950E+02 -0.2568960E-01  0.8908872E-01 -0.1575576E+01  0.4258435E-03  0.8908769E-01
  0.5857700E+01  0.1414170E+02 -0.2568960E-01  0.7849886E-01 -0.1643461E+01  0.5699069E-02  0.7829171E-01
  0.4443360E+01  0.1464780E+02 -0.2568960E-01  0.6414548E-01 -0.1772281E+01  0.1283709E-01  0.6284785E-01
  0.2986230E+01  0.1501280E+02 -0.2568960E-01  0.4283263E-01 -0.2222769E+01  0.2598895E-01  0.3404715E-01
  0.1500340E+01  0.1523320E+02 -0.2568960E-01  0.8114917E-01  0.2493155E+01  0.6467819E-01 -0.4900937E-01
 -0.6690860E-06  0.1530690E+02 -0.2568960E-01  0.1166659E+00  0.2332944E+01  0.8055505E-01 -0.8439080E-01
 -0.1500340E+01  0.1523320E+02 -0.2568960E-01  0.1320450E+00  0.2277163E+01  0.8570701E-01 -0.1004500E+00
 -0.2986230E+01  0.1501280E+02 -0.2568960E-01  0.1217496E+00  0.2240308E+01  0.7555815E-01 -0.9546690E-01
 -0.4443360E+01  0.1464780E+02 -0.2568960E-01  0.1107643E+00  0.2231176E+01  0.6794468E-01 -0.8747717E-01
 -0.5857700E+01  0.1414170E+02 -0.2568960E-01  0.1048076E+00  0.2224253E+01  0.6371617E-01 -0.8321594E-01
 -0.7215620E+01  0.1349950E+02 -0.2568960E-01  0.9935637E-01  0.2221951E+01  0.6022045E-01 -0.7902649E-01
 -0.8504060E+01  0.1272720E+02 -0.2568960E-01  0.9496444E-01  0.2220413E+01  0.5744220E-01 -0.7562167E-01
 -0.9710590E+01  0.1183240E+02 -0.2568960E-01  0.9160541E-01  0.2218092E+01  0.5524094E-01 -0.7307523E-01
 -0.1082360E+02  0.1082360E+02 -0.2568960E-01  0.8792645E-01  0.2219389E+01  0.5311336E-01 -0.7007162E-01
 -0.1183240E+02  0.9710590E+01 -0.2568960E-01  0.8448363E-01  0.2219944E+01  0.5107101E-01 -0.6729960E-01
 -0.1272720E+02  0.8504060E+01 -0.2568960E-01  0.8135279E-01  0.2218389E+01  0.4907752E-01 -0.6488199E-01
 -0.1349950E+02  0.7215620E+01 -0.2568960E-01  0.7774315E-01  0.2219220E+01  0.4695147E-01 -0.6196415E-01
 -0.1414170E+02  0.5857690E+01 -0.2568960E-01  0.7402981E-01  0.2221112E+01  0.4482045E-01 -0.5891978E-01
 -0.1464780E+02  0.4443360E+01 -0.2568960E-01  0.7078137E-01  0.2220429E+01  0.4281522E-01 -0.5636364E-01
 -0.1501280E+02  0.2986230E+01 -0.2568960E-01  0.6770392E-01  0.2218245E+01  0.4083585E-01 -0.5400235E-01
 -0.1523320E+02  0.1500340E+01 -0.2568960E-01  0.6461022E-01  0.2217004E+01  0.3890586E-01 -0.5158309E-01
 -0.1530690E+02 -0.1338170E-05 -0.2568960E-01  0.6142290E-01  0.2217623E+01  0.3701695E-01 -0.4901549E-01
 -0.1523320E+02 -0.1500340E+01 -0.2568960E-01  0.5806979E-01  0.2221341E+01  0.3516824E-01 -0.4620926E-01
 -0.1501280E+02 -0.2986230E+01 -0.2568960E-01  0.5453347E-01  0.2229564E+01  0.3338229E-01 -0.4312218E-01
 -0.1464780E+02 -0.4443360E+01 -0.2568960E-01  0.5087796E-01  0.2241774E+01  0.3163346E-01 -0.3984835E-01
 -0.1414170E+02 -0.5857700E+01 -0.2568960E-01  0.4759264E-01  0.2245173E+01  0.2971736E-01 -0.3717443E-01
 -0.1349950E+02 -0.7215620E+01 -0.2568960E-01  0.4462678E-01  0.2240258E+01  0.2769376E-01 -0.3499435E-01
 -0.1272720E+02 -0.8504060E+01 -0.2568960E-01  0.4112529E-01  0.2247151E+01  0.2574255E-01 -0.3207197E-01
 -0.1183240E+02 -0.9710600E+01 -0.2568960E-01  0.3648919E-01  0.2293913E+01  0.2414580E-01 -0.2735766E-01
 -0.1082360E+02 -0.1082360E+02 -0.2568960E-01  0.3171786E-01  0.2365441E+01  0.2263432E-01 -0.2221959E-01
 -0.9710600E+01 -0.1183240E+02 -0.2568960E-01  0.2718549E-01  0.2458691E+01  0.2108901E-01 -0.1715531E-01
 -0.8504050E+01 -0.1272720E+02 -0.2568960E-01  0.2239393E-01  0.2683776E+01  0.2008779E-01 -0.9897910E-02
 -0.7215620E+01 -0.1349950E+02 -0.2568960E-01  0.1940248E-01  0.3032715E+01  0.1928759E-01 -0.2108335E-02
 -0.5857690E+01 -0.1414170E+02 -0.2568960E-01  0.2124712E-01 -0.2729243E+01  0.1946622E-01  0.8515064E-02
 -0.4443360E+01 -0.1464780E+02 -0.2568960E-01  0.3163891E-01 -0.2294096E+01  0.2094058E-01  0.2371735E-01
 -0.2986230E+01 -0.1501280E+02 -0.2568960E-01  0.5870098E-01 -0.2050525E+01  0.2709275E-01  0.5207483E-01
 -0.1500340E+01 -0.1523320E+02 -0.2568960E-01  0.1436620E+00 -0.1935535E+01  0.5124493E-01  0.1342115E+00
  0.1825330E-06 -0.1530690E+02 -0.2568960E-01  0.1787627E+00 -0.1895404E+01  0.5701408E-01  0.1694270E+00
  0.1500340E+01 -0.1523320E+02 -0.2568960E-01  0.1931394E+00 -0.1848537E+01  0.5295568E-01  0.1857378E+00
  0.2986230E+01 -0.1501280E+02 -0.2568960E-01  0.1845801E+00 -0.1745471E+01  0.3207777E-01  0.1817714E+00
  0.4443360E+01 -0.1464780E+02 -0.2568960E-01  0.1753819E+00 -0.1683434E+01  0.1971290E-01  0.1742705E+00
  0.5857700E+01 -0.1414170E+02 -0.2568960E-01  0.1706931E+00 -0.1639889E+01  0.1178435E-01  0.1702858E+00
  0.7215620E+01 -0.1349950E+02 -0.2568960E-01  0.1663796E+00 -0.1602744E+01  0.5314539E-02  0.1662947E+00
  0.8504060E+01 -0.1272720E+02 -0.2568960E-01  0.1630260E+00 -0.1571190E+01  0.6419446E-04  0.1630260E+00
  0.9710600E+01 -0.1183240E+02 -0.2568960E-01  0.1606355E+00 -0.1543825E+01 -0.4331983E-02  0.1605771E+00
  0.1082360E+02 -0.1082360E+02 -0.2568960E-01  0.1578368E+00 -0.1519936E+01 -0.8024114E-02  0.1576327E+00
  0.1183240E+02 -0.9710590E+01 -0.2568960E-01  0.1553139E+00 -0.1498041E+01 -0.1128996E-01  0.1549030E+00
  0.1272720E+02 -0.8504060E+01 -0.2568960E-01  0.1531709E+00 -0.1478615E+01 -0.1409944E-01  0.1525206E+00
  0.1349950E+02 -0.7215620E+01 -0.2568960E-01  0.1505174E+00 -0.1461660E+01 -0.1639431E-01  0.1496219E+00
  0.1414170E+02 -0.5857700E+01 -0.2568960E-01  0.1477098E+00 -0.1447287E+01 -0.1819720E-01  0.1465847E+00
  0.1464780E+02 -0.4443350E+01 -0.2568960E-01  0.1453520E+00 -0.1435689E+01 -0.1957843E-01  0.1440274E+00
  0.1501280E+02 -0.2986230E+01 -0.2568960E-01  0.1431560E+00 -0.1426213E+01 -0.2062594E-01  0.1416623E+00
  0.1523320E+02 -0.1500330E+01 -0.2568960E-01  0.1408362E+00 -0.1419533E+01 -0.2122214E-01  0.1392281E+00
  0.1530690E+02  0.0000000E+00 -0.1027320E+00  0.1379454E+00 -0.1415705E+01 -0.2130852E-01  0.1362897E+00
  0.1523320E+02  0.1500340E+01 -0.1027320E+00  0.1351030E+00 -0.1414575E+01 -0.2102021E-01  0.1334578E+00
  0.1501280E+02  0.2986230E+01 -0.1027320E+00  0.1319081E+00 -0.1416327E+01 -0.2029483E-01  0.1303375E+00
  0.1464780E+02  0.4443360E+01 -0.1027320E+00  0.1284655E+00 -0.1420826E+01 -0.1919390E-01  0.1270235E+00
  0.1414170E+02  0.5857700E+01 -0.1027320E+00  0.1256042E+00 -0.1426687E+01 -0.1803817E-01  0.1243022E+00
  0.1349950E+02  0.7215620E+01 -0.1027320E+00  0.1232181E+00 -0.1433937E+01 -0.1681098E-01  0.1220659E+00
  0.1272720E+02  0.8504060E+01 -0.1027320E+00  0.1200635E+00 -0.1444063E+01 -0.1517531E-01  0.1191006E+00
  0.1183240E+02  0.9710600E+01 -0.1027320E+00  0.1150757E+00 -0.1459897E+01 -0.1273568E-01  0.1143688E+00
  0.1082360E+02  0.1082360E+02 -0.1027320E+00  0.1096587E+00 -0.1479137E+01 -0.1003714E-01  0.1091984E+00
  0.9710590E+01  0.1183240E+02 -0.1027320E+00  0.1043169E+00 -0.1501105E+01 -0.7264086E-02  0.1040636E+00
  0.8504060E+01  0.1272720E+02 -0.1027320E+00  0.9682515E-01 -0.1534186E+01 -0.3543965E-02  0.9676027E-01
  0.7215620E+01  0.1349950E+02 -0.1027320E+00  0.8885358E-01 -0.1575672E+01  0.4332115E-03  0.8885252E-01
  0.5857700E+01  0.1414170E+02 -0.1027320E+00  0.7830068E-01 -0.1643501E+01  0.5687805E-02  0.7809383E-01
  0.4443360E+01  0.1464780E+02 -0.1027320E+00  0.6399474E-01 -0.1772264E+01  0.1280582E-01  0.6270038E-01
  0.2986230E+01  0.1501280E+02 -0.1027320E+00  0.4272017E-01 -0.2223275E+01  0.2593790E-01  0.3394464E-01
  0.1500340E+01  0.1523320E+02 -0.1027320E+00  0.8093657E-01  0.2493336E+01  0.6451758E-01 -0.4886932E-01
 -0.6690860E-06  0.1530690E+02 -0.1027320E+00  0.1164114E+00  0.2332897E+01  0.8037536E-01 -0.8421051E-01
 -0.1500340E+01  0.1523320E+02 -0.1027320E+00  0.1317773E+00  0.2277055E+01  0.8552239E-01 -0.1002556E+00
 -0.2986230E+01  0.1501280E+02 -0.1027320E+00  0.1214803E+00  0.2240289E+01  0.7538927E-01 -0.9525713E-01
 -0.4443360E+01  0.1464780E+02 -0.1027320E+00  0.1105152E+00  0.2231139E+01  0.6778868E-01 -0.8728293E-01
 -0.5857700E+01  0.1414170E+02 -0.1027320E+00  0.1045417E+00  0.2224283E+01  0.6355695E-01 -0.8300287E-01
 -0.7215620E+01  0.1349950E+02 -0.1027320E+00  0.9911107E-01  0.2221946E+01  0.6007131E-01 -0.7883172E-01
 -0.8504060E+01  0.1272720E+02 -0.1027320E+00  0.9473380E-01  0.2220377E+01  0.5729997E-01 -0.7544009E-01
 -0.9710590E+01  0.1183240E+02 -0.1027320E+00  0.9136710E-01  0.2218106E+01  0.5509821E-01 -0.7288440E-01
 -0.1082360E+02  0.1082360E+02 -0.1027320E+00  0.8770179E-01  0.2219359E+01  0.5297554E-01 -0.6989418E-01
 -0.1183240E+02  0.9710590E+01 -0.1027320E+00  0.8426578E-01  0.2219907E+01  0.5093683E-01 -0.6712795E-01
 -0.1272720E+02  0.8504060E+01 -0.1027320E+00  0.8113439E-01  0.2218404E+01  0.4894675E-01 -0.6470707E-01
 -0.1349950E+02  0.7215620E+01 -0.1027320E+00  0.7754048E-01  0.2219212E+01  0.4682860E-01 -0.6180298E-01
 -0.1414170E+02  0.5857690E+01 -0.1027320E+00  0.7385014E-01  0.2221030E+01  0.4470685E-01 -0.5878044E-01
 -0.1464780E+02  0.4443360E+01 -0.1027320E+00  0.7061470E-01  0.2220306E+01  0.4270750E-01 -0.5623616E-01
 -0.1501280E+02  0.2986230E+01 -0.1027320E+00  0.6754601E-01  0.2218117E+01  0.4073374E-01 -0.5388159E-01
 -0.1523320E+02  0.1500340E+01 -0.1027320E+00  0.6446079E-01  0.2216875E+01  0.3880925E-01 -0.5146879E-01
 -0.1530690E+02 -0.1338170E-05 -0.1027320E+00  0.6128197E-01  0.2217467E+01  0.3692438E-01 -0.4890880E-01
 -0.1523320E+02 -0.1500340E+01 -0.1027320E+00  0.5793881E-01  0.2221134E+01  0.3507935E-01 -0.4611230E-01
 -0.1501280E+02 -0.2986230E+01 -0.1027320E+00  0.5441337E-01  0.2229245E+01  0.3329503E-01 -0.4303784E-01
 -0.1464780E+02 -0.4443360E+01 -0.1027320E+00  0.5076898E-01  0.2241332E+01  0.3154815E-01 -0.3977692E-01
 -0.1414170E+02 -0.5857700E+01 -0.1027320E+00  0.4748459E-01  0.2244852E+01  0.2963798E-01 -0.3709954E-01
 -0.1349950E+02 -0.7215620E+01 -0.1027320E+00  0.4450966E-01  0.2240315E+01  0.2762308E-01 -0.3490094E-01
 -0.1272720E+02 -0.8504060E+01 -0.1027320E+00  0.4100961E-01  0.2247447E+01  0.2567962E-01 -0.3197413E-01
 -0.1183240E+02 -0.9710600E+01 -0.1027320E+00  0.3639976E-01  0.2293793E+01  0.2408334E-01 -0.2729350E-01
 -0.1082360E+02 -0.1082360E+02 -0.1027320E+00  0.3164681E-01  0.2365047E+01  0.2257489E-01 -0.2217871E-01
 -0.9710600E+01 -0.1183240E+02 -0.1027320E+00  0.2711860E-01  0.2458867E+01  0.2104012E-01 -0.1710941E-01
 -0.8504050E+01 -0.1272720E+02 -0.1027320E+00  0.2234810E-01  0.2682696E+01  0.2003600E-01 -0.9899301E-02
 -0.7215620E+01 -0.1349950E+02 -0.1027320E+00  0.1936240E-01  0.3032390E+01  0.1924707E-01 -0.2110225E-02
 -0.5857690E+01 -0.1414170E+02 -0.1027320E+00  0.2119070E-01 -0.2730058E+01  0.1942145E-01  0.8476615E-02
 -0.4443360E+01 -0.1464780E+02 -0.1027320E+00  0.3154185E-01 -0.2294876E+01  0.2089478E-01  0.2362830E-01
 -0.2986230E+01 -0.1501280E+02 -0.1027320E+00  0.5856016E-01 -0.2050823E+01  0.2704326E-01  0.5194183E-01
 -0.1500340E+01 -0.1523320E+02 -0.1027320E+00  0.1432720E+00 -0.1935716E+01  0.5113007E-01  0.1338378E+00
  0.1825330E-06 -0.1530690E+02 -0.1027320E+00  0.1783331E+00 -0.1895523E+01  0.5689713E-01  0.1690131E+00
  0.1500340E+01 -0.1523320E+02 -0.1027320E+00  0.1926988E+00 -0.1848618E+01  0.5284990E-01  0.1853098E+00
  0.2986230E+01 -0.1501280E+02 -0.1027320E+00  0.1841310E+00 -0.1745594E+01  0.3202205E-01  0.1813252E+00
  0.4443360E+01 -0.1464780E+02 -0.1027320E+00  0.1749497E+00 -0.1683534E+01  0.1968166E-01  0.1738391E+00
  0.5857700E+01 -0.1414170E+02 -0.1027320E+00  0.1702430E+00 -0.1639950E+01  0.1176362E-01  0.1698361E+00
  0.7215620E+01 -0.1349950E+02 -0.1027320E+00  0.1659473E+00 -0.1602818E+01  0.5312962E-02  0.1658622E+00
  0.8504060E+01 -0.1272720E+02 -0.1027320E+00  0.1626063E+00 -0.1571247E+01  0.7323446E-04  0.1626062E+00
  0.9710600E+01 -0.1183240E+02 -0.1027320E+00  0.1602059E+00 -0.1543878E+01 -0.4311928E-02  0.1601479E+00
  0.1082360E+02 -0.1082360E+02 -0.1027320E+00  0.1574205E+00 -0.1519964E+01 -0.7998647E-02  0.1572172E+00
  0.1183240E+02 -0.9710590E+01 -0.1027320E+00  0.1549027E+00 -0.1498073E+01 -0.1125519E-01  0.1544933E+00
  0.1272720E+02 -0.8504060E+01 -0.1027320E+00  0.1527555E+00 -0.1478652E+01 -0.1405567E-01  0.1521074E+00
