 VARIABLES="X" "Y" "Z" "abs(eta) (m)" "angle(phi) (rad)" "PRE1" "PRE2"
ZONE N=   3200 ,E =    3136 ,F=FEPOINT,ET=QUADRILATERAL
  0.1530690E+02  0.0000000E+00  0.0000000E+00  0.5705028E+00  0.2727901E+01  0.5223770E+00 -0.2293378E+00
  0.1523320E+02  0.1500340E+01  0.0000000E+00  0.5615531E+00  0.2721594E+01  0.5127482E+00 -0.2289784E+00
  0.1501280E+02  0.2986230E+01  0.0000000E+00  0.5506955E+00  0.2711900E+01  0.5006338E+00 -0.2294152E+00
  0.1464780E+02  0.4443360E+01  0.0000000E+00  0.5378188E+00  0.2699484E+01  0.4861083E+00 -0.2301038E+00
  0.1414170E+02  0.5857700E+01  0.0000000E+00  0.5233662E+00  0.2683254E+01  0.4693489E+00 -0.2315681E+00
  0.1349950E+02  0.7215620E+01  0.0000000E+00  0.5078591E+00  0.2661126E+01  0.4503591E+00 -0.2347288E+00
  0.1272720E+02  0.8504060E+01  0.0000000E+00  0.4923005E+00  0.2631056E+01  0.4295234E+00 -0.2405605E+00
  0.1183240E+02  0.9710600E+01  0.0000000E+00  0.4731965E+00  0.2600011E+01  0.4054795E+00 -0.2439290E+00
  0.1082360E+02  0.1082360E+02  0.0000000E+00  0.4492487E+00  0.2572209E+01  0.3783724E+00 -0.2421957E+00
  0.9710590E+01  0.1183240E+02  0.0000000E+00  0.4249447E+00  0.2536617E+01  0.3495238E+00 -0.2416838E+00
  0.8504060E+01  0.1272720E+02  0.0000000E+00  0.3970610E+00  0.2499688E+01  0.3180288E+00 -0.2377291E+00
  0.7215620E+01  0.1349950E+02  0.0000000E+00  0.3619355E+00  0.2468085E+01  0.2829028E+00 -0.2257506E+00
  0.5857700E+01  0.1414170E+02  0.0000000E+00  0.3242408E+00  0.2431658E+01  0.2459056E+00 -0.2113351E+00
  0.4443360E+01  0.1464780E+02  0.0000000E+00  0.2751379E+00  0.2410433E+01  0.2048129E+00 -0.1837187E+00
  0.2986230E+01  0.1501280E+02  0.0000000E+00  0.2004570E+00  0.2474373E+01  0.1574680E+00 -0.1240437E+00
  0.1500340E+01  0.1523320E+02  0.0000000E+00  0.1257602E+00 -0.2351268E+01  0.8848675E-01  0.8936290E-01
 -0.6690860E-06  0.1530690E+02  0.0000000E+00  0.2097599E+00 -0.1700657E+01  0.2716296E-01  0.2079937E+00
 -0.1500340E+01  0.1523320E+02  0.0000000E+00  0.3104289E+00 -0.1438168E+01 -0.4105119E-01  0.3077026E+00
 -0.2986230E+01  0.1501280E+02  0.0000000E+00  0.4565254E+00 -0.1253959E+01 -0.1422363E+00  0.4338022E+00
 -0.4443360E+01  0.1464780E+02  0.0000000E+00  0.5064406E+00 -0.1147179E+01 -0.2081779E+00  0.4616753E+00
 -0.5857700E+01  0.1414170E+02  0.0000000E+00  0.5403771E+00 -0.1066119E+01 -0.2612857E+00  0.4730087E+00
 -0.7215620E+01  0.1349950E+02  0.0000000E+00  0.5661566E+00 -0.9966375E+00 -0.3074959E+00  0.4753731E+00
 -0.8504060E+01  0.1272720E+02  0.0000000E+00  0.5927141E+00 -0.9397733E+00 -0.3496842E+00  0.4785718E+00
 -0.9710590E+01  0.1183240E+02  0.0000000E+00  0.6130244E+00 -0.8881756E+00 -0.3867134E+00  0.4756593E+00
 -0.1082360E+02  0.1082360E+02  0.0000000E+00  0.6302276E+00 -0.8420806E+00 -0.4196762E+00  0.4701689E+00
 -0.1183240E+02  0.9710590E+01  0.0000000E+00  0.6473851E+00 -0.8028109E+00 -0.4497304E+00  0.4656717E+00
 -0.1272720E+02  0.8504060E+01  0.0000000E+00  0.6597286E+00 -0.7664375E+00 -0.4752593E+00  0.4575701E+00
 -0.1349950E+02  0.7215620E+01  0.0000000E+00  0.6688011E+00 -0.7341502E+00 -0.4965182E+00  0.4480677E+00
 -0.1414170E+02  0.5857690E+01  0.0000000E+00  0.6783361E+00 -0.7087321E+00 -0.5149844E+00  0.4415098E+00
 -0.1464780E+02  0.4443360E+01  0.0000000E+00  0.6868221E+00 -0.6884800E+00 -0.5303727E+00  0.4363821E+00
 -0.1501280E+02  0.2986230E+01  0.0000000E+00  0.6936219E+00 -0.6727457E+00 -0.5424912E+00  0.4322206E+00
 -0.1523320E+02  0.1500340E+01  0.0000000E+00  0.6981788E+00 -0.6609182E+00 -0.5511625E+00  0.4285715E+00
 -0.1530690E+02 -0.1338170E-05  0.0000000E+00  0.7007931E+00 -0.6533594E+00 -0.5564622E+00  0.4259823E+00
 -0.1523320E+02 -0.1500340E+01  0.0000000E+00  0.7011613E+00 -0.6498523E+00 -0.5582458E+00  0.4242508E+00
 -0.1501280E+02 -0.2986230E+01  0.0000000E+00  0.6992469E+00 -0.6503106E+00 -0.5565276E+00  0.4233476E+00
 -0.1464780E+02 -0.4443360E+01  0.0000000E+00  0.6946831E+00 -0.6541868E+00 -0.5512609E+00  0.4227245E+00
 -0.1414170E+02 -0.5857700E+01  0.0000000E+00  0.6882132E+00 -0.6618240E+00 -0.5429125E+00  0.4229462E+00
 -0.1349950E+02 -0.7215620E+01  0.0000000E+00  0.6811450E+00 -0.6739256E+00 -0.5322316E+00  0.4250741E+00
 -0.1272720E+02 -0.8504060E+01  0.0000000E+00  0.6748058E+00 -0.6911361E+00 -0.5199530E+00  0.4301299E+00
 -0.1183240E+02 -0.9710600E+01  0.0000000E+00  0.6636969E+00 -0.7106356E+00 -0.5030473E+00  0.4329399E+00
 -0.1082360E+02 -0.1082360E+02  0.0000000E+00  0.6446510E+00 -0.7315238E+00 -0.4797218E+00  0.4306296E+00
 -0.9710600E+01 -0.1183240E+02  0.0000000E+00  0.6257743E+00 -0.7567847E+00 -0.4549675E+00  0.4296487E+00
 -0.8504050E+01 -0.1272720E+02  0.0000000E+00  0.6017165E+00 -0.7848728E+00 -0.4257013E+00  0.4252542E+00
 -0.7215620E+01 -0.1349950E+02  0.0000000E+00  0.5673045E+00 -0.8149622E+00 -0.3891118E+00  0.4128273E+00
 -0.5857690E+01 -0.1414170E+02  0.0000000E+00  0.5301954E+00 -0.8485227E+00 -0.3505081E+00  0.3978080E+00
 -0.4443360E+01 -0.1464780E+02  0.0000000E+00  0.4769330E+00 -0.8855357E+00 -0.3018389E+00  0.3692673E+00
 -0.2986230E+01 -0.1501280E+02  0.0000000E+00  0.3849433E+00 -0.9256377E+00 -0.2314761E+00  0.3075714E+00
 -0.1500340E+01 -0.1523320E+02  0.0000000E+00  0.1004051E+00 -0.1111558E+01 -0.4450609E-01  0.9000217E-01
  0.1825330E-06 -0.1530690E+02  0.0000000E+00  0.8804644E-01  0.2819446E+01  0.8351714E-01 -0.2787584E-01
  0.1500340E+01 -0.1523320E+02  0.0000000E+00  0.2376117E+00  0.2592498E+01  0.2026822E+00 -0.1240132E+00
  0.2986230E+01 -0.1501280E+02  0.0000000E+00  0.4242140E+00  0.2537427E+01  0.3491182E+00 -0.2409855E+00
  0.4443360E+01 -0.1464780E+02  0.0000000E+00  0.4761186E+00  0.2552452E+01  0.3958537E+00 -0.2645539E+00
  0.5857700E+01 -0.1414170E+02  0.0000000E+00  0.5076585E+00  0.2573269E+01  0.4278567E+00 -0.2732322E+00
  0.7215620E+01 -0.1349950E+02  0.0000000E+00  0.5285211E+00  0.2597270E+01  0.4521384E+00 -0.2736884E+00
  0.8504060E+01 -0.1272720E+02  0.0000000E+00  0.5500647E+00  0.2616734E+01  0.4760231E+00 -0.2756324E+00
  0.9710600E+01 -0.1183240E+02  0.0000000E+00  0.5635362E+00  0.2637960E+01  0.4935649E+00 -0.2719682E+00
  0.1082360E+02 -0.1082360E+02  0.0000000E+00  0.5730388E+00  0.2658568E+01  0.5074797E+00 -0.2661537E+00
  0.1183240E+02 -0.9710590E+01  0.0000000E+00  0.5826604E+00  0.2675838E+01  0.5205971E+00 -0.2616713E+00
  0.1272720E+02 -0.8504060E+01  0.0000000E+00  0.5860503E+00  0.2693496E+01  0.5281916E+00 -0.2539066E+00
  0.1349950E+02 -0.7215620E+01  0.0000000E+00  0.5854566E+00  0.2709652E+01  0.5316853E+00 -0.2450921E+00
  0.1414170E+02 -0.5857700E+01  0.0000000E+00  0.5853922E+00  0.2720094E+01  0.5341568E+00 -0.2395005E+00
  0.1464780E+02 -0.4443350E+01  0.0000000E+00  0.5844725E+00  0.2726825E+01  0.5349150E+00 -0.2355292E+00
  0.1501280E+02 -0.2986230E+01  0.0000000E+00  0.5819792E+00  0.2730261E+01  0.5334358E+00 -0.2326932E+00
  0.1523320E+02 -0.1500330E+01  0.0000000E+00  0.5773000E+00  0.2730859E+01  0.5292850E+00 -0.2305055E+00
  0.1530690E+02  0.0000000E+00 -0.2568960E-01  0.5696247E+00  0.2727845E+01  0.5215600E+00 -0.2290141E+00
  0.1523320E+02  0.1500340E+01 -0.2568960E-01  0.5606888E+00  0.2721534E+01  0.5119454E+00 -0.2286566E+00
  0.1501280E+02  0.2986230E+01 -0.2568960E-01  0.5498517E+00  0.2711838E+01  0.4998526E+00 -0.2290944E+00
  0.1464780E+02  0.4443360E+01 -0.2568960E-01  0.5369940E+00  0.2699411E+01  0.4853460E+00 -0.2297865E+00
  0.1414170E+02  0.5857700E+01 -0.2568960E-01  0.5225663E+00  0.2683181E+01  0.4686148E+00 -0.2312481E+00
  0.1349950E+02  0.7215620E+01 -0.2568960E-01  0.5070761E+00  0.2661072E+01  0.4496519E+00 -0.2343914E+00
  0.1272720E+02  0.8504060E+01 -0.2568960E-01  0.4915220E+00  0.2631044E+01  0.4288414E+00 -0.2401852E+00
  0.1183240E+02  0.9710600E+01 -0.2568960E-01  0.4724424E+00  0.2600009E+01  0.4048327E+00 -0.2435412E+00
  0.1082360E+02  0.1082360E+02 -0.2568960E-01  0.4485502E+00  0.2572162E+01  0.3777727E+00 -0.2418369E+00
  0.9710590E+01  0.1183240E+02 -0.2568960E-01  0.4242783E+00  0.2536597E+01  0.3489708E+00 -0.2413121E+00
  0.8504060E+01  0.1272720E+02 -0.2568960E-01  0.3964349E+00  0.2499676E+01  0.3175243E+00 -0.2373583E+00
  0.7215620E+01  0.1349950E+02 -0.2568960E-01  0.3614092E+00  0.2467986E+01  0.2824690E+00 -0.2254504E+00
  0.5857700E+01  0.1414170E+02 -0.2568960E-01  0.3237668E+00  0.2431568E+01  0.2455271E+00 -0.2110483E+00
  0.4443360E+01  0.1464780E+02 -0.2568960E-01  0.2747677E+00  0.2410280E+01  0.2045091E+00 -0.1835030E+00
  0.2986230E+01  0.1501280E+02 -0.2568960E-01  0.2001803E+00  0.2474269E+01  0.1572378E+00 -0.1238888E+00
  0.1500340E+01  0.1523320E+02 -0.2568960E-01  0.1255552E+00 -0.2351617E+01  0.8837362E-01  0.8918642E-01
 -0.6690860E-06  0.1530690E+02 -0.2568960E-01  0.2094388E+00 -0.1700726E+01  0.2713577E-01  0.2076735E+00
 -0.1500340E+01  0.1523320E+02 -0.2568960E-01  0.3100086E+00 -0.1438242E+01 -0.4097262E-01  0.3072891E+00
 -0.2986230E+01  0.1501280E+02 -0.2568960E-01  0.4558346E+00 -0.1254000E+01 -0.1420034E+00  0.4331515E+00
 -0.4443360E+01  0.1464780E+02 -0.2568960E-01  0.5056923E+00 -0.1147221E+01 -0.2078510E+00  0.4610018E+00
 -0.5857700E+01  0.1414170E+02 -0.2568960E-01  0.5395433E+00 -0.1066150E+01 -0.2608681E+00  0.4722868E+00
 -0.7215620E+01  0.1349950E+02 -0.2568960E-01  0.5652983E+00 -0.9966847E+00 -0.3070073E+00  0.4746668E+00
 -0.8504060E+01  0.1272720E+02 -0.2568960E-01  0.5917657E+00 -0.9397913E+00 -0.3491160E+00  0.4778123E+00
 -0.9710590E+01  0.1183240E+02 -0.2568960E-01  0.6120451E+00 -0.8881958E+00 -0.3860860E+00  0.4749072E+00
 -0.1082360E+02  0.1082360E+02 -0.2568960E-01  0.6292316E+00 -0.8421066E+00 -0.4190007E+00  0.4694367E+00
 -0.1183240E+02  0.9710590E+01 -0.2568960E-01  0.6463438E+00 -0.8028237E+00 -0.4490010E+00  0.4649283E+00
 -0.1272720E+02  0.8504060E+01 -0.2568960E-01  0.6586753E+00 -0.7664544E+00 -0.4744928E+00  0.4568476E+00
 -0.1349950E+02  0.7215620E+01 -0.2568960E-01  0.6677551E+00 -0.7341848E+00 -0.4957262E+00  0.4473841E+00
 -0.1414170E+02  0.5857690E+01 -0.2568960E-01  0.6772835E+00 -0.7087713E+00 -0.5141680E+00  0.4408448E+00
 -0.1464780E+02  0.4443360E+01 -0.2568960E-01  0.6857567E+00 -0.6885213E+00 -0.5295321E+00  0.4357271E+00
 -0.1501280E+02  0.2986230E+01 -0.2568960E-01  0.6925451E+00 -0.6727850E+00 -0.5416320E+00  0.4315709E+00
 -0.1523320E+02  0.1500340E+01 -0.2568960E-01  0.6970951E+00 -0.6609566E+00 -0.5502906E+00  0.4279273E+00
 -0.1530690E+02 -0.1338170E-05 -0.2568960E-01  0.6997063E+00 -0.6533980E+00 -0.5555828E+00  0.4253430E+00
 -0.1523320E+02 -0.1500340E+01 -0.2568960E-01  0.7000760E+00 -0.6498881E+00 -0.5573665E+00  0.4236141E+00
 -0.1501280E+02 -0.2986230E+01 -0.2568960E-01  0.6981667E+00 -0.6503474E+00 -0.5556524E+00  0.4227141E+00
 -0.1464780E+02 -0.4443360E+01 -0.2568960E-01  0.6936149E+00 -0.6542230E+00 -0.5503980E+00  0.4220944E+00
 -0.1414170E+02 -0.5857700E+01 -0.2568960E-01  0.6871605E+00 -0.6618551E+00 -0.5420690E+00  0.4223160E+00
 -0.1349950E+02 -0.7215620E+01 -0.2568960E-01  0.6800899E+00 -0.6739542E+00 -0.5313950E+00  0.4244309E+00
 -0.1272720E+02 -0.8504060E+01 -0.2568960E-01  0.6737252E+00 -0.6911461E+00 -0.5191160E+00  0.4294464E+00
 -0.1183240E+02 -0.9710600E+01 -0.2568960E-01  0.6626258E+00 -0.7106422E+00 -0.5022327E+00  0.4322445E+00
 -0.1082360E+02 -0.1082360E+02 -0.2568960E-01  0.6436417E+00 -0.7315469E+00 -0.4789608E+00  0.4299665E+00
 -0.9710600E+01 -0.1183240E+02 -0.2568960E-01  0.6247798E+00 -0.7567990E+00 -0.4542383E+00  0.4289724E+00
 -0.8504050E+01 -0.1272720E+02 -0.2568960E-01  0.6007558E+00 -0.7848868E+00 -0.4250157E+00  0.4245812E+00
 -0.7215620E+01 -0.1349950E+02 -0.2568960E-01  0.5664634E+00 -0.8149847E+00 -0.3885256E+00  0.4122240E+00
 -0.5857690E+01 -0.1414170E+02 -0.2568960E-01  0.5294007E+00 -0.8485411E+00 -0.3499754E+00  0.3972182E+00
 -0.4443360E+01 -0.1464780E+02 -0.2568960E-01  0.4762594E+00 -0.8855503E+00 -0.3014072E+00  0.3687502E+00
 -0.2986230E+01 -0.1501280E+02 -0.2568960E-01  0.3843727E+00 -0.9256434E+00 -0.2311312E+00  0.3071168E+00
 -0.1500340E+01 -0.1523320E+02 -0.2568960E-01  0.1002783E+00 -0.1111386E+01 -0.4446536E-01  0.8988085E-01
  0.1825330E-06 -0.1530690E+02 -0.2568960E-01  0.8792640E-01  0.2819291E+01  0.8339896E-01 -0.2785075E-01
  0.1500340E+01 -0.1523320E+02 -0.2568960E-01  0.2373407E+00  0.2592356E+01  0.2024334E+00 -0.1239006E+00
  0.2986230E+01 -0.1501280E+02 -0.2568960E-01  0.4236018E+00  0.2537394E+01  0.3486063E+00 -0.2406493E+00
  0.4443360E+01 -0.1464780E+02 -0.2568960E-01  0.4754473E+00  0.2552410E+01  0.3952847E+00 -0.2641972E+00
  0.5857700E+01 -0.1414170E+02 -0.2568960E-01  0.5069008E+00  0.2573245E+01  0.4272118E+00 -0.2728344E+00
  0.7215620E+01 -0.1349950E+02 -0.2568960E-01  0.5277498E+00  0.2597225E+01  0.4514662E+00 -0.2733096E+00
  0.8504060E+01 -0.1272720E+02 -0.2568960E-01  0.5491952E+00  0.2616725E+01  0.4752683E+00 -0.2752007E+00
  0.9710600E+01 -0.1183240E+02 -0.2568960E-01  0.5626517E+00  0.2637950E+01  0.4927874E+00 -0.2715465E+00
  0.1082360E+02 -0.1082360E+02 -0.2568960E-01  0.5721505E+00  0.2658551E+01  0.5066885E+00 -0.2657498E+00
  0.1183240E+02 -0.9710590E+01 -0.2568960E-01  0.5817287E+00  0.2675830E+01  0.5197625E+00 -0.2612571E+00
  0.1272720E+02 -0.8504060E+01 -0.2568960E-01  0.5851215E+00  0.2693480E+01  0.5273504E+00 -0.2535126E+00
  0.1349950E+02 -0.7215620E+01 -0.2568960E-01  0.5845557E+00  0.2709613E+01  0.5308576E+00 -0.2447357E+00
  0.1414170E+02 -0.5857700E+01 -0.2568960E-01  0.5845004E+00  0.2720044E+01  0.5333312E+00 -0.2391623E+00
  0.1464780E+02 -0.4443350E+01 -0.2568960E-01  0.5835822E+00  0.2726773E+01  0.5340879E+00 -0.2351984E+00
  0.1501280E+02 -0.2986230E+01 -0.2568960E-01  0.5810851E+00  0.2730204E+01  0.5326030E+00 -0.2323659E+00
  0.1523320E+02 -0.1500330E+01 -0.2568960E-01  0.5764134E+00  0.2730804E+01  0.5284594E+00 -0.2301805E+00
  0.1530690E+02  0.0000000E+00 -0.1027320E+00  0.5670272E+00  0.2727639E+01  0.5191348E+00 -0.2280766E+00
  0.1523320E+02  0.1500340E+01 -0.1027320E+00  0.5581330E+00  0.2721320E+01  0.5095631E+00 -0.2277233E+00
  0.1501280E+02  0.2986230E+01 -0.1027320E+00  0.5473462E+00  0.2711613E+01  0.4975236E+00 -0.2281626E+00
  0.1464780E+02  0.4443360E+01 -0.1027320E+00  0.5345531E+00  0.2699170E+01  0.4830847E+00 -0.2288582E+00
  0.1414170E+02  0.5857700E+01 -0.1027320E+00  0.5201882E+00  0.2682930E+01  0.4664244E+00 -0.2303130E+00
  0.1349950E+02  0.7215620E+01 -0.1027320E+00  0.5047505E+00  0.2660871E+01  0.4475428E+00 -0.2334064E+00
  0.1272720E+02  0.8504060E+01 -0.1027320E+00  0.4892034E+00  0.2630980E+01  0.4268033E+00 -0.2390793E+00
  0.1183240E+02  0.9710600E+01 -0.1027320E+00  0.4702044E+00  0.2599984E+01  0.4029091E+00 -0.2423972E+00
  0.1082360E+02  0.1082360E+02 -0.1027320E+00  0.4464829E+00  0.2572022E+01  0.3759977E+00 -0.2407752E+00
  0.9710590E+01  0.1183240E+02 -0.1027320E+00  0.4222970E+00  0.2536519E+01  0.3473224E+00 -0.2402122E+00
  0.8504060E+01  0.1272720E+02 -0.1027320E+00  0.3945745E+00  0.2499640E+01  0.3160259E+00 -0.2362555E+00
  0.7215620E+01  0.1349950E+02 -0.1027320E+00  0.3598136E+00  0.2467751E+01  0.2811691E+00 -0.2245211E+00
  0.5857700E+01  0.1414170E+02 -0.1027320E+00  0.3223611E+00  0.2431290E+01  0.2444027E+00 -0.2101999E+00
  0.4443360E+01  0.1464780E+02 -0.1027320E+00  0.2736631E+00  0.2409806E+01  0.2036004E+00 -0.1828617E+00
  0.2986230E+01  0.1501280E+02 -0.1027320E+00  0.1993355E+00  0.2473981E+01  0.1565387E+00 -0.1234110E+00
  0.1500340E+01  0.1523320E+02 -0.1027320E+00  0.1249341E+00 -0.2352660E+01  0.8802892E-01  0.8865344E-01
 -0.6690860E-06  0.1530690E+02 -0.1027320E+00  0.2085201E+00 -0.1700947E+01  0.2706251E-01  0.2067565E+00
 -0.1500340E+01  0.1523320E+02 -0.1027320E+00  0.3087257E+00 -0.1438427E+01 -0.4074667E-01  0.3060249E+00
 -0.2986230E+01  0.1501280E+02 -0.1027320E+00  0.4537671E+00 -0.1254109E+01 -0.1413122E+00  0.4312023E+00
 -0.4443360E+01  0.1464780E+02 -0.1027320E+00  0.5034571E+00 -0.1147343E+01 -0.2068761E+00  0.4589894E+00
 -0.5857700E+01  0.1414170E+02 -0.1027320E+00  0.5370721E+00 -0.1066245E+01 -0.2596284E+00  0.4701484E+00
 -0.7215620E+01  0.1349950E+02 -0.1027320E+00  0.5627140E+00 -0.9968110E+00 -0.3055441E+00  0.4725356E+00
 -0.8504060E+01  0.1272720E+02 -0.1027320E+00  0.5889434E+00 -0.9398411E+00 -0.3474273E+00  0.4755508E+00
 -0.9710590E+01  0.1183240E+02 -0.1027320E+00  0.6091351E+00 -0.8882498E+00 -0.3842248E+00  0.4726699E+00
 -0.1082360E+02  0.1082360E+02 -0.1027320E+00  0.6262689E+00 -0.8421822E+00 -0.4169926E+00  0.4672579E+00
 -0.1183240E+02  0.9710590E+01 -0.1027320E+00  0.6432489E+00 -0.8028630E+00 -0.4468329E+00  0.4627197E+00
 -0.1272720E+02  0.8504060E+01 -0.1027320E+00  0.6555423E+00 -0.7665116E+00 -0.4722098E+00  0.4547016E+00
 -0.1349950E+02  0.7215620E+01 -0.1027320E+00  0.6646574E+00 -0.7343007E+00 -0.4933749E+00  0.4453658E+00
 -0.1414170E+02  0.5857690E+01 -0.1027320E+00  0.6741657E+00 -0.7089108E+00 -0.5117399E+00  0.4388869E+00
 -0.1464780E+02  0.4443360E+01 -0.1027320E+00  0.6826035E+00 -0.6886649E+00 -0.5270348E+00  0.4337992E+00
 -0.1501280E+02  0.2986230E+01 -0.1027320E+00  0.6893570E+00 -0.6729247E+00 -0.5390787E+00  0.4296595E+00
 -0.1523320E+02  0.1500340E+01 -0.1027320E+00  0.6938874E+00 -0.6610901E+00 -0.5477015E+00  0.4260314E+00
 -0.1530690E+02 -0.1338170E-05 -0.1027320E+00  0.6964872E+00 -0.6535255E+00 -0.5529727E+00  0.4234567E+00
 -0.1523320E+02 -0.1500340E+01 -0.1027320E+00  0.6968589E+00 -0.6500151E+00 -0.5547517E+00  0.4217379E+00
 -0.1501280E+02 -0.2986230E+01 -0.1027320E+00  0.6949679E+00 -0.6504730E+00 -0.5530537E+00  0.4208468E+00
 -0.1464780E+02 -0.4443360E+01 -0.1027320E+00  0.6904520E+00 -0.6543475E+00 -0.5478359E+00  0.4202378E+00
 -0.1414170E+02 -0.5857700E+01 -0.1027320E+00  0.6840306E+00 -0.6619751E+00 -0.5395495E+00  0.4204572E+00
 -0.1349950E+02 -0.7215620E+01 -0.1027320E+00  0.6769567E+00 -0.6740482E+00 -0.5289072E+00  0.4225252E+00
 -0.1272720E+02 -0.8504060E+01 -0.1027320E+00  0.6705164E+00 -0.6911932E+00 -0.5166234E+00  0.4274254E+00
 -0.1183240E+02 -0.9710600E+01 -0.1027320E+00  0.6594432E+00 -0.7106823E+00 -0.4998032E+00  0.4301885E+00
 -0.1082360E+02 -0.1082360E+02 -0.1027320E+00  0.6406431E+00 -0.7316155E+00 -0.4767000E+00  0.4279961E+00
 -0.9710600E+01 -0.1183240E+02 -0.1027320E+00  0.6218204E+00 -0.7568509E+00 -0.4520647E+00  0.4269640E+00
 -0.8504050E+01 -0.1272720E+02 -0.1027320E+00  0.5978900E+00 -0.7849221E+00 -0.4229733E+00  0.4225708E+00
 -0.7215620E+01 -0.1349950E+02 -0.1027320E+00  0.5639113E+00 -0.8150373E+00 -0.3867536E+00  0.4103872E+00
 -0.5857690E+01 -0.1414170E+02 -0.1027320E+00  0.5270360E+00 -0.8486076E+00 -0.3483859E+00  0.3954671E+00
 -0.4443360E+01 -0.1464780E+02 -0.1027320E+00  0.4742480E+00 -0.8855982E+00 -0.3001167E+00  0.3672073E+00
 -0.2986230E+01 -0.1501280E+02 -0.1027320E+00  0.3826522E+00 -0.9256621E+00 -0.2300909E+00  0.3057464E+00
 -0.1500340E+01 -0.1523320E+02 -0.1027320E+00  0.9990986E-01 -0.1110970E+01 -0.4433922E-01  0.8953220E-01
  0.1825330E-06 -0.1530690E+02 -0.1027320E+00  0.8759715E-01  0.2818403E+01  0.8306202E-01 -0.2782019E-01
  0.1500340E+01 -0.1523320E+02 -0.1027320E+00  0.2364922E+00  0.2591960E+01  0.2016609E+00 -0.1235374E+00
  0.2986230E+01 -0.1501280E+02 -0.1027320E+00  0.4217615E+00  0.2537298E+01  0.3470690E+00 -0.2396371E+00
  0.4443360E+01 -0.1464780E+02 -0.1027320E+00  0.4734468E+00  0.2552276E+01  0.3935863E+00 -0.2631383E+00
  0.5857700E+01 -0.1414170E+02 -0.1027320E+00  0.5046483E+00  0.2573157E+01  0.4252894E+00 -0.2716595E+00
  0.7215620E+01 -0.1349950E+02 -0.1027320E+00  0.5254053E+00  0.2597097E+01  0.4494257E+00 -0.2721531E+00
  0.8504060E+01 -0.1272720E+02 -0.1027320E+00  0.5466031E+00  0.2616688E+01  0.4730150E+00 -0.2739195E+00
  0.9710600E+01 -0.1183240E+02 -0.1027320E+00  0.5600068E+00  0.2637903E+01  0.4904583E+00 -0.2702930E+00
  0.1082360E+02 -0.1082360E+02 -0.1027320E+00  0.5694966E+00  0.2658472E+01  0.5043173E+00 -0.2645570E+00
  0.1183240E+02 -0.9710590E+01 -0.1027320E+00  0.5789585E+00  0.2675787E+01  0.5172762E+00 -0.2600351E+00
  0.1272720E+02 -0.8504060E+01 -0.1027320E+00  0.5823544E+00  0.2693411E+01  0.5248391E+00 -0.2523502E+00
