 VARIABLES="X" "Y" "Z" "abs(eta) (m)" "angle(phi) (rad)" "PRE1" "PRE2"
ZONE N=   3200 ,E =    3136 ,F=FEPOINT,ET=QUADRILATERAL
  0.1672760E+02  0.0000000E+00  0.0000000E+00  0.5759389E+00 -0.8905836E+00 -0.3622417E+00  0.4477574E+00
  0.1664710E+02  0.1639590E+01  0.0000000E+00  0.5752817E+00 -0.8958281E+00 -0.3594777E+00  0.4491379E+00
  0.1640620E+02  0.3263390E+01  0.0000000E+00  0.5727685E+00 -0.9041550E+00 -0.3541713E+00  0.4501404E+00
  0.1600730E+02  0.4855770E+01  0.0000000E+00  0.5698867E+00 -0.9172170E+00 -0.3465093E+00  0.4524402E+00
  0.1545430E+02  0.6401380E+01  0.0000000E+00  0.5677742E+00 -0.9360819E+00 -0.3366603E+00  0.4571951E+00
  0.1475240E+02  0.7885340E+01  0.0000000E+00  0.5652376E+00 -0.9596148E+00 -0.3243534E+00  0.4629129E+00
  0.1390850E+02  0.9293360E+01  0.0000000E+00  0.5591413E+00 -0.9850176E+00 -0.3091204E+00  0.4659223E+00
  0.1293060E+02  0.1061190E+02  0.0000000E+00  0.5461651E+00 -0.1009853E+01 -0.2905515E+00  0.4624674E+00
  0.1182820E+02  0.1182820E+02  0.0000000E+00  0.5327238E+00 -0.1039687E+01 -0.2698193E+00  0.4593390E+00
  0.1061190E+02  0.1293060E+02  0.0000000E+00  0.5174413E+00 -0.1073984E+01 -0.2466256E+00  0.4548860E+00
  0.9293360E+01  0.1390850E+02  0.0000000E+00  0.4964319E+00 -0.1110737E+01 -0.2204165E+00  0.4448159E+00
  0.7885330E+01  0.1475240E+02  0.0000000E+00  0.4748729E+00 -0.1154598E+01 -0.1919846E+00  0.4343342E+00
  0.6401380E+01  0.1545430E+02  0.0000000E+00  0.4460988E+00 -0.1203245E+01 -0.1602973E+00  0.4163039E+00
  0.4855770E+01  0.1600730E+02  0.0000000E+00  0.4034511E+00 -0.1257576E+01 -0.1243131E+00  0.3838216E+00
  0.3263390E+01  0.1640620E+02  0.0000000E+00  0.3404945E+00 -0.1323877E+01 -0.8322294E-01  0.3301673E+00
  0.1639590E+01  0.1664710E+02  0.0000000E+00  0.2435005E+00 -0.1417283E+01 -0.3723399E-01  0.2406369E+00
 -0.7311870E-06  0.1672760E+02  0.0000000E+00  0.1419581E+00 -0.1620569E+01  0.7062783E-02  0.1417823E+00
 -0.1639590E+01  0.1664710E+02  0.0000000E+00  0.6022999E-01 -0.2563685E+01  0.5044910E-01  0.3290198E-01
 -0.3263390E+01  0.1640620E+02  0.0000000E+00  0.1238223E+00  0.2426675E+01  0.9350402E-01 -0.8117235E-01
 -0.4855770E+01  0.1600730E+02  0.0000000E+00  0.2031795E+00  0.2267080E+01  0.1303134E+00 -0.1558856E+00
 -0.6401380E+01  0.1545430E+02  0.0000000E+00  0.2585637E+00  0.2248068E+01  0.1620339E+00 -0.2014950E+00
 -0.7885340E+01  0.1475240E+02  0.0000000E+00  0.2977656E+00  0.2262832E+01  0.1900061E+00 -0.2292642E+00
 -0.9293360E+01  0.1390850E+02  0.0000000E+00  0.3278187E+00  0.2287747E+01  0.2154061E+00 -0.2471140E+00
 -0.1061190E+02  0.1293060E+02  0.0000000E+00  0.3554384E+00  0.2308469E+01  0.2390563E+00 -0.2630371E+00
 -0.1182820E+02  0.1182820E+02  0.0000000E+00  0.3766324E+00  0.2333784E+01  0.2602847E+00 -0.2722203E+00
 -0.1293060E+02  0.1061190E+02  0.0000000E+00  0.3956604E+00  0.2356186E+01  0.2797718E+00 -0.2797765E+00
 -0.1390850E+02  0.9293360E+01  0.0000000E+00  0.4141425E+00  0.2373354E+01  0.2978247E+00 -0.2877750E+00
 -0.1475240E+02  0.7885330E+01  0.0000000E+00  0.4256438E+00  0.2397123E+01  0.3130386E+00 -0.2884085E+00
 -0.1545430E+02  0.6401370E+01  0.0000000E+00  0.4334451E+00  0.2421617E+01  0.3258734E+00 -0.2857991E+00
 -0.1600730E+02  0.4855770E+01  0.0000000E+00  0.4404734E+00  0.2441182E+01  0.3367760E+00 -0.2838992E+00
 -0.1640620E+02  0.3263390E+01  0.0000000E+00  0.4478942E+00  0.2453545E+01  0.3459927E+00 -0.2844263E+00
 -0.1664710E+02  0.1639590E+01  0.0000000E+00  0.4548931E+00  0.2460418E+01  0.3533762E+00 -0.2864490E+00
 -0.1672760E+02 -0.1462370E-05  0.0000000E+00  0.4600363E+00  0.2465230E+01  0.3587613E+00 -0.2879648E+00
 -0.1664710E+02 -0.1639590E+01  0.0000000E+00  0.4631979E+00  0.2468193E+01  0.3620847E+00 -0.2888720E+00
 -0.1640620E+02 -0.3263400E+01  0.0000000E+00  0.4645168E+00  0.2468925E+01  0.3633276E+00 -0.2894285E+00
 -0.1600730E+02 -0.4855770E+01  0.0000000E+00  0.4655254E+00  0.2465405E+01  0.3630933E+00 -0.2913369E+00
 -0.1545430E+02 -0.6401380E+01  0.0000000E+00  0.4671605E+00  0.2456004E+01  0.3616039E+00 -0.2957727E+00
 -0.1475240E+02 -0.7885340E+01  0.0000000E+00  0.4682882E+00  0.2442686E+01  0.3584962E+00 -0.3012879E+00
 -0.1390850E+02 -0.9293360E+01  0.0000000E+00  0.4655674E+00  0.2429435E+01  0.3524131E+00 -0.3042334E+00
 -0.1293060E+02 -0.1061190E+02  0.0000000E+00  0.4551980E+00  0.2419590E+01  0.3416186E+00 -0.3008355E+00
 -0.1182820E+02 -0.1182820E+02  0.0000000E+00  0.4442909E+00  0.2406731E+01  0.3296299E+00 -0.2978901E+00
 -0.1061190E+02 -0.1293060E+02  0.0000000E+00  0.4313558E+00  0.2392373E+01  0.3158477E+00 -0.2937824E+00
 -0.9293350E+01 -0.1390850E+02  0.0000000E+00  0.4118102E+00  0.2379734E+01  0.2979670E+00 -0.2842591E+00
 -0.7885340E+01 -0.1475240E+02  0.0000000E+00  0.3911953E+00  0.2363609E+01  0.2786602E+00 -0.2745582E+00
 -0.6401370E+01 -0.1545430E+02  0.0000000E+00  0.3621244E+00  0.2350142E+01  0.2545060E+00 -0.2576059E+00
 -0.4855760E+01 -0.1600730E+02  0.0000000E+00  0.3172239E+00  0.2346174E+01  0.2220521E+00 -0.2265477E+00
 -0.3263390E+01 -0.1640620E+02  0.0000000E+00  0.2486107E+00  0.2361278E+01  0.1766857E+00 -0.1748984E+00
 -0.1639590E+01 -0.1664710E+02  0.0000000E+00  0.1409124E+00  0.2470544E+01  0.1103584E+00 -0.8762036E-01
  0.1994750E-06 -0.1672760E+02  0.0000000E+00  0.4102265E-01 -0.2896945E+01  0.3980110E-01  0.9936290E-02
  0.1639600E+01 -0.1664710E+02  0.0000000E+00  0.1232133E+00 -0.1302975E+01 -0.3260610E-01  0.1188207E+00
  0.3263390E+01 -0.1640620E+02  0.0000000E+00  0.2561497E+00 -0.1151311E+01 -0.1043272E+00  0.2339412E+00
  0.4855770E+01 -0.1600730E+02  0.0000000E+00  0.3471511E+00 -0.1102257E+01 -0.1567676E+00  0.3097383E+00
  0.6401380E+01 -0.1545430E+02  0.0000000E+00  0.4065990E+00 -0.1066863E+01 -0.1963358E+00  0.3560548E+00
  0.7885340E+01 -0.1475240E+02  0.0000000E+00  0.4465498E+00 -0.1036688E+01 -0.2273268E+00  0.3843556E+00
  0.9293360E+01 -0.1390850E+02  0.0000000E+00  0.4755765E+00 -0.1009558E+01 -0.2531184E+00  0.4026216E+00
  0.1061190E+02 -0.1293060E+02  0.0000000E+00  0.5024467E+00 -0.9859454E+00 -0.2773883E+00  0.4189373E+00
  0.1182820E+02 -0.1182820E+02  0.0000000E+00  0.5215100E+00 -0.9642465E+00 -0.2972796E+00  0.4284829E+00
  0.1293060E+02 -0.1061190E+02  0.0000000E+00  0.5382012E+00 -0.9456353E+00 -0.3149703E+00  0.4364105E+00
  0.1390850E+02 -0.9293360E+01  0.0000000E+00  0.5544782E+00 -0.9309995E+00 -0.3310415E+00  0.4448119E+00
  0.1475240E+02 -0.7885330E+01  0.0000000E+00  0.5619702E+00 -0.9162017E+00 -0.3421487E+00  0.4458081E+00
  0.1545430E+02 -0.6401380E+01  0.0000000E+00  0.5650022E+00 -0.9028351E+00 -0.3499548E+00  0.4435754E+00
  0.1600730E+02 -0.4855760E+01  0.0000000E+00  0.5675106E+00 -0.8931473E+00 -0.3558083E+00  0.4421185E+00
  0.1640620E+02 -0.3263390E+01  0.0000000E+00  0.5709994E+00 -0.8884606E+00 -0.3600765E+00  0.4431537E+00
  0.1664710E+02 -0.1639590E+01  0.0000000E+00  0.5744815E+00 -0.8881081E+00 -0.3624295E+00  0.4457284E+00
  0.1672760E+02  0.0000000E+00 -0.2568960E-01  0.5752014E+00 -0.8906230E+00 -0.3617601E+00  0.4471982E+00
  0.1664710E+02  0.1639590E+01 -0.2568960E-01  0.5745458E+00 -0.8958664E+00 -0.3590007E+00  0.4485770E+00
  0.1640620E+02  0.3263390E+01 -0.2568960E-01  0.5720369E+00 -0.9041949E+00 -0.3537010E+00  0.4495795E+00
  0.1600730E+02  0.4855770E+01 -0.2568960E-01  0.5691519E+00 -0.9172531E+00 -0.3460463E+00  0.4518694E+00
  0.1545430E+02  0.6401380E+01 -0.2568960E-01  0.5670235E+00 -0.9361012E+00 -0.3362064E+00  0.4565971E+00
  0.1475240E+02  0.7885340E+01 -0.2568960E-01  0.5644638E+00 -0.9596159E+00 -0.3239088E+00  0.4622796E+00
  0.1390850E+02  0.9293360E+01 -0.2568960E-01  0.5583630E+00 -0.9850104E+00 -0.3086935E+00  0.4652715E+00
  0.1293060E+02  0.1061190E+02 -0.2568960E-01  0.5454285E+00 -0.1009867E+01 -0.2901535E+00  0.4618475E+00
  0.1182820E+02  0.1182820E+02 -0.2568960E-01  0.5320137E+00 -0.1039700E+01 -0.2694539E+00  0.4587299E+00
  0.1061190E+02  0.1293060E+02 -0.2568960E-01  0.5167458E+00 -0.1073999E+01 -0.2462876E+00  0.4542782E+00
  0.9293360E+01  0.1390850E+02 -0.2568960E-01  0.4957915E+00 -0.1110765E+01 -0.2201195E+00  0.4442484E+00
  0.7885330E+01  0.1475240E+02 -0.2568960E-01  0.4742540E+00 -0.1154615E+01 -0.1917272E+00  0.4337713E+00
  0.6401380E+01  0.1545430E+02 -0.2568960E-01  0.4455186E+00 -0.1203262E+01 -0.1600818E+00  0.4157651E+00
  0.4855770E+01  0.1600730E+02 -0.2568960E-01  0.4029575E+00 -0.1257611E+01 -0.1241473E+00  0.3833565E+00
  0.3263390E+01  0.1640620E+02 -0.2568960E-01  0.3400524E+00 -0.1323891E+01 -0.8311024E-01  0.3297398E+00
  0.1639590E+01  0.1664710E+02 -0.2568960E-01  0.2432037E+00 -0.1417311E+01 -0.3718179E-01  0.2403447E+00
 -0.7311870E-06  0.1672760E+02 -0.2568960E-01  0.1417792E+00 -0.1620593E+01  0.7057210E-02  0.1416034E+00
 -0.1639590E+01  0.1664710E+02 -0.2568960E-01  0.6015220E-01 -0.2563790E+01  0.5038737E-01  0.3285422E-01
 -0.3263390E+01  0.1640620E+02 -0.2568960E-01  0.1236674E+00  0.2426633E+01  0.9338368E-01 -0.8107471E-01
 -0.4855770E+01  0.1600730E+02 -0.2568960E-01  0.2029548E+00  0.2266952E+01  0.1301493E+00 -0.1557299E+00
 -0.6401380E+01  0.1545430E+02 -0.2568960E-01  0.2582404E+00  0.2248014E+01  0.1618205E+00 -0.2012517E+00
 -0.7885340E+01  0.1475240E+02 -0.2568960E-01  0.2973868E+00  0.2262792E+01  0.1897551E+00 -0.2289801E+00
 -0.9293360E+01  0.1390850E+02 -0.2568960E-01  0.3274094E+00  0.2287688E+01  0.2151225E+00 -0.2468183E+00
 -0.1061190E+02  0.1293060E+02 -0.2568960E-01  0.3549679E+00  0.2308454E+01  0.2387359E+00 -0.2626925E+00
 -0.1182820E+02  0.1182820E+02 -0.2568960E-01  0.3761409E+00  0.2333760E+01  0.2599384E+00 -0.2718713E+00
 -0.1293060E+02  0.1061190E+02 -0.2568960E-01  0.3951358E+00  0.2356169E+01  0.2793961E+00 -0.2794103E+00
 -0.1390850E+02  0.9293360E+01 -0.2568960E-01  0.4135686E+00  0.2373379E+01  0.2974192E+00 -0.2873688E+00
 -0.1475240E+02  0.7885330E+01 -0.2568960E-01  0.4250647E+00  0.2397131E+01  0.3126149E+00 -0.2880137E+00
 -0.1545430E+02  0.6401370E+01 -0.2568960E-01  0.4328772E+00  0.2421584E+01  0.3254370E+00 -0.2854355E+00
 -0.1600730E+02  0.4855770E+01 -0.2568960E-01  0.4399185E+00  0.2441122E+01  0.3363348E+00 -0.2835616E+00
 -0.1640620E+02  0.3263390E+01 -0.2568960E-01  0.4473324E+00  0.2453469E+01  0.3455369E+00 -0.2840961E+00
 -0.1664710E+02  0.1639590E+01 -0.2568960E-01  0.4543230E+00  0.2460353E+01  0.3529146E+00 -0.2861130E+00
 -0.1672760E+02 -0.1462370E-05 -0.2568960E-01  0.4594575E+00  0.2465166E+01  0.3582917E+00 -0.2876253E+00
 -0.1664710E+02 -0.1639590E+01 -0.2568960E-01  0.4626141E+00  0.2468132E+01  0.3616106E+00 -0.2885302E+00
 -0.1640620E+02 -0.3263400E+01 -0.2568960E-01  0.4639347E+00  0.2468861E+01  0.3628537E+00 -0.2890894E+00
 -0.1600730E+02 -0.4855770E+01 -0.2568960E-01  0.4649394E+00  0.2465355E+01  0.3626215E+00 -0.2909885E+00
 -0.1545430E+02 -0.6401380E+01 -0.2568960E-01  0.4665512E+00  0.2455976E+01  0.3611241E+00 -0.2953971E+00
 -0.1475240E+02 -0.7885340E+01 -0.2568960E-01  0.4676487E+00  0.2442686E+01  0.3580067E+00 -0.3008763E+00
 -0.1390850E+02 -0.9293360E+01 -0.2568960E-01  0.4649192E+00  0.2429451E+01  0.3519271E+00 -0.3038045E+00
 -0.1293060E+02 -0.1061190E+02 -0.2568960E-01  0.4545915E+00  0.2419585E+01  0.3411620E+00 -0.3004362E+00
 -0.1182820E+02 -0.1182820E+02 -0.2568960E-01  0.4437089E+00  0.2406718E+01  0.3291941E+00 -0.2975044E+00
 -0.1061190E+02 -0.1293060E+02 -0.2568960E-01  0.4307841E+00  0.2392361E+01  0.3154254E+00 -0.2933970E+00
 -0.9293350E+01 -0.1390850E+02 -0.2568960E-01  0.4112930E+00  0.2379702E+01  0.2975838E+00 -0.2839116E+00
 -0.7885340E+01 -0.1475240E+02 -0.2568960E-01  0.3906959E+00  0.2363581E+01  0.2782969E+00 -0.2742155E+00
 -0.6401370E+01 -0.1545430E+02 -0.2568960E-01  0.3616659E+00  0.2350115E+01  0.2541770E+00 -0.2572864E+00
 -0.4855760E+01 -0.1600730E+02 -0.2568960E-01  0.3168583E+00  0.2346114E+01  0.2217827E+00 -0.2262998E+00
 -0.3263390E+01 -0.1640620E+02 -0.2568960E-01  0.2482978E+00  0.2361239E+01  0.1764565E+00 -0.1746852E+00
 -0.1639590E+01 -0.1664710E+02 -0.2568960E-01  0.1407586E+00  0.2470392E+01  0.1102246E+00 -0.8754154E-01
  0.1994750E-06 -0.1672760E+02 -0.2568960E-01  0.4096718E-01 -0.2897422E+01  0.3975202E-01  0.9903878E-02
  0.1639600E+01 -0.1664710E+02 -0.2568960E-01  0.1230450E+00 -0.1302918E+01 -0.3256835E-01  0.1186566E+00
  0.3263390E+01 -0.1640620E+02 -0.2568960E-01  0.2558105E+00 -0.1151318E+01 -0.1041875E+00  0.2336321E+00
  0.4855770E+01 -0.1600730E+02 -0.2568960E-01  0.3467364E+00 -0.1102266E+01 -0.1565777E+00  0.3093696E+00
  0.6401380E+01 -0.1545430E+02 -0.2568960E-01  0.4060754E+00 -0.1066874E+01 -0.1960792E+00  0.3555983E+00
  0.7885340E+01 -0.1475240E+02 -0.2568960E-01  0.4459693E+00 -0.1036696E+01 -0.2270283E+00  0.3838577E+00
  0.9293360E+01 -0.1390850E+02 -0.2568960E-01  0.4749708E+00 -0.1009567E+01 -0.2527924E+00  0.4021110E+00
  0.1061190E+02 -0.1293060E+02 -0.2568960E-01  0.5017723E+00 -0.9859542E+00 -0.2770123E+00  0.4183774E+00
  0.1182820E+02 -0.1182820E+02 -0.2568960E-01  0.5208175E+00 -0.9642594E+00 -0.2968793E+00  0.4279177E+00
  0.1293060E+02 -0.1061190E+02 -0.2568960E-01  0.5374787E+00 -0.9456465E+00 -0.3145427E+00  0.4358283E+00
  0.1390850E+02 -0.9293360E+01 -0.2568960E-01  0.5537040E+00 -0.9309911E+00 -0.3305830E+00  0.4441880E+00
  0.1475240E+02 -0.7885330E+01 -0.2568960E-01  0.5611996E+00 -0.9162002E+00 -0.3416801E+00  0.4451962E+00
  0.1545430E+02 -0.6401380E+01 -0.2568960E-01  0.5642560E+00 -0.9028543E+00 -0.3494841E+00  0.4429962E+00
  0.1600730E+02 -0.4855760E+01 -0.2568960E-01  0.5667830E+00 -0.8931791E+00 -0.3553381E+00  0.4415630E+00
  0.1640620E+02 -0.3263390E+01 -0.2568960E-01  0.5702769E+00 -0.8884920E+00 -0.3596070E+00  0.4426043E+00
  0.1664710E+02 -0.1639590E+01 -0.2568960E-01  0.5737484E+00 -0.8881438E+00 -0.3619511E+00  0.4451726E+00
  0.1672760E+02  0.0000000E+00 -0.1027320E+00  0.5730509E+00 -0.8907634E+00 -0.3603451E+00  0.4455769E+00
  0.1664710E+02  0.1639590E+01 -0.1027320E+00  0.5723985E+00 -0.8960109E+00 -0.3575944E+00  0.4469523E+00
  0.1640620E+02  0.3263390E+01 -0.1027320E+00  0.5699000E+00 -0.9043468E+00 -0.3523117E+00  0.4479537E+00
  0.1600730E+02  0.4855770E+01 -0.1027320E+00  0.5670078E+00 -0.9173856E+00 -0.3446830E+00  0.4502128E+00
  0.1545430E+02  0.6401380E+01 -0.1027320E+00  0.5648270E+00 -0.9361845E+00 -0.3348661E+00  0.4548563E+00
  0.1475240E+02  0.7885340E+01 -0.1027320E+00  0.5621926E+00 -0.9596369E+00 -0.3225958E+00  0.4604263E+00
  0.1390850E+02  0.9293360E+01 -0.1027320E+00  0.5560738E+00 -0.9850023E+00 -0.3074316E+00  0.4633615E+00
  0.1293060E+02  0.1061190E+02 -0.1027320E+00  0.5432599E+00 -0.1009914E+01 -0.2889784E+00  0.4600248E+00
  0.1182820E+02  0.1182820E+02 -0.1027320E+00  0.5299146E+00 -0.1039760E+01 -0.2683629E+00  0.4569363E+00
  0.1061190E+02  0.1293060E+02 -0.1027320E+00  0.5146943E+00 -0.1074040E+01 -0.2452910E+00  0.4524849E+00
  0.9293360E+01  0.1390850E+02 -0.1027320E+00  0.4938964E+00 -0.1110850E+01 -0.2192405E+00  0.4425689E+00
  0.7885330E+01  0.1475240E+02 -0.1027320E+00  0.4724093E+00 -0.1154682E+01 -0.1909525E+00  0.4320968E+00
  0.6401380E+01  0.1545430E+02 -0.1027320E+00  0.4437883E+00 -0.1203322E+01 -0.1594354E+00  0.4141600E+00
  0.4855770E+01  0.1600730E+02 -0.1027320E+00  0.4014817E+00 -0.1257696E+01 -0.1236602E+00  0.3819630E+00
  0.3263390E+01  0.1640620E+02 -0.1027320E+00  0.3387446E+00 -0.1323948E+01 -0.8277198E-01  0.3284764E+00
  0.1639590E+01  0.1664710E+02 -0.1027320E+00  0.2423134E+00 -0.1417400E+01 -0.3702444E-01  0.2394681E+00
 -0.7311870E-06  0.1672760E+02 -0.1027320E+00  0.1412390E+00 -0.1620677E+01  0.7042134E-02  0.1410633E+00
 -0.1639590E+01  0.1664710E+02 -0.1027320E+00  0.5991346E-01 -0.2564157E+01  0.5019939E-01  0.3270542E-01
 -0.3263390E+01  0.1640620E+02 -0.1027320E+00  0.1232205E+00  0.2426384E+01  0.9302609E-01 -0.8080490E-01
 -0.4855770E+01  0.1600730E+02 -0.1027320E+00  0.2022765E+00  0.2266572E+01  0.1296554E+00 -0.1552586E+00
 -0.6401380E+01  0.1545430E+02 -0.1027320E+00  0.2572781E+00  0.2247856E+01  0.1611858E+00 -0.2005273E+00
 -0.7885340E+01  0.1475240E+02 -0.1027320E+00  0.2962640E+00  0.2262661E+01  0.1890089E+00 -0.2281403E+00
 -0.9293360E+01  0.1390850E+02 -0.1027320E+00  0.3261952E+00  0.2287485E+01  0.2142747E+00 -0.2459464E+00
 -0.1061190E+02  0.1293060E+02 -0.1027320E+00  0.3535803E+00  0.2308386E+01  0.2377849E+00 -0.2616818E+00
 -0.1182820E+02  0.1182820E+02 -0.1027320E+00  0.3746885E+00  0.2333646E+01  0.2589039E+00 -0.2708509E+00
 -0.1293060E+02  0.1061190E+02 -0.1027320E+00  0.3935935E+00  0.2356075E+01  0.2782793E+00 -0.2783460E+00
 -0.1390850E+02  0.9293360E+01 -0.1027320E+00  0.4118803E+00  0.2373416E+01  0.2962156E+00 -0.2861848E+00
 -0.1475240E+02  0.7885330E+01 -0.1027320E+00  0.4233652E+00  0.2397101E+01  0.3113567E+00 -0.2868713E+00
 -0.1545430E+02  0.6401370E+01 -0.1027320E+00  0.4312253E+00  0.2421424E+01  0.3241496E+00 -0.2843981E+00
 -0.1600730E+02  0.4855770E+01 -0.1027320E+00  0.4382927E+00  0.2440862E+01  0.3350184E+00 -0.2826008E+00
 -0.1640620E+02  0.3263390E+01 -0.1027320E+00  0.4456990E+00  0.2453187E+01  0.3441956E+00 -0.2831554E+00
 -0.1664710E+02  0.1639590E+01 -0.1027320E+00  0.4526562E+00  0.2460081E+01  0.3515425E+00 -0.2851588E+00
 -0.1672760E+02 -0.1462370E-05 -0.1027320E+00  0.4577715E+00  0.2464908E+01  0.3569031E+00 -0.2866617E+00
 -0.1664710E+02 -0.1639590E+01 -0.1027320E+00  0.4609217E+00  0.2467881E+01  0.3602156E+00 -0.2875648E+00
 -0.1640620E+02 -0.3263400E+01 -0.1027320E+00  0.4622433E+00  0.2468612E+01  0.3614593E+00 -0.2881251E+00
 -0.1600730E+02 -0.4855770E+01 -0.1027320E+00  0.4632234E+00  0.2465134E+01  0.3612191E+00 -0.2899943E+00
 -0.1545430E+02 -0.6401380E+01 -0.1027320E+00  0.4647690E+00  0.2455829E+01  0.3597012E+00 -0.2943216E+00
 -0.1475240E+02 -0.7885340E+01 -0.1027320E+00  0.4657787E+00  0.2442640E+01  0.3565613E+00 -0.2996895E+00
 -0.1390850E+02 -0.9293360E+01 -0.1027320E+00  0.4630165E+00  0.2429451E+01  0.3504868E+00 -0.3025613E+00
 -0.1293060E+02 -0.1061190E+02 -0.1027320E+00  0.4528095E+00  0.2419521E+01  0.3398055E+00 -0.2992802E+00
 -0.1182820E+02 -0.1182820E+02 -0.1027320E+00  0.4419881E+00  0.2406642E+01  0.3278950E+00 -0.2963752E+00
 -0.1061190E+02 -0.1293060E+02 -0.1027320E+00  0.4290959E+00  0.2392295E+01  0.3141700E+00 -0.2922678E+00
 -0.9293350E+01 -0.1390850E+02 -0.1027320E+00  0.4097618E+00  0.2379568E+01  0.2964380E+00 -0.2828944E+00
 -0.7885340E+01 -0.1475240E+02 -0.1027320E+00  0.3892092E+00  0.2363484E+01  0.2772114E+00 -0.2731989E+00
 -0.6401370E+01 -0.1545430E+02 -0.1027320E+00  0.3602985E+00  0.2350029E+01  0.2531939E+00 -0.2563354E+00
 -0.4855760E+01 -0.1600730E+02 -0.1027320E+00  0.3157555E+00  0.2345922E+01  0.2209675E+00 -0.2255546E+00
 -0.3263390E+01 -0.1640620E+02 -0.1027320E+00  0.2473806E+00  0.2361102E+01  0.1757808E+00 -0.1740640E+00
 -0.1639590E+01 -0.1664710E+02 -0.1027320E+00  0.1402962E+00  0.2469954E+01  0.1098243E+00 -0.8730212E-01
  0.1994750E-06 -0.1672760E+02 -0.1027320E+00  0.4080033E-01 -0.2898701E+01  0.3960271E-01  0.9812886E-02
  0.1639600E+01 -0.1664710E+02 -0.1027320E+00  0.1225480E+00 -0.1302791E+01 -0.3245172E-01  0.1181732E+00
  0.3263390E+01 -0.1640620E+02 -0.1027320E+00  0.2548238E+00 -0.1151316E+01 -0.1037862E+00  0.2327308E+00
  0.4855770E+01 -0.1600730E+02 -0.1027320E+00  0.3454933E+00 -0.1102281E+01 -0.1560117E+00  0.3082628E+00
  0.6401380E+01 -0.1545430E+02 -0.1027320E+00  0.4045123E+00 -0.1066908E+01 -0.1953125E+00  0.3542361E+00
  0.7885340E+01 -0.1475240E+02 -0.1027320E+00  0.4442412E+00 -0.1036727E+01 -0.2261366E+00  0.3823774E+00
  0.9293360E+01 -0.1390850E+02 -0.1027320E+00  0.4731706E+00 -0.1009611E+01 -0.2518169E+00  0.4005979E+00
  0.1061190E+02 -0.1293060E+02 -0.1027320E+00  0.4997792E+00 -0.9859840E+00 -0.2758996E+00  0.4167237E+00
  0.1182820E+02 -0.1182820E+02 -0.1027320E+00  0.5187764E+00 -0.9643028E+00 -0.2956973E+00  0.4262535E+00
  0.1293060E+02 -0.1061190E+02 -0.1027320E+00  0.5353533E+00 -0.9456905E+00 -0.3132797E+00  0.4341186E+00
  0.1390850E+02 -0.9293360E+01 -0.1027320E+00  0.5514185E+00 -0.9309998E+00 -0.3292147E+00  0.4423575E+00
