 VARIABLES="X" "Y" "Z" "abs(eta) (m)" "angle(phi) (rad)" "PRE1" "PRE2"
ZONE N=   3200 ,E =    3136 ,F=FEPOINT,ET=QUADRILATERAL
  0.1530690E+02  0.0000000E+00  0.0000000E+00  0.2536773E+00 -0.1213090E+01 -0.8881911E-01  0.2376201E+00
  0.1523320E+02  0.1500340E+01  0.0000000E+00  0.2512588E+00 -0.1208044E+01 -0.8915886E-01  0.2349078E+00
  0.1501280E+02  0.2986230E+01  0.0000000E+00  0.2478641E+00 -0.1205326E+01 -0.8858383E-01  0.2314941E+00
  0.1464780E+02  0.4443360E+01  0.0000000E+00  0.2434431E+00 -0.1205210E+01 -0.8703024E-01  0.2273550E+00
  0.1414170E+02  0.5857700E+01  0.0000000E+00  0.2379599E+00 -0.1208147E+01 -0.8441682E-01  0.2224830E+00
  0.1349950E+02  0.7215620E+01  0.0000000E+00  0.2316334E+00 -0.1214174E+01 -0.8086587E-01  0.2170593E+00
  0.1272720E+02  0.8504060E+01  0.0000000E+00  0.2258657E+00 -0.1222455E+01 -0.7709678E-01  0.2123003E+00
  0.1183240E+02  0.9710600E+01  0.0000000E+00  0.2198675E+00 -0.1232944E+01 -0.7287771E-01  0.2074381E+00
  0.1082360E+02  0.1082360E+02  0.0000000E+00  0.2129044E+00 -0.1246294E+01 -0.6788181E-01  0.2017928E+00
  0.9710590E+01  0.1183240E+02  0.0000000E+00  0.2035258E+00 -0.1263753E+01 -0.6151395E-01  0.1940071E+00
  0.8504060E+01  0.1272720E+02  0.0000000E+00  0.1940490E+00 -0.1283594E+01 -0.5496837E-01  0.1861008E+00
  0.7215620E+01  0.1349950E+02  0.0000000E+00  0.1799221E+00 -0.1310959E+01 -0.4622615E-01  0.1738825E+00
  0.5857700E+01  0.1414170E+02  0.0000000E+00  0.1631624E+00 -0.1345876E+01 -0.3638985E-01  0.1590527E+00
  0.4443360E+01  0.1464780E+02  0.0000000E+00  0.1395811E+00 -0.1402687E+01 -0.2335451E-01  0.1376134E+00
  0.2986230E+01  0.1501280E+02  0.0000000E+00  0.9738007E-01 -0.1560303E+01 -0.1021775E-02  0.9737471E-01
  0.1500340E+01  0.1523320E+02  0.0000000E+00  0.6929363E-01  0.2802027E+01  0.6533692E-01 -0.2308018E-01
 -0.6690860E-06  0.1530690E+02  0.0000000E+00  0.1277928E+00  0.2452296E+01  0.9861688E-01 -0.8127555E-01
 -0.1500340E+01  0.1523320E+02  0.0000000E+00  0.1679812E+00  0.2356716E+01  0.1188426E+00 -0.1187186E+00
 -0.2986230E+01  0.1501280E+02  0.0000000E+00  0.1881715E+00  0.2289777E+01  0.1239331E+00 -0.1415949E+00
 -0.4443360E+01  0.1464780E+02  0.0000000E+00  0.1869923E+00  0.2270895E+01  0.1204780E+00 -0.1430077E+00
 -0.5857700E+01  0.1414170E+02  0.0000000E+00  0.1845428E+00  0.2263371E+01  0.1178343E+00 -0.1420250E+00
 -0.7215620E+01  0.1349950E+02  0.0000000E+00  0.1831742E+00  0.2258690E+01  0.1162993E+00 -0.1415177E+00
 -0.8504060E+01  0.1272720E+02  0.0000000E+00  0.1821294E+00  0.2255975E+01  0.1152536E+00 -0.1410239E+00
 -0.9710590E+01  0.1183240E+02  0.0000000E+00  0.1792289E+00  0.2256731E+01  0.1135230E+00 -0.1386922E+00
 -0.1082360E+02  0.1082360E+02  0.0000000E+00  0.1766847E+00  0.2257148E+01  0.1119685E+00 -0.1366768E+00
 -0.1183240E+02  0.9710590E+01  0.0000000E+00  0.1739159E+00  0.2257667E+01  0.1102837E+00 -0.1344777E+00
 -0.1272720E+02  0.8504060E+01  0.0000000E+00  0.1713482E+00  0.2257002E+01  0.1085672E+00 -0.1325646E+00
 -0.1349950E+02  0.7215620E+01  0.0000000E+00  0.1686517E+00  0.2255643E+01  0.1066813E+00 -0.1306234E+00
 -0.1414170E+02  0.5857690E+01  0.0000000E+00  0.1661369E+00  0.2252460E+01  0.1046805E+00 -0.1290095E+00
 -0.1464780E+02  0.4443360E+01  0.0000000E+00  0.1635115E+00  0.2248053E+01  0.1024657E+00 -0.1274236E+00
 -0.1501280E+02  0.2986230E+01  0.0000000E+00  0.1604214E+00  0.2242933E+01  0.9988786E-01 -0.1255287E+00
 -0.1523320E+02  0.1500340E+01  0.0000000E+00  0.1569066E+00  0.2234925E+01  0.9671307E-01 -0.1235567E+00
 -0.1530690E+02 -0.1338170E-05  0.0000000E+00  0.1528633E+00  0.2224892E+01  0.9300839E-01 -0.1213121E+00
 -0.1523320E+02 -0.1500340E+01  0.0000000E+00  0.1483056E+00  0.2213724E+01  0.8891536E-01 -0.1186954E+00
 -0.1501280E+02 -0.2986230E+01  0.0000000E+00  0.1430357E+00  0.2203214E+01  0.8454787E-01 -0.1153727E+00
 -0.1464780E+02 -0.4443360E+01  0.0000000E+00  0.1371075E+00  0.2194080E+01  0.8003023E-01 -0.1113266E+00
 -0.1414170E+02 -0.5857700E+01  0.0000000E+00  0.1305745E+00  0.2186880E+01  0.7545155E-01 -0.1065681E+00
 -0.1349950E+02 -0.7215620E+01  0.0000000E+00  0.1235917E+00  0.2181178E+01  0.7084030E-01 -0.1012746E+00
 -0.1272720E+02 -0.8504060E+01  0.0000000E+00  0.1169107E+00  0.2168770E+01  0.6581707E-01 -0.9662408E-01
 -0.1183240E+02 -0.9710600E+01  0.0000000E+00  0.1099842E+00  0.2153089E+01  0.6048472E-01 -0.9185924E-01
 -0.1082360E+02 -0.1082360E+02  0.0000000E+00  0.1024015E+00  0.2139050E+01  0.5510847E-01 -0.8630826E-01
 -0.9710600E+01 -0.1183240E+02  0.0000000E+00  0.9320897E-01  0.2137305E+01  0.5002426E-01 -0.7864785E-01
 -0.8504050E+01 -0.1272720E+02  0.0000000E+00  0.8381525E-01  0.2133511E+01  0.4471414E-01 -0.7089177E-01
 -0.7215620E+01 -0.1349950E+02  0.0000000E+00  0.7116544E-01  0.2167276E+01  0.3997602E-01 -0.5887646E-01
 -0.5857690E+01 -0.1414170E+02  0.0000000E+00  0.5681187E-01  0.2246881E+01  0.3554968E-01 -0.4431488E-01
 -0.4443360E+01 -0.1464780E+02  0.0000000E+00  0.4023659E-01  0.2523981E+01  0.3280344E-01 -0.2330059E-01
 -0.2986230E+01 -0.1501280E+02  0.0000000E+00  0.3831083E-01 -0.2705492E+01  0.3472514E-01  0.1618282E-01
 -0.1500340E+01 -0.1523320E+02  0.0000000E+00  0.1471447E+00 -0.1979997E+01  0.5854539E-01  0.1349963E+00
  0.1825330E-06 -0.1530690E+02  0.0000000E+00  0.2023519E+00 -0.1876017E+01  0.6080745E-01  0.1929994E+00
  0.1500340E+01 -0.1523320E+02  0.0000000E+00  0.2366742E+00 -0.1789706E+01  0.5139744E-01  0.2310260E+00
  0.2986230E+01 -0.1501280E+02  0.0000000E+00  0.2567596E+00 -0.1648624E+01  0.1996287E-01  0.2559824E+00
  0.4443360E+01 -0.1464780E+02  0.0000000E+00  0.2583558E+00 -0.1569135E+01 -0.4292843E-03  0.2583555E+00
  0.5857700E+01 -0.1414170E+02  0.0000000E+00  0.2584296E+00 -0.1510178E+01 -0.1565608E-01  0.2579549E+00
  0.7215620E+01 -0.1349950E+02  0.0000000E+00  0.2593633E+00 -0.1462373E+01 -0.2806599E-01  0.2578403E+00
  0.8504060E+01 -0.1272720E+02  0.0000000E+00  0.2605435E+00 -0.1421281E+01 -0.3881018E-01  0.2576367E+00
  0.9710600E+01 -0.1183240E+02  0.0000000E+00  0.2600165E+00 -0.1384129E+01 -0.4825518E-01  0.2554996E+00
  0.1082360E+02 -0.1082360E+02  0.0000000E+00  0.2598754E+00 -0.1350860E+01 -0.5669633E-01  0.2536153E+00
  0.1183240E+02 -0.9710590E+01  0.0000000E+00  0.2594433E+00 -0.1322058E+01 -0.6387009E-01  0.2514586E+00
  0.1272720E+02 -0.8504060E+01  0.0000000E+00  0.2591441E+00 -0.1297461E+01 -0.6995461E-01  0.2495236E+00
  0.1349950E+02 -0.7215620E+01  0.0000000E+00  0.2586856E+00 -0.1275959E+01 -0.7516988E-01  0.2475232E+00
  0.1414170E+02 -0.5857700E+01  0.0000000E+00  0.2584006E+00 -0.1257575E+01 -0.7961971E-01  0.2458284E+00
  0.1464780E+02 -0.4443350E+01  0.0000000E+00  0.2578858E+00 -0.1242593E+01 -0.8312756E-01  0.2441206E+00
  0.1501280E+02 -0.2986230E+01  0.0000000E+00  0.2568076E+00 -0.1230407E+01 -0.8573629E-01  0.2420732E+00
  0.1523320E+02 -0.1500330E+01  0.0000000E+00  0.2554817E+00 -0.1220574E+01 -0.8765753E-01  0.2399731E+00
  0.1530690E+02  0.0000000E+00 -0.2568960E-01  0.2533882E+00 -0.1213089E+01 -0.8871819E-01  0.2373492E+00
  0.1523320E+02  0.1500340E+01 -0.2568960E-01  0.2509719E+00 -0.1208043E+01 -0.8905732E-01  0.2346395E+00
  0.1501280E+02  0.2986230E+01 -0.2568960E-01  0.2475833E+00 -0.1205329E+01 -0.8848278E-01  0.2312321E+00
  0.1464780E+02  0.4443360E+01 -0.2568960E-01  0.2431733E+00 -0.1205214E+01 -0.8693280E-01  0.2271033E+00
  0.1414170E+02  0.5857700E+01 -0.2568960E-01  0.2377037E+00 -0.1208159E+01 -0.8432338E-01  0.2222445E+00
  0.1349950E+02  0.7215620E+01 -0.2568960E-01  0.2313933E+00 -0.1214178E+01 -0.8078108E-01  0.2168347E+00
  0.1272720E+02  0.8504060E+01 -0.2568960E-01  0.2256297E+00 -0.1222460E+01 -0.7701521E-01  0.2120788E+00
  0.1183240E+02  0.9710600E+01 -0.2568960E-01  0.2196320E+00 -0.1232947E+01 -0.7279895E-01  0.2072162E+00
  0.1082360E+02  0.1082360E+02 -0.2568960E-01  0.2126743E+00 -0.1246307E+01 -0.6780593E-01  0.2015756E+00
  0.9710590E+01  0.1183240E+02 -0.2568960E-01  0.2033157E+00 -0.1263751E+01 -0.6145087E-01  0.1938068E+00
  0.8504060E+01  0.1272720E+02 -0.2568960E-01  0.1938351E+00 -0.1283606E+01 -0.5490546E-01  0.1858963E+00
  0.7215620E+01  0.1349950E+02 -0.2568960E-01  0.1797485E+00 -0.1310944E+01 -0.4618425E-01  0.1737139E+00
  0.5857700E+01  0.1414170E+02 -0.2568960E-01  0.1629918E+00 -0.1345880E+01 -0.3635129E-01  0.1588865E+00
  0.4443360E+01  0.1464780E+02 -0.2568960E-01  0.1394473E+00 -0.1402658E+01 -0.2333607E-01  0.1374808E+00
  0.2986230E+01  0.1501280E+02 -0.2568960E-01  0.9725296E-01 -0.1560446E+01 -0.1006562E-02  0.9724776E-01
  0.1500340E+01  0.1523320E+02 -0.2568960E-01  0.6914516E-01  0.2803008E+01  0.6521948E-01 -0.2296675E-01
 -0.6690860E-06  0.1530690E+02 -0.2568960E-01  0.1276789E+00  0.2452235E+01  0.9852403E-01 -0.8120909E-01
 -0.1500340E+01  0.1523320E+02 -0.2568960E-01  0.1678105E+00  0.2356668E+01  0.1187161E+00 -0.1186038E+00
 -0.2986230E+01  0.1501280E+02 -0.2568960E-01  0.1879961E+00  0.2289747E+01  0.1238133E+00 -0.1414666E+00
 -0.4443360E+01  0.1464780E+02 -0.2568960E-01  0.1868042E+00  0.2270881E+01  0.1203547E+00 -0.1428655E+00
 -0.5857700E+01  0.1414170E+02 -0.2568960E-01  0.1843586E+00  0.2263348E+01  0.1177136E+00 -0.1418859E+00
 -0.7215620E+01  0.1349950E+02 -0.2568960E-01  0.1829966E+00  0.2258666E+01  0.1161832E+00 -0.1413833E+00
 -0.8504060E+01  0.1272720E+02 -0.2568960E-01  0.1819348E+00  0.2255970E+01  0.1151297E+00 -0.1408737E+00
 -0.9710590E+01  0.1183240E+02 -0.2568960E-01  0.1790451E+00  0.2256704E+01  0.1134028E+00 -0.1385531E+00
 -0.1082360E+02  0.1082360E+02 -0.2568960E-01  0.1765021E+00  0.2257130E+01  0.1118503E+00 -0.1365376E+00
 -0.1183240E+02  0.9710590E+01 -0.2568960E-01  0.1737360E+00  0.2257642E+01  0.1101662E+00 -0.1343414E+00
 -0.1272720E+02  0.8504060E+01 -0.2568960E-01  0.1711732E+00  0.2256978E+01  0.1084532E+00 -0.1324318E+00
 -0.1349950E+02  0.7215620E+01 -0.2568960E-01  0.1684795E+00  0.2255618E+01  0.1065691E+00 -0.1304927E+00
 -0.1414170E+02  0.5857690E+01 -0.2568960E-01  0.1659639E+00  0.2252440E+01  0.1045689E+00 -0.1288772E+00
 -0.1464780E+02  0.4443360E+01 -0.2568960E-01  0.1633360E+00  0.2248043E+01  0.1023545E+00 -0.1272879E+00
 -0.1501280E+02  0.2986230E+01 -0.2568960E-01  0.1602451E+00  0.2242933E+01  0.9977808E-01 -0.1253906E+00
 -0.1523320E+02  0.1500340E+01 -0.2568960E-01  0.1567295E+00  0.2234925E+01  0.9660392E-01 -0.1234173E+00
 -0.1530690E+02 -0.1338170E-05 -0.2568960E-01  0.1526896E+00  0.2224905E+01  0.9290434E-01 -0.1211730E+00
 -0.1523320E+02 -0.1500340E+01 -0.2568960E-01  0.1481370E+00  0.2213744E+01  0.8881668E-01 -0.1185588E+00
 -0.1501280E+02 -0.2986230E+01 -0.2568960E-01  0.1428757E+00  0.2203229E+01  0.8445504E-01 -0.1152424E+00
 -0.1464780E+02 -0.4443360E+01 -0.2568960E-01  0.1369594E+00  0.2194075E+01  0.7994331E-01 -0.1112068E+00
 -0.1414170E+02 -0.5857700E+01 -0.2568960E-01  0.1304393E+00  0.2186837E+01  0.7536895E-01 -0.1064610E+00
 -0.1349950E+02 -0.7215620E+01 -0.2568960E-01  0.1234699E+00  0.2181094E+01  0.7076200E-01 -0.1011809E+00
 -0.1272720E+02 -0.8504060E+01 -0.2568960E-01  0.1167954E+00  0.2168685E+01  0.6574400E-01 -0.9653445E-01
 -0.1183240E+02 -0.9710600E+01 -0.2568960E-01  0.1098720E+00  0.2153042E+01  0.6041874E-01 -0.9176834E-01
 -0.1082360E+02 -0.1082360E+02 -0.2568960E-01  0.1022975E+00  0.2139026E+01  0.5505044E-01 -0.8622194E-01
 -0.9710600E+01 -0.1183240E+02 -0.2568960E-01  0.9312103E-01  0.2137206E+01  0.4996929E-01 -0.7857860E-01
 -0.8504050E+01 -0.1272720E+02 -0.2568960E-01  0.8372766E-01  0.2133513E+01  0.4466756E-01 -0.7081758E-01
 -0.7215620E+01 -0.1349950E+02 -0.2568960E-01  0.7110917E-01  0.2167063E+01  0.3993188E-01 -0.5883841E-01
 -0.5857690E+01 -0.1414170E+02 -0.2568960E-01  0.5676175E-01  0.2246801E+01  0.3551477E-01 -0.4427864E-01
 -0.4443360E+01 -0.1464780E+02 -0.2568960E-01  0.4020414E-01  0.2523508E+01  0.3276596E-01 -0.2329731E-01
 -0.2986230E+01 -0.1501280E+02 -0.2568960E-01  0.3828777E-01 -0.2705297E+01  0.3470109E-01  0.1617985E-01
 -0.1500340E+01 -0.1523320E+02 -0.2568960E-01  0.1468903E+00 -0.1980104E+01  0.5845862E-01  0.1347566E+00
  0.1825330E-06 -0.1530690E+02 -0.2568960E-01  0.2021513E+00 -0.1876058E+01  0.6075503E-01  0.1928056E+00
  0.1500340E+01 -0.1523320E+02 -0.2568960E-01  0.2364239E+00 -0.1789639E+01  0.5132769E-01  0.2307851E+00
  0.2986230E+01 -0.1501280E+02 -0.2568960E-01  0.2565008E+00 -0.1648684E+01  0.1995795E-01  0.2557231E+00
  0.4443360E+01 -0.1464780E+02 -0.2568960E-01  0.2580826E+00 -0.1569145E+01 -0.4262270E-03  0.2580822E+00
  0.5857700E+01 -0.1414170E+02 -0.2568960E-01  0.2581582E+00 -0.1510203E+01 -0.1563299E-01  0.2576845E+00
  0.7215620E+01 -0.1349950E+02 -0.2568960E-01  0.2590950E+00 -0.1462393E+01 -0.2803183E-01  0.2575742E+00
  0.8504060E+01 -0.1272720E+02 -0.2568960E-01  0.2602574E+00 -0.1421295E+01 -0.3876407E-01  0.2573543E+00
  0.9710600E+01 -0.1183240E+02 -0.2568960E-01  0.2597385E+00 -0.1384146E+01 -0.4819926E-01  0.2552272E+00
  0.1082360E+02 -0.1082360E+02 -0.2568960E-01  0.2595952E+00 -0.1350884E+01 -0.5662923E-01  0.2533433E+00
  0.1183240E+02 -0.9710590E+01 -0.2568960E-01  0.2591641E+00 -0.1322079E+01 -0.6379603E-01  0.2511894E+00
  0.1272720E+02 -0.8504060E+01 -0.2568960E-01  0.2588672E+00 -0.1297480E+01 -0.6987499E-01  0.2492583E+00
  0.1349950E+02 -0.7215620E+01 -0.2568960E-01  0.2584094E+00 -0.1275979E+01 -0.7508467E-01  0.2472604E+00
  0.1414170E+02 -0.5857700E+01 -0.2568960E-01  0.2581211E+00 -0.1257589E+01 -0.7952997E-01  0.2455636E+00
  0.1464780E+02 -0.4443350E+01 -0.2568960E-01  0.2576023E+00 -0.1242601E+01 -0.8303434E-01  0.2438529E+00
  0.1501280E+02 -0.2986230E+01 -0.2568960E-01  0.2565207E+00 -0.1230407E+01 -0.8564058E-01  0.2418027E+00
  0.1523320E+02 -0.1500330E+01 -0.2568960E-01  0.2551929E+00 -0.1220574E+01 -0.8755849E-01  0.2397018E+00
  0.1530690E+02  0.0000000E+00 -0.1027320E+00  0.2525137E+00 -0.1213095E+01 -0.8841051E-01  0.2365307E+00
  0.1523320E+02  0.1500340E+01 -0.1027320E+00  0.2501034E+00 -0.1208054E+01 -0.8874665E-01  0.2338285E+00
  0.1501280E+02  0.2986230E+01 -0.1027320E+00  0.2467335E+00 -0.1205351E+01 -0.8817405E-01  0.2304403E+00
  0.1464780E+02  0.4443360E+01 -0.1027320E+00  0.2423546E+00 -0.1205244E+01 -0.8663321E-01  0.2263414E+00
  0.1414170E+02  0.5857700E+01 -0.1027320E+00  0.2369272E+00 -0.1208186E+01 -0.8404183E-01  0.2215208E+00
  0.1349950E+02  0.7215620E+01 -0.1027320E+00  0.2306633E+00 -0.1214197E+01 -0.8052216E-01  0.2161521E+00
  0.1272720E+02  0.8504060E+01 -0.1027320E+00  0.2249148E+00 -0.1222480E+01 -0.7676698E-01  0.2114084E+00
  0.1183240E+02  0.9710600E+01 -0.1027320E+00  0.2189166E+00 -0.1232979E+01 -0.7255517E-01  0.2065436E+00
  0.1082360E+02  0.1082360E+02 -0.1027320E+00  0.2119770E+00 -0.1246344E+01 -0.6757600E-01  0.2009172E+00
  0.9710590E+01  0.1183240E+02 -0.1027320E+00  0.2026787E+00 -0.1263764E+01 -0.6125586E-01  0.1932004E+00
  0.8504060E+01  0.1272720E+02 -0.1027320E+00  0.1931859E+00 -0.1283651E+01 -0.5471331E-01  0.1852762E+00
  0.7215620E+01  0.1349950E+02 -0.1027320E+00  0.1792029E+00 -0.1310922E+01 -0.4604787E-01  0.1731857E+00
  0.5857700E+01  0.1414170E+02 -0.1027320E+00  0.1624764E+00 -0.1345890E+01 -0.3623465E-01  0.1583844E+00
  0.4443360E+01  0.1464780E+02 -0.1027320E+00  0.1390371E+00 -0.1402590E+01 -0.2327678E-01  0.1370748E+00
  0.2986230E+01  0.1501280E+02 -0.1027320E+00  0.9693140E-01 -0.1560536E+01 -0.9945584E-03  0.9692629E-01
  0.1500340E+01  0.1523320E+02 -0.1027320E+00  0.6885990E-01  0.2803837E+01  0.6496937E-01 -0.2281811E-01
 -0.6690860E-06  0.1530690E+02 -0.1027320E+00  0.1273208E+00  0.2452099E+01  0.9823669E-01 -0.8099463E-01
 -0.1500340E+01  0.1523320E+02 -0.1027320E+00  0.1673269E+00  0.2356557E+01  0.1183608E+00 -0.1182750E+00
 -0.2986230E+01  0.1501280E+02 -0.1027320E+00  0.1874931E+00  0.2289641E+01  0.1234672E+00 -0.1411011E+00
 -0.4443360E+01  0.1464780E+02 -0.1027320E+00  0.1862297E+00  0.2270829E+01  0.1199771E+00 -0.1424324E+00
 -0.5857700E+01  0.1414170E+02 -0.1027320E+00  0.1838099E+00  0.2263284E+01  0.1173542E+00 -0.1414711E+00
 -0.7215620E+01  0.1349950E+02 -0.1027320E+00  0.1824458E+00  0.2258600E+01  0.1158242E+00 -0.1409653E+00
 -0.8504060E+01  0.1272720E+02 -0.1027320E+00  0.1813449E+00  0.2255956E+01  0.1147544E+00 -0.1404186E+00
 -0.9710590E+01  0.1183240E+02 -0.1027320E+00  0.1784909E+00  0.2256657E+01  0.1130452E+00 -0.1381295E+00
 -0.1082360E+02  0.1082360E+02 -0.1027320E+00  0.1759476E+00  0.2257091E+01  0.1114936E+00 -0.1361129E+00
 -0.1183240E+02  0.9710590E+01 -0.1027320E+00  0.1731914E+00  0.2257598E+01  0.1098150E+00 -0.1339252E+00
 -0.1272720E+02  0.8504060E+01 -0.1027320E+00  0.1706412E+00  0.2256918E+01  0.1081083E+00 -0.1320266E+00
 -0.1349950E+02  0.7215620E+01 -0.1027320E+00  0.1679556E+00  0.2255548E+01  0.1062288E+00 -0.1300944E+00
 -0.1414170E+02  0.5857690E+01 -0.1027320E+00  0.1654373E+00  0.2252391E+01  0.1042309E+00 -0.1284734E+00
 -0.1464780E+02  0.4443360E+01 -0.1027320E+00  0.1628016E+00  0.2248020E+01  0.1020167E+00 -0.1268738E+00
 -0.1501280E+02  0.2986230E+01 -0.1027320E+00  0.1597074E+00  0.2242927E+01  0.9944259E-01 -0.1249705E+00
 -0.1523320E+02  0.1500340E+01 -0.1027320E+00  0.1561937E+00  0.2234956E+01  0.9627741E-01 -0.1229924E+00
 -0.1530690E+02 -0.1338170E-05 -0.1027320E+00  0.1521630E+00  0.2224979E+01  0.9259288E-01 -0.1207483E+00
 -0.1523320E+02 -0.1500340E+01 -0.1027320E+00  0.1476275E+00  0.2213846E+01  0.8852322E-01 -0.1181419E+00
 -0.1501280E+02 -0.2986230E+01 -0.1027320E+00  0.1423914E+00  0.2203318E+01  0.8417904E-01 -0.1148442E+00
 -0.1464780E+02 -0.4443360E+01 -0.1027320E+00  0.1365088E+00  0.2194108E+01  0.7968395E-01 -0.1108382E+00
 -0.1414170E+02 -0.5857700E+01 -0.1027320E+00  0.1300287E+00  0.2186769E+01  0.7512448E-01 -0.1061309E+00
 -0.1349950E+02 -0.7215620E+01 -0.1027320E+00  0.1230980E+00  0.2180884E+01  0.7052768E-01 -0.1008909E+00
 -0.1272720E+02 -0.8504060E+01 -0.1027320E+00  0.1164444E+00  0.2168503E+01  0.6552890E-01 -0.9625625E-01
 -0.1183240E+02 -0.9710600E+01 -0.1027320E+00  0.1095314E+00  0.2152977E+01  0.6022543E-01 -0.9148785E-01
 -0.1082360E+02 -0.1082360E+02 -0.1027320E+00  0.1019792E+00  0.2138999E+01  0.5487688E-01 -0.8595512E-01
 -0.9710600E+01 -0.1183240E+02 -0.1027320E+00  0.9285270E-01  0.2136972E+01  0.4980694E-01 -0.7836385E-01
 -0.8504050E+01 -0.1272720E+02 -0.1027320E+00  0.8346009E-01  0.2133572E+01  0.4452893E-01 -0.7058867E-01
 -0.7215620E+01 -0.1349950E+02 -0.1027320E+00  0.7092129E-01  0.2166614E+01  0.3980000E-01 -0.5870084E-01
 -0.5857690E+01 -0.1414170E+02 -0.1027320E+00  0.5660751E-01  0.2246560E+01  0.3540760E-01 -0.4416687E-01
 -0.4443360E+01 -0.1464780E+02 -0.1027320E+00  0.4010496E-01  0.2522300E+01  0.3265704E-01 -0.2327929E-01
 -0.2986230E+01 -0.1501280E+02 -0.1027320E+00  0.3818119E-01 -0.2705920E+01  0.3461453E-01  0.1611326E-01
 -0.1500340E+01 -0.1523320E+02 -0.1027320E+00  0.1463262E+00 -0.1980304E+01  0.5826092E-01  0.1342275E+00
  0.1825330E-06 -0.1530690E+02 -0.1027320E+00  0.2015331E+00 -0.1876173E+01  0.6059143E-01  0.1922090E+00
  0.1500340E+01 -0.1523320E+02 -0.1027320E+00  0.2356963E+00 -0.1789643E+01  0.5117054E-01  0.2300746E+00
  0.2986230E+01 -0.1501280E+02 -0.1027320E+00  0.2557457E+00 -0.1648818E+01  0.1993344E-01  0.2549677E+00
  0.4443360E+01 -0.1464780E+02 -0.1027320E+00  0.2572579E+00 -0.1569172E+01 -0.4178388E-03  0.2572576E+00
  0.5857700E+01 -0.1414170E+02 -0.1027320E+00  0.2573467E+00 -0.1510281E+01 -0.1556396E-01  0.2568756E+00
  0.7215620E+01 -0.1349950E+02 -0.1027320E+00  0.2582758E+00 -0.1462454E+01 -0.2792758E-01  0.2567615E+00
  0.8504060E+01 -0.1272720E+02 -0.1027320E+00  0.2593952E+00 -0.1421330E+01 -0.3862666E-01  0.2565031E+00
  0.9710600E+01 -0.1183240E+02 -0.1027320E+00  0.2589023E+00 -0.1384195E+01 -0.4803175E-01  0.2544079E+00
  0.1082360E+02 -0.1082360E+02 -0.1027320E+00  0.2587506E+00 -0.1350938E+01 -0.5643122E-01  0.2525221E+00
  0.1183240E+02 -0.9710590E+01 -0.1027320E+00  0.2583220E+00 -0.1322133E+01 -0.6357535E-01  0.2503766E+00
  0.1272720E+02 -0.8504060E+01 -0.1027320E+00  0.2580306E+00 -0.1297532E+01 -0.6963624E-01  0.2484564E+00
