 VARIABLES="X" "Y" "Z" "abs(eta) (m)" "angle(phi) (rad)" "PRE1" "PRE2"
ZONE N=   3200 ,E =    3136 ,F=FEPOINT,ET=QUADRILATERAL
  0.1530690E+02  0.0000000E+00  0.0000000E+00  0.3031975E+00 -0.7133179E+00 -0.2292764E+00  0.1983962E+00
  0.1523320E+02  0.1500340E+01  0.0000000E+00  0.3045630E+00 -0.7233173E+00 -0.2283048E+00  0.2015827E+00
  0.1501280E+02  0.2986230E+01  0.0000000E+00  0.3051161E+00 -0.7381615E+00 -0.2256965E+00  0.2053215E+00
  0.1464780E+02  0.4443360E+01  0.0000000E+00  0.3045384E+00 -0.7579705E+00 -0.2211657E+00  0.2093546E+00
  0.1414170E+02  0.5857700E+01  0.0000000E+00  0.3031061E+00 -0.7830774E+00 -0.2148252E+00  0.2138304E+00
  0.1349950E+02  0.7215620E+01  0.0000000E+00  0.3012155E+00 -0.8128680E+00 -0.2070611E+00  0.2187613E+00
  0.1272720E+02  0.8504060E+01  0.0000000E+00  0.2993721E+00 -0.8497350E+00 -0.1976401E+00  0.2248600E+00
  0.1183240E+02  0.9710600E+01  0.0000000E+00  0.2963192E+00 -0.8930756E+00 -0.1857978E+00  0.2308338E+00
  0.1082360E+02  0.1082360E+02  0.0000000E+00  0.2917178E+00 -0.9433938E+00 -0.1712511E+00  0.2361616E+00
  0.9710590E+01  0.1183240E+02  0.0000000E+00  0.2872939E+00 -0.1000187E+01 -0.1551804E+00  0.2417785E+00
  0.8504060E+01  0.1272720E+02  0.0000000E+00  0.2821877E+00 -0.1064932E+01 -0.1367380E+00  0.2468454E+00
  0.7215620E+01  0.1349950E+02  0.0000000E+00  0.2756704E+00 -0.1139945E+01 -0.1151324E+00  0.2504770E+00
  0.5857700E+01  0.1414170E+02  0.0000000E+00  0.2707526E+00 -0.1234439E+01 -0.8936220E-01  0.2555805E+00
  0.4443360E+01  0.1464780E+02  0.0000000E+00  0.2657206E+00 -0.1349651E+01 -0.5828495E-01  0.2592495E+00
  0.2986230E+01  0.1501280E+02  0.0000000E+00  0.2635995E+00 -0.1520563E+01 -0.1323589E-01  0.2632670E+00
  0.1500340E+01  0.1523320E+02  0.0000000E+00  0.2647600E+00 -0.1835864E+01  0.6936031E-01  0.2555133E+00
 -0.6690860E-06  0.1530690E+02  0.0000000E+00  0.2501381E+00 -0.1979051E+01  0.9930675E-01  0.2295806E+00
 -0.1500340E+01  0.1523320E+02  0.0000000E+00  0.2085991E+00 -0.2086066E+01  0.1027914E+00  0.1815145E+00
 -0.2986230E+01  0.1501280E+02  0.0000000E+00  0.9441104E-01 -0.2286690E+01  0.6196123E-01  0.7123377E-01
 -0.4443360E+01  0.1464780E+02  0.0000000E+00  0.6578676E-01 -0.2603090E+01  0.5647645E-01  0.3373882E-01
 -0.5857700E+01  0.1414170E+02  0.0000000E+00  0.6205692E-01 -0.2909727E+01  0.6039624E-01  0.1426027E-01
 -0.7215620E+01  0.1349950E+02  0.0000000E+00  0.6660344E-01 -0.3118731E+01  0.6658603E-01  0.1522545E-02
 -0.8504060E+01  0.1272720E+02  0.0000000E+00  0.7500922E-01  0.3025218E+01  0.7450186E-01 -0.8709520E-02
 -0.9710590E+01  0.1183240E+02  0.0000000E+00  0.8442587E-01  0.2960986E+01  0.8305267E-01 -0.1516510E-01
 -0.1082360E+02  0.1082360E+02  0.0000000E+00  0.9388831E-01  0.2928896E+01  0.9177255E-01 -0.1981952E-01
 -0.1183240E+02  0.9710590E+01  0.0000000E+00  0.1030934E+00  0.2899475E+01  0.1000864E+00 -0.2471755E-01
 -0.1272720E+02  0.8504060E+01  0.0000000E+00  0.1122289E+00  0.2897646E+01  0.1089061E+00 -0.2710715E-01
 -0.1349950E+02  0.7215620E+01  0.0000000E+00  0.1209480E+00  0.2907628E+01  0.1176528E+00 -0.2804006E-01
 -0.1414170E+02  0.5857690E+01  0.0000000E+00  0.1295990E+00  0.2911005E+01  0.1261688E+00 -0.2961982E-01
 -0.1464780E+02  0.4443360E+01  0.0000000E+00  0.1377617E+00  0.2909480E+01  0.1340673E+00 -0.3168991E-01
 -0.1501280E+02  0.2986230E+01  0.0000000E+00  0.1457625E+00  0.2907250E+01  0.1417784E+00 -0.3384657E-01
 -0.1523320E+02  0.1500340E+01  0.0000000E+00  0.1536085E+00  0.2905622E+01  0.1493516E+00 -0.3591160E-01
 -0.1530690E+02 -0.1338170E-05  0.0000000E+00  0.1610699E+00  0.2903331E+01  0.1565196E+00 -0.3801468E-01
 -0.1523320E+02 -0.1500340E+01  0.0000000E+00  0.1680242E+00  0.2899704E+01  0.1631325E+00 -0.4024801E-01
 -0.1501280E+02 -0.2986230E+01  0.0000000E+00  0.1744550E+00  0.2893818E+01  0.1691272E+00 -0.4278463E-01
 -0.1464780E+02 -0.4443360E+01  0.0000000E+00  0.1806440E+00  0.2886039E+01  0.1747773E+00 -0.4566345E-01
 -0.1414170E+02 -0.5857700E+01  0.0000000E+00  0.1866936E+00  0.2875821E+01  0.1801388E+00 -0.4903588E-01
 -0.1349950E+02 -0.7215620E+01  0.0000000E+00  0.1924574E+00  0.2863617E+01  0.1850695E+00 -0.5281217E-01
 -0.1272720E+02 -0.8504060E+01  0.0000000E+00  0.1986881E+00  0.2846382E+01  0.1900931E+00 -0.5780653E-01
 -0.1183240E+02 -0.9710600E+01  0.0000000E+00  0.2041916E+00  0.2828892E+01  0.1942896E+00 -0.6281540E-01
 -0.1082360E+02 -0.1082360E+02  0.0000000E+00  0.2085030E+00  0.2812480E+01  0.1973125E+00 -0.6738886E-01
 -0.9710600E+01 -0.1183240E+02  0.0000000E+00  0.2129427E+00  0.2794247E+01  0.2002257E+00 -0.7248635E-01
 -0.8504050E+01 -0.1272720E+02  0.0000000E+00  0.2167308E+00  0.2776644E+01  0.2024574E+00 -0.7735147E-01
 -0.7215620E+01 -0.1349950E+02  0.0000000E+00  0.2190413E+00  0.2761900E+01  0.2034409E+00 -0.8118428E-01
 -0.5857690E+01 -0.1414170E+02  0.0000000E+00  0.2243133E+00  0.2743057E+01  0.2067339E+00 -0.8704901E-01
 -0.4443360E+01 -0.1464780E+02  0.0000000E+00  0.2291829E+00  0.2727966E+01  0.2098557E+00 -0.9211607E-01
 -0.2986230E+01 -0.1501280E+02  0.0000000E+00  0.2387151E+00  0.2714754E+01  0.2172973E+00 -0.9882697E-01
 -0.1500340E+01 -0.1523320E+02  0.0000000E+00  0.2366387E+00  0.2718767E+01  0.2157987E+00 -0.9710208E-01
  0.1825330E-06 -0.1530690E+02  0.0000000E+00  0.1941920E+00  0.2754058E+01  0.1797914E+00 -0.7338648E-01
  0.1500340E+01 -0.1523320E+02  0.0000000E+00  0.1173614E+00  0.2921133E+01  0.1145210E+00 -0.2566435E-01
  0.2986230E+01 -0.1501280E+02  0.0000000E+00  0.9049284E-01 -0.1321977E+01 -0.2228471E-01  0.8770602E-01
  0.4443360E+01 -0.1464780E+02  0.0000000E+00  0.1458621E+00 -0.1050235E+01 -0.7254698E-01  0.1265413E+00
  0.5857700E+01 -0.1414170E+02  0.0000000E+00  0.1791145E+00 -0.9567322E+00 -0.1032047E+00  0.1463926E+00
  0.7215620E+01 -0.1349950E+02  0.0000000E+00  0.2034522E+00 -0.8980363E+00 -0.1267806E+00  0.1591209E+00
  0.8504060E+01 -0.1272720E+02  0.0000000E+00  0.2243855E+00 -0.8533772E+00 -0.1475205E+00  0.1690756E+00
  0.9710600E+01 -0.1183240E+02  0.0000000E+00  0.2399499E+00 -0.8182180E+00 -0.1640113E+00  0.1751464E+00
  0.1082360E+02 -0.1082360E+02  0.0000000E+00  0.2527445E+00 -0.7890227E+00 -0.1780684E+00  0.1793640E+00
  0.1183240E+02 -0.9710590E+01  0.0000000E+00  0.2656216E+00 -0.7645069E+00 -0.1917054E+00  0.1838583E+00
  0.1272720E+02 -0.8504060E+01  0.0000000E+00  0.2742597E+00 -0.7443724E+00 -0.2017216E+00  0.1858138E+00
  0.1349950E+02 -0.7215620E+01  0.0000000E+00  0.2803237E+00 -0.7279234E+00 -0.2092778E+00  0.1865052E+00
  0.1414170E+02 -0.5857700E+01  0.0000000E+00  0.2864596E+00 -0.7164137E+00 -0.2160380E+00  0.1881135E+00
  0.1464780E+02 -0.4443350E+01  0.0000000E+00  0.2924783E+00 -0.7093530E+00 -0.2219277E+00  0.1905037E+00
  0.1501280E+02 -0.2986230E+01  0.0000000E+00  0.2974057E+00 -0.7065123E+00 -0.2262159E+00  0.1930713E+00
  0.1523320E+02 -0.1500330E+01  0.0000000E+00  0.3008419E+00 -0.7077858E+00 -0.2285806E+00  0.1955933E+00
  0.1530690E+02  0.0000000E+00 -0.2568960E-01  0.3027235E+00 -0.7133498E+00 -0.2289117E+00  0.1980933E+00
  0.1523320E+02  0.1500340E+01 -0.2568960E-01  0.3040860E+00 -0.7233536E+00 -0.2279399E+00  0.2012752E+00
  0.1501280E+02  0.2986230E+01 -0.2568960E-01  0.3046373E+00 -0.7381995E+00 -0.2253346E+00  0.2050079E+00
  0.1464780E+02  0.4443360E+01 -0.2568960E-01  0.3040596E+00 -0.7580082E+00 -0.2208102E+00  0.2090338E+00
  0.1414170E+02  0.5857700E+01 -0.2568960E-01  0.3026288E+00 -0.7831118E+00 -0.2144796E+00  0.2135011E+00
  0.1349950E+02  0.7215620E+01 -0.2568960E-01  0.3007382E+00 -0.8129030E+00 -0.2067253E+00  0.2184218E+00
  0.1272720E+02  0.8504060E+01 -0.2568960E-01  0.2988890E+00 -0.8497632E+00 -0.1973149E+00  0.2245027E+00
  0.1183240E+02  0.9710600E+01 -0.2568960E-01  0.2958384E+00 -0.8931035E+00 -0.1854899E+00  0.2304645E+00
  0.1082360E+02  0.1082360E+02 -0.2568960E-01  0.2912510E+00 -0.9434133E+00 -0.1709726E+00  0.2357871E+00
  0.9710590E+01  0.1183240E+02 -0.2568960E-01  0.2868311E+00 -0.1000211E+01 -0.1549245E+00  0.2413928E+00
  0.8504060E+01  0.1272720E+02 -0.2568960E-01  0.2817322E+00 -0.1064965E+01 -0.1365090E+00  0.2464515E+00
  0.7215620E+01  0.1349950E+02 -0.2568960E-01  0.2752418E+00 -0.1139995E+01 -0.1149407E+00  0.2500934E+00
  0.5857700E+01  0.1414170E+02 -0.2568960E-01  0.2703254E+00 -0.1234460E+01 -0.8921587E-01  0.2551790E+00
  0.4443360E+01  0.1464780E+02 -0.2568960E-01  0.2653113E+00 -0.1349687E+01 -0.5818595E-01  0.2588523E+00
  0.2986230E+01  0.1501280E+02 -0.2568960E-01  0.2631934E+00 -0.1520633E+01 -0.1319726E-01  0.2628624E+00
  0.1500340E+01  0.1523320E+02 -0.2568960E-01  0.2643938E+00 -0.1836001E+01  0.6929930E-01  0.2551503E+00
 -0.6690860E-06  0.1530690E+02 -0.2568960E-01  0.2497660E+00 -0.1979148E+01  0.9918144E-01  0.2292294E+00
 -0.1500340E+01  0.1523320E+02 -0.2568960E-01  0.2082971E+00 -0.2086238E+01  0.1026736E+00  0.1812342E+00
 -0.2986230E+01  0.1501280E+02 -0.2568960E-01  0.9426159E-01 -0.2286905E+01  0.6187839E-01  0.7110776E-01
 -0.4443360E+01  0.1464780E+02 -0.2568960E-01  0.6567146E-01 -0.2603534E+01  0.5639241E-01  0.3365467E-01
 -0.5857700E+01  0.1414170E+02 -0.2568960E-01  0.6195601E-01 -0.2910094E+01  0.6030325E-01  0.1421497E-01
 -0.7215620E+01  0.1349950E+02 -0.2568960E-01  0.6650537E-01 -0.3119083E+01  0.6648852E-01  0.1496884E-02
 -0.8504060E+01  0.1272720E+02 -0.2568960E-01  0.7489793E-01  0.3025167E+01  0.7439089E-01 -0.8700327E-02
 -0.9710590E+01  0.1183240E+02 -0.2568960E-01  0.8429771E-01  0.2960912E+01  0.8292548E-01 -0.1514823E-01
 -0.1082360E+02  0.1082360E+02 -0.2568960E-01  0.9374499E-01  0.2928776E+01  0.9163009E-01 -0.1980024E-01
 -0.1183240E+02  0.9710590E+01 -0.2568960E-01  0.1029360E+00  0.2899477E+01  0.9993363E-01 -0.2467965E-01
 -0.1272720E+02  0.8504060E+01 -0.2568960E-01  0.1120567E+00  0.2897627E+01  0.1087384E+00 -0.2706763E-01
 -0.1349950E+02  0.7215620E+01 -0.2568960E-01  0.1207645E+00  0.2907521E+01  0.1174712E+00 -0.2801012E-01
 -0.1414170E+02  0.5857690E+01 -0.2568960E-01  0.1294022E+00  0.2910869E+01  0.1259732E+00 -0.2959197E-01
 -0.1464780E+02  0.4443360E+01 -0.2568960E-01  0.1375532E+00  0.2909353E+01  0.1338604E+00 -0.3165897E-01
 -0.1501280E+02  0.2986230E+01 -0.2568960E-01  0.1455416E+00  0.2907142E+01  0.1415599E+00 -0.3381060E-01
 -0.1523320E+02  0.1500340E+01 -0.2568960E-01  0.1533748E+00  0.2905527E+01  0.1491211E+00 -0.3587121E-01
 -0.1530690E+02 -0.1338170E-05 -0.2568960E-01  0.1608249E+00  0.2903243E+01  0.1562782E+00 -0.3797071E-01
 -0.1523320E+02 -0.1500340E+01 -0.2568960E-01  0.1677694E+00  0.2899622E+01  0.1628819E+00 -0.4020021E-01
 -0.1501280E+02 -0.2986230E+01 -0.2568960E-01  0.1741918E+00  0.2893742E+01  0.1688688E+00 -0.4273297E-01
 -0.1464780E+02 -0.4443360E+01 -0.2568960E-01  0.1803721E+00  0.2885965E+01  0.1745109E+00 -0.4560754E-01
 -0.1414170E+02 -0.5857700E+01 -0.2568960E-01  0.1864121E+00  0.2875757E+01  0.1798641E+00 -0.4897341E-01
 -0.1349950E+02 -0.7215620E+01 -0.2568960E-01  0.1921653E+00  0.2863566E+01  0.1847860E+00 -0.5274141E-01
 -0.1272720E+02 -0.8504060E+01 -0.2568960E-01  0.1983779E+00  0.2846371E+01  0.1897956E+00 -0.5771839E-01
 -0.1183240E+02 -0.9710600E+01 -0.2568960E-01  0.2038705E+00  0.2828886E+01  0.1939837E+00 -0.6271783E-01
 -0.1082360E+02 -0.1082360E+02 -0.2568960E-01  0.2081799E+00  0.2812463E+01  0.1970056E+00 -0.6728787E-01
 -0.9710600E+01 -0.1183240E+02 -0.2568960E-01  0.2126101E+00  0.2794241E+01  0.1999126E+00 -0.7237430E-01
 -0.8504050E+01 -0.1272720E+02 -0.2568960E-01  0.2163941E+00  0.2776638E+01  0.2021424E+00 -0.7723249E-01
 -0.7215620E+01 -0.1349950E+02 -0.2568960E-01  0.2187232E+00  0.2761859E+01  0.2031421E+00 -0.8107481E-01
 -0.5857690E+01 -0.1414170E+02 -0.2568960E-01  0.2239719E+00  0.2743043E+01  0.2064181E+00 -0.8691946E-01
 -0.4443360E+01 -0.1464780E+02 -0.2568960E-01  0.2288510E+00  0.2727937E+01  0.2095491E+00 -0.9198885E-01
 -0.2986230E+01 -0.1501280E+02 -0.2568960E-01  0.2383705E+00  0.2714728E+01  0.2169811E+00 -0.9868998E-01
 -0.1500340E+01 -0.1523320E+02 -0.2568960E-01  0.2363479E+00  0.2718690E+01  0.2155260E+00 -0.9699930E-01
  0.1825330E-06 -0.1530690E+02 -0.2568960E-01  0.1939205E+00  0.2754018E+01  0.1795371E+00 -0.7329106E-01
  0.1500340E+01 -0.1523320E+02 -0.2568960E-01  0.1172033E+00  0.2921040E+01  0.1143643E+00 -0.2564044E-01
  0.2986230E+01 -0.1501280E+02 -0.2568960E-01  0.9035613E-01 -0.1321984E+01 -0.2225043E-01  0.8757367E-01
  0.4443360E+01 -0.1464780E+02 -0.2568960E-01  0.1456637E+00 -0.1050187E+01 -0.7245438E-01  0.1263657E+00
  0.5857700E+01 -0.1414170E+02 -0.2568960E-01  0.1788519E+00 -0.9567309E+00 -0.1030536E+00  0.1461779E+00
  0.7215620E+01 -0.1349950E+02 -0.2568960E-01  0.2031479E+00 -0.8980568E+00 -0.1265878E+00  0.1588856E+00
  0.8504060E+01 -0.1272720E+02 -0.2568960E-01  0.2240237E+00 -0.8533989E+00 -0.1472789E+00  0.1688061E+00
  0.9710600E+01 -0.1183240E+02 -0.2568960E-01  0.2395669E+00 -0.8182405E+00 -0.1637456E+00  0.1748705E+00
  0.1082360E+02 -0.1082360E+02 -0.2568960E-01  0.2523497E+00 -0.7890458E+00 -0.1777861E+00  0.1790878E+00
  0.1183240E+02 -0.9710590E+01 -0.2568960E-01  0.2651888E+00 -0.7645312E+00 -0.1913886E+00  0.1835633E+00
  0.1272720E+02 -0.8504060E+01 -0.2568960E-01  0.2738158E+00 -0.7443945E+00 -0.2013910E+00  0.1855174E+00
  0.1349950E+02 -0.7215620E+01 -0.2568960E-01  0.2798872E+00 -0.7279486E+00 -0.2089472E+00  0.1862200E+00
  0.1414170E+02 -0.5857700E+01 -0.2568960E-01  0.2860188E+00 -0.7164423E+00 -0.2157002E+00  0.1878303E+00
  0.1464780E+02 -0.4443350E+01 -0.2568960E-01  0.2920268E+00 -0.7093833E+00 -0.2215793E+00  0.1902163E+00
  0.1501280E+02 -0.2986230E+01 -0.2568960E-01  0.2969427E+00 -0.7065453E+00 -0.2258573E+00  0.1927781E+00
  0.1523320E+02 -0.1500330E+01 -0.2568960E-01  0.3003721E+00 -0.7078177E+00 -0.2282175E+00  0.1952951E+00
  0.1530690E+02  0.0000000E+00 -0.1027320E+00  0.3013200E+00 -0.7134532E+00 -0.2278300E+00  0.1971985E+00
  0.1523320E+02  0.1500340E+01 -0.1027320E+00  0.3026745E+00 -0.7234641E+00 -0.2268597E+00  0.2003660E+00
  0.1501280E+02  0.2986230E+01 -0.1027320E+00  0.3032192E+00 -0.7383177E+00 -0.2242615E+00  0.2040801E+00
  0.1464780E+02  0.4443360E+01 -0.1027320E+00  0.3026434E+00 -0.7581241E+00 -0.2197576E+00  0.2080857E+00
  0.1414170E+02  0.5857700E+01 -0.1027320E+00  0.3012179E+00 -0.7832149E+00 -0.2134577E+00  0.2125277E+00
  0.1349950E+02  0.7215620E+01 -0.1027320E+00  0.2993248E+00 -0.8130080E+00 -0.2057309E+00  0.2174169E+00
  0.1272720E+02  0.8504060E+01 -0.1027320E+00  0.2974579E+00 -0.8498451E+00 -0.1963518E+00  0.2234439E+00
  0.1183240E+02  0.9710600E+01 -0.1027320E+00  0.2944149E+00 -0.8931764E+00 -0.1845806E+00  0.2293689E+00
  0.1082360E+02  0.1082360E+02 -0.1027320E+00  0.2898660E+00 -0.9434755E+00 -0.1701449E+00  0.2346764E+00
  0.9710590E+01  0.1183240E+02 -0.1027320E+00  0.2854558E+00 -0.1000281E+01 -0.1541649E+00  0.2402462E+00
  0.8504060E+01  0.1272720E+02 -0.1027320E+00  0.2803780E+00 -0.1065061E+01 -0.1358294E+00  0.2452798E+00
  0.7215620E+01  0.1349950E+02 -0.1027320E+00  0.2739570E+00 -0.1140152E+01 -0.1143651E+00  0.2489439E+00
  0.5857700E+01  0.1414170E+02 -0.1027320E+00  0.2690576E+00 -0.1234525E+01 -0.8878090E-01  0.2539881E+00
  0.4443360E+01  0.1464780E+02 -0.1027320E+00  0.2640927E+00 -0.1349775E+01 -0.5789600E-01  0.2576684E+00
  0.2986230E+01  0.1501280E+02 -0.1027320E+00  0.2619831E+00 -0.1520837E+01 -0.1308298E-01  0.2616562E+00
  0.1500340E+01  0.1523320E+02 -0.1027320E+00  0.2632734E+00 -0.1836337E+01  0.6909104E-01  0.2540459E+00
 -0.6690860E-06  0.1530690E+02 -0.1027320E+00  0.2487171E+00 -0.1979555E+01  0.9885776E-01  0.2282265E+00
 -0.1500340E+01  0.1523320E+02 -0.1027320E+00  0.2073699E+00 -0.2086679E+01  0.1022961E+00  0.1803823E+00
 -0.2986230E+01  0.1501280E+02 -0.1027320E+00  0.9382176E-01 -0.2287512E+01  0.6163263E-01  0.7073855E-01
 -0.4443360E+01  0.1464780E+02 -0.1027320E+00  0.6532250E-01 -0.2604855E+01  0.5613693E-01  0.3340172E-01
 -0.5857700E+01  0.1414170E+02 -0.1027320E+00  0.6165593E-01 -0.2911208E+01  0.6002690E-01  0.1407928E-01
 -0.7215620E+01  0.1349950E+02 -0.1027320E+00  0.6621510E-01 -0.3119887E+01  0.6619950E-01  0.1437160E-02
 -0.8504060E+01  0.1272720E+02 -0.1027320E+00  0.7456446E-01  0.3025027E+01  0.7405846E-01 -0.8671985E-02
 -0.9710590E+01  0.1183240E+02 -0.1027320E+00  0.8391557E-01  0.2960666E+01  0.8254585E-01 -0.1509987E-01
 -0.1082360E+02  0.1082360E+02 -0.1027320E+00  0.9331663E-01  0.2928364E+01  0.9120326E-01 -0.1974734E-01
 -0.1183240E+02  0.9710590E+01 -0.1027320E+00  0.1024658E+00  0.2899457E+01  0.9947666E-01 -0.2456891E-01
 -0.1272720E+02  0.8504060E+01 -0.1027320E+00  0.1115440E+00  0.2897533E+01  0.1082384E+00 -0.2695389E-01
 -0.1349950E+02  0.7215620E+01 -0.1027320E+00  0.1202177E+00  0.2907137E+01  0.1169287E+00 -0.2792826E-01
 -0.1414170E+02  0.5857690E+01 -0.1027320E+00  0.1288153E+00  0.2910392E+01  0.1253878E+00 -0.2951754E-01
 -0.1464780E+02  0.4443360E+01 -0.1027320E+00  0.1369311E+00  0.2908916E+01  0.1332411E+00 -0.3157397E-01
 -0.1501280E+02  0.2986230E+01 -0.1027320E+00  0.1448851E+00  0.2906760E+01  0.1409085E+00 -0.3371184E-01
 -0.1523320E+02  0.1500340E+01 -0.1027320E+00  0.1526814E+00  0.2905182E+01  0.1484345E+00 -0.3576026E-01
 -0.1530690E+02 -0.1338170E-05 -0.1027320E+00  0.1600974E+00  0.2902926E+01  0.1555593E+00 -0.3784823E-01
 -0.1523320E+02 -0.1500340E+01 -0.1027320E+00  0.1670123E+00  0.2899311E+01  0.1621344E+00 -0.4006924E-01
 -0.1501280E+02 -0.2986230E+01 -0.1027320E+00  0.1734090E+00  0.2893459E+01  0.1680979E+00 -0.4258847E-01
 -0.1464780E+02 -0.4443360E+01 -0.1027320E+00  0.1795629E+00  0.2885702E+01  0.1737160E+00 -0.4544871E-01
 -0.1414170E+02 -0.5857700E+01 -0.1027320E+00  0.1855728E+00  0.2875530E+01  0.1790431E+00 -0.4879362E-01
 -0.1349950E+02 -0.7215620E+01 -0.1027320E+00  0.1912943E+00  0.2863381E+01  0.1839387E+00 -0.5253648E-01
 -0.1272720E+02 -0.8504060E+01 -0.1027320E+00  0.1974535E+00  0.2846283E+01  0.1889061E+00 -0.5746605E-01
 -0.1183240E+02 -0.9710600E+01 -0.1027320E+00  0.2029131E+00  0.2828836E+01  0.1930696E+00 -0.6243287E-01
 -0.1082360E+02 -0.1082360E+02 -0.1027320E+00  0.2072153E+00  0.2812388E+01  0.1960878E+00 -0.6699081E-01
 -0.9710600E+01 -0.1183240E+02 -0.1027320E+00  0.2116182E+00  0.2794197E+01  0.1989767E+00 -0.7204541E-01
 -0.8504050E+01 -0.1272720E+02 -0.1027320E+00  0.2153867E+00  0.2776609E+01  0.2011991E+00 -0.7687873E-01
 -0.7215620E+01 -0.1349950E+02 -0.1027320E+00  0.2177610E+00  0.2761736E+01  0.2022385E+00 -0.8074296E-01
 -0.5857690E+01 -0.1414170E+02 -0.1027320E+00  0.2229617E+00  0.2742970E+01  0.2054808E+00 -0.8654232E-01
 -0.4443360E+01 -0.1464780E+02 -0.1027320E+00  0.2278575E+00  0.2727827E+01  0.2086293E+00 -0.9161245E-01
 -0.2986230E+01 -0.1501280E+02 -0.1027320E+00  0.2373387E+00  0.2714641E+01  0.2160333E+00 -0.9828150E-01
 -0.1500340E+01 -0.1523320E+02 -0.1027320E+00  0.2354397E+00  0.2718493E+01  0.2146788E+00 -0.9666895E-01
  0.1825330E-06 -0.1530690E+02 -0.1027320E+00  0.1931786E+00  0.2753777E+01  0.1788326E+00 -0.7305385E-01
  0.1500340E+01 -0.1523320E+02 -0.1027320E+00  0.1167042E+00  0.2920852E+01  0.1138725E+00 -0.2555263E-01
  0.2986230E+01 -0.1501280E+02 -0.1027320E+00  0.8993761E-01 -0.1322063E+01 -0.2214051E-01  0.8716979E-01
  0.4443360E+01 -0.1464780E+02 -0.1027320E+00  0.1450707E+00 -0.1050055E+01 -0.7217611E-01  0.1258417E+00
  0.5857700E+01 -0.1414170E+02 -0.1027320E+00  0.1780676E+00 -0.9567327E+00 -0.1026014E+00  0.1455370E+00
  0.7215620E+01 -0.1349950E+02 -0.1027320E+00  0.2022237E+00 -0.8981003E+00 -0.1260050E+00  0.1581682E+00
  0.8504060E+01 -0.1272720E+02 -0.1027320E+00  0.2229433E+00 -0.8534728E+00 -0.1465563E+00  0.1680029E+00
  0.9710600E+01 -0.1183240E+02 -0.1027320E+00  0.2384279E+00 -0.8183048E+00 -0.1629559E+00  0.1740496E+00
  0.1082360E+02 -0.1082360E+02 -0.1027320E+00  0.2511749E+00 -0.7891049E+00 -0.1769479E+00  0.1782646E+00
  0.1183240E+02 -0.9710590E+01 -0.1027320E+00  0.2639014E+00 -0.7645974E+00 -0.1904473E+00  0.1826848E+00
  0.1272720E+02 -0.8504060E+01 -0.1027320E+00  0.2724994E+00 -0.7444572E+00 -0.2004113E+00  0.1846382E+00
