 VARIABLES="X" "Y" "Z" "abs(eta) (m)" "angle(phi) (rad)" "PRE1" "PRE2"
ZONE N=   3200 ,E =    3136 ,F=FEPOINT,ET=QUADRILATERAL
  0.1530690E+02  0.0000000E+00  0.0000000E+00  0.6147133E-01  0.2217643E+01  0.3704710E-01 -0.4905340E-01
  0.1523320E+02  0.1500340E+01  0.0000000E+00  0.5811480E-01  0.2221377E+01  0.3519713E-01 -0.4624384E-01
  0.1501280E+02  0.2986230E+01  0.0000000E+00  0.5457474E-01  0.2229640E+01  0.3341079E-01 -0.4315230E-01
  0.1464780E+02  0.4443360E+01  0.0000000E+00  0.5091527E-01  0.2241882E+01  0.3166099E-01 -0.3987413E-01
  0.1414170E+02  0.5857700E+01  0.0000000E+00  0.4762933E-01  0.2245239E+01  0.2974270E-01 -0.3720114E-01
  0.1349950E+02  0.7215620E+01  0.0000000E+00  0.4466648E-01  0.2240199E+01  0.2771633E-01 -0.3502713E-01
  0.1272720E+02  0.8504060E+01  0.0000000E+00  0.4116463E-01  0.2247022E+01  0.2576302E-01 -0.3210597E-01
  0.1183240E+02  0.9710600E+01  0.0000000E+00  0.3651933E-01  0.2293920E+01  0.2416594E-01 -0.2738008E-01
  0.1082360E+02  0.1082360E+02  0.0000000E+00  0.3174173E-01  0.2365557E+01  0.2265394E-01 -0.2223367E-01
  0.9710590E+01  0.1183240E+02  0.0000000E+00  0.2720776E-01  0.2458621E+01  0.2110508E-01 -0.1717084E-01
  0.8504060E+01  0.1272720E+02  0.0000000E+00  0.2240850E-01  0.2684131E+01  0.2010439E-01 -0.9897206E-02
  0.7215620E+01  0.1349950E+02  0.0000000E+00  0.1941635E-01  0.3033059E+01  0.1930211E-01 -0.2103193E-02
  0.5857700E+01  0.1414170E+02  0.0000000E+00  0.2126593E-01 -0.2728940E+01  0.1948087E-01  0.8528512E-02
  0.4443360E+01  0.1464780E+02  0.0000000E+00  0.3167008E-01 -0.2293835E+01  0.2095501E-01  0.2374619E-01
  0.2986230E+01  0.1501280E+02  0.0000000E+00  0.5874975E-01 -0.2050394E+01  0.2710846E-01  0.5212163E-01
  0.1500340E+01  0.1523320E+02  0.0000000E+00  0.1437455E+00 -0.1935457E+01  0.5126428E-01  0.1342935E+00
 -0.6690860E-06  0.1530690E+02  0.0000000E+00  0.1789034E+00 -0.1895357E+01  0.5705092E-01  0.1695631E+00
 -0.1500340E+01  0.1523320E+02  0.0000000E+00  0.1932618E+00 -0.1848455E+01  0.5297395E-01  0.1858599E+00
 -0.2986230E+01  0.1501280E+02  0.0000000E+00  0.1847266E+00 -0.1745422E+01  0.3209430E-01  0.1819172E+00
 -0.4443360E+01  0.1464780E+02  0.0000000E+00  0.1755268E+00 -0.1683398E+01  0.1972289E-01  0.1744152E+00
 -0.5857700E+01  0.1414170E+02  0.0000000E+00  0.1708458E+00 -0.1639865E+01  0.1179079E-01  0.1704384E+00
 -0.7215620E+01  0.1349950E+02  0.0000000E+00  0.1665239E+00 -0.1602715E+01  0.5314383E-02  0.1664391E+00
 -0.8504060E+01  0.1272720E+02  0.0000000E+00  0.1631675E+00 -0.1571165E+01  0.6010320E-04  0.1631675E+00
 -0.9710590E+01  0.1183240E+02  0.0000000E+00  0.1607808E+00 -0.1543803E+01 -0.4339478E-02  0.1607223E+00
 -0.1082360E+02  0.1082360E+02  0.0000000E+00  0.1579782E+00 -0.1519919E+01 -0.8033989E-02  0.1577738E+00
 -0.1183240E+02  0.9710590E+01  0.0000000E+00  0.1554537E+00 -0.1498026E+01 -0.1130242E-01  0.1550423E+00
 -0.1272720E+02  0.8504060E+01  0.0000000E+00  0.1533128E+00 -0.1478600E+01 -0.1411487E-01  0.1526616E+00
 -0.1349950E+02  0.7215620E+01  0.0000000E+00  0.1506547E+00 -0.1461642E+01 -0.1641198E-01  0.1497581E+00
 -0.1414170E+02  0.5857690E+01  0.0000000E+00  0.1478405E+00 -0.1447267E+01 -0.1821627E-01  0.1467139E+00
 -0.1464780E+02  0.4443360E+01  0.0000000E+00  0.1454789E+00 -0.1435668E+01 -0.1959860E-01  0.1441527E+00
 -0.1501280E+02  0.2986230E+01  0.0000000E+00  0.1432807E+00 -0.1426189E+01 -0.2064724E-01  0.1417852E+00
 -0.1523320E+02  0.1500340E+01  0.0000000E+00  0.1409589E+00 -0.1419508E+01 -0.2124423E-01  0.1393488E+00
 -0.1530690E+02 -0.1338170E-05  0.0000000E+00  0.1384158E+00 -0.1415627E+01 -0.2139178E-01  0.1367528E+00
 -0.1523320E+02 -0.1500340E+01  0.0000000E+00  0.1355595E+00 -0.1414512E+01 -0.2109969E-01  0.1339074E+00
 -0.1501280E+02 -0.2986230E+01  0.0000000E+00  0.1323466E+00 -0.1416286E+01 -0.2036758E-01  0.1307699E+00
 -0.1464780E+02 -0.4443360E+01  0.0000000E+00  0.1288853E+00 -0.1420815E+01 -0.1925795E-01  0.1274384E+00
 -0.1414170E+02 -0.5857700E+01  0.0000000E+00  0.1260281E+00 -0.1426670E+01 -0.1810111E-01  0.1247214E+00
 -0.1349950E+02 -0.7215620E+01  0.0000000E+00  0.1236673E+00 -0.1433878E+01 -0.1687944E-01  0.1225099E+00
 -0.1272720E+02 -0.8504060E+01  0.0000000E+00  0.1205177E+00 -0.1443974E+01 -0.1524344E-01  0.1195498E+00
 -0.1183240E+02 -0.9710600E+01  0.0000000E+00  0.1154827E+00 -0.1459861E+01 -0.1278485E-01  0.1147729E+00
 -0.1082360E+02 -0.1082360E+02  0.0000000E+00  0.1100326E+00 -0.1479129E+01 -0.1007225E-01  0.1095706E+00
 -0.9710600E+01 -0.1183240E+02  0.0000000E+00  0.1046971E+00 -0.1500998E+01 -0.7301700E-02  0.1044421E+00
 -0.8504050E+01 -0.1272720E+02  0.0000000E+00  0.9713998E-01 -0.1534202E+01 -0.3553977E-02  0.9707494E-01
 -0.7215620E+01 -0.1349950E+02  0.0000000E+00  0.8916350E-01 -0.1575557E+01  0.4245222E-03  0.8916249E-01
 -0.5857690E+01 -0.1414170E+02  0.0000000E+00  0.7856488E-01 -0.1643440E+01  0.5702249E-02  0.7835767E-01
 -0.4443360E+01 -0.1464780E+02  0.0000000E+00  0.6419633E-01 -0.1772267E+01  0.1284637E-01  0.6289785E-01
 -0.2986230E+01 -0.1501280E+02  0.0000000E+00  0.4286846E-01 -0.2222619E+01  0.2600555E-01  0.3407956E-01
 -0.1500340E+01 -0.1523320E+02  0.0000000E+00  0.8117597E-01  0.2493362E+01  0.6470969E-01 -0.4901218E-01
  0.1825330E-06 -0.1530690E+02  0.0000000E+00  0.1167475E+00  0.2332960E+01  0.8061275E-01 -0.8444854E-01
  0.1500340E+01 -0.1523320E+02  0.0000000E+00  0.1321068E+00  0.2277215E+01  0.8575230E-01 -0.1004925E+00
  0.2986230E+01 -0.1501280E+02  0.0000000E+00  0.1218354E+00  0.2240315E+01  0.7561205E-01 -0.9553363E-01
  0.4443360E+01 -0.1464780E+02  0.0000000E+00  0.1108473E+00  0.2231179E+01  0.6799593E-01 -0.8754250E-01
  0.5857700E+01 -0.1414170E+02  0.0000000E+00  0.1048977E+00  0.2224236E+01  0.6376947E-01 -0.8328851E-01
  0.7215620E+01 -0.1349950E+02  0.0000000E+00  0.9943705E-01  0.2221949E+01  0.6026913E-01 -0.7909083E-01
  0.8504060E+01 -0.1272720E+02  0.0000000E+00  0.9504186E-01  0.2220407E+01  0.5748856E-01 -0.7568369E-01
  0.9710600E+01 -0.1183240E+02  0.0000000E+00  0.9168588E-01  0.2218072E+01  0.5528801E-01 -0.7314052E-01
  0.1082360E+02 -0.1082360E+02  0.0000000E+00  0.8800273E-01  0.2219381E+01  0.5315885E-01 -0.7013286E-01
  0.1183240E+02 -0.9710590E+01  0.0000000E+00  0.8455722E-01  0.2219934E+01  0.5111485E-01 -0.6735871E-01
  0.1272720E+02 -0.8504060E+01  0.0000000E+00  0.8142746E-01  0.2218365E+01  0.4912102E-01 -0.6494273E-01
  0.1349950E+02 -0.7215620E+01  0.0000000E+00  0.7781258E-01  0.2219199E+01  0.4699209E-01 -0.6202050E-01
  0.1414170E+02 -0.5857700E+01  0.0000000E+00  0.7409166E-01  0.2221112E+01  0.4485790E-01 -0.5896900E-01
  0.1464780E+02 -0.4443350E+01  0.0000000E+00  0.7083878E-01  0.2220436E+01  0.4285037E-01 -0.5640903E-01
  0.1501280E+02 -0.2986230E+01  0.0000000E+00  0.6775809E-01  0.2218253E+01  0.4086895E-01 -0.5404524E-01
  0.1523320E+02 -0.1500330E+01  0.0000000E+00  0.6466158E-01  0.2217016E+01  0.3893743E-01 -0.5162360E-01
  0.1530690E+02  0.0000000E+00 -0.2568960E-01  0.6142256E-01  0.2217619E+01  0.3701656E-01 -0.4901536E-01
  0.1523320E+02  0.1500340E+01 -0.2568960E-01  0.5806963E-01  0.2221340E+01  0.3516810E-01 -0.4620916E-01
  0.1501280E+02  0.2986230E+01 -0.2568960E-01  0.5453302E-01  0.2229565E+01  0.3338206E-01 -0.4312178E-01
  0.1464780E+02  0.4443360E+01 -0.2568960E-01  0.5087771E-01  0.2241767E+01  0.3163304E-01 -0.3984836E-01
  0.1414170E+02  0.5857700E+01 -0.2568960E-01  0.4759196E-01  0.2245166E+01  0.2971665E-01 -0.3717412E-01
  0.1349950E+02  0.7215620E+01 -0.2568960E-01  0.4462634E-01  0.2240252E+01  0.2769331E-01 -0.3499416E-01
  0.1272720E+02  0.8504060E+01 -0.2568960E-01  0.4112522E-01  0.2247157E+01  0.2574270E-01 -0.3207176E-01
  0.1183240E+02  0.9710600E+01 -0.2568960E-01  0.3648908E-01  0.2293921E+01  0.2414594E-01 -0.2735738E-01
  0.1082360E+02  0.1082360E+02 -0.2568960E-01  0.3171765E-01  0.2365443E+01  0.2263423E-01 -0.2221939E-01
  0.9710590E+01  0.1183240E+02 -0.2568960E-01  0.2718529E-01  0.2458686E+01  0.2108877E-01 -0.1715528E-01
  0.8504060E+01  0.1272720E+02 -0.2568960E-01  0.2239320E-01  0.2683773E+01  0.2008711E-01 -0.9897647E-02
  0.7215620E+01  0.1349950E+02 -0.2568960E-01  0.1940261E-01  0.3032725E+01  0.1928774E-01 -0.2108141E-02
  0.5857700E+01  0.1414170E+02 -0.2568960E-01  0.2124719E-01 -0.2729220E+01  0.1946609E-01  0.8515542E-02
  0.4443360E+01  0.1464780E+02 -0.2568960E-01  0.3163908E-01 -0.2294096E+01  0.2094071E-01  0.2371747E-01
  0.2986230E+01  0.1501280E+02 -0.2568960E-01  0.5870072E-01 -0.2050518E+01  0.2709228E-01  0.5207478E-01
  0.1500340E+01  0.1523320E+02 -0.2568960E-01  0.1436622E+00 -0.1935532E+01  0.5124461E-01  0.1342118E+00
 -0.6690860E-06  0.1530690E+02 -0.2568960E-01  0.1787629E+00 -0.1895399E+01  0.5701331E-01  0.1694274E+00
 -0.1500340E+01  0.1523320E+02 -0.2568960E-01  0.1931397E+00 -0.1848535E+01  0.5295531E-01  0.1857382E+00
 -0.2986230E+01  0.1501280E+02 -0.2568960E-01  0.1845803E+00 -0.1745470E+01  0.3207754E-01  0.1817716E+00
 -0.4443360E+01  0.1464780E+02 -0.2568960E-01  0.1753821E+00 -0.1683437E+01  0.1971337E-01  0.1742706E+00
 -0.5857700E+01  0.1414170E+02 -0.2568960E-01  0.1706936E+00 -0.1639889E+01  0.1178432E-01  0.1702863E+00
 -0.7215620E+01  0.1349950E+02 -0.2568960E-01  0.1663799E+00 -0.1602743E+01  0.5314311E-02  0.1662950E+00
 -0.8504060E+01  0.1272720E+02 -0.2568960E-01  0.1630260E+00 -0.1571189E+01  0.6400871E-04  0.1630260E+00
 -0.9710590E+01  0.1183240E+02 -0.2568960E-01  0.1606357E+00 -0.1543824E+01 -0.4332212E-02  0.1605772E+00
 -0.1082360E+02  0.1082360E+02 -0.2568960E-01  0.1578371E+00 -0.1519932E+01 -0.8024755E-02  0.1576330E+00
 -0.1183240E+02  0.9710590E+01 -0.2568960E-01  0.1553142E+00 -0.1498039E+01 -0.1129025E-01  0.1549033E+00
 -0.1272720E+02  0.8504060E+01 -0.2568960E-01  0.1531714E+00 -0.1478616E+01 -0.1409935E-01  0.1525211E+00
 -0.1349950E+02  0.7215620E+01 -0.2568960E-01  0.1505175E+00 -0.1461658E+01 -0.1639464E-01  0.1496220E+00
 -0.1414170E+02  0.5857690E+01 -0.2568960E-01  0.1477102E+00 -0.1447288E+01 -0.1819715E-01  0.1465850E+00
 -0.1464780E+02  0.4443360E+01 -0.2568960E-01  0.1453524E+00 -0.1435687E+01 -0.1957873E-01  0.1440277E+00
 -0.1501280E+02  0.2986230E+01 -0.2568960E-01  0.1431563E+00 -0.1426210E+01 -0.2062634E-01  0.1416625E+00
 -0.1523320E+02  0.1500340E+01 -0.2568960E-01  0.1408366E+00 -0.1419532E+01 -0.2122237E-01  0.1392284E+00
 -0.1530690E+02 -0.1338170E-05 -0.2568960E-01  0.1382961E+00 -0.1415650E+01 -0.2137009E-01  0.1366350E+00
 -0.1523320E+02 -0.1500340E+01 -0.2568960E-01  0.1354433E+00 -0.1414530E+01 -0.2107915E-01  0.1337930E+00
 -0.1501280E+02 -0.2986230E+01 -0.2568960E-01  0.1322351E+00 -0.1416298E+01 -0.2034899E-01  0.1306600E+00
 -0.1464780E+02 -0.4443360E+01 -0.2568960E-01  0.1287785E+00 -0.1420818E+01 -0.1924168E-01  0.1273329E+00
 -0.1414170E+02 -0.5857700E+01 -0.2568960E-01  0.1259204E+00 -0.1426675E+01 -0.1808507E-01  0.1246149E+00
 -0.1349950E+02 -0.7215620E+01 -0.2568960E-01  0.1235535E+00 -0.1433895E+01 -0.1686183E-01  0.1223975E+00
 -0.1272720E+02 -0.8504060E+01 -0.2568960E-01  0.1204029E+00 -0.1443999E+01 -0.1522586E-01  0.1194363E+00
 -0.1183240E+02 -0.9710600E+01 -0.2568960E-01  0.1153798E+00 -0.1459873E+01 -0.1277205E-01  0.1146707E+00
 -0.1082360E+02 -0.1082360E+02 -0.2568960E-01  0.1099383E+00 -0.1479133E+01 -0.1006320E-01  0.1094768E+00
 -0.9710600E+01 -0.1183240E+02 -0.2568960E-01  0.1046015E+00 -0.1501031E+01 -0.7291662E-02  0.1043471E+00
 -0.8504050E+01 -0.1272720E+02 -0.2568960E-01  0.9706129E-01 -0.1534200E+01 -0.3551278E-02  0.9699630E-01
 -0.7215620E+01 -0.1349950E+02 -0.2568960E-01  0.8908891E-01 -0.1575572E+01  0.4254145E-03  0.8908790E-01
 -0.5857690E+01 -0.1414170E+02 -0.2568960E-01  0.7849900E-01 -0.1643457E+01  0.5698796E-02  0.7829186E-01
 -0.4443360E+01 -0.1464780E+02 -0.2568960E-01  0.6414551E-01 -0.1772272E+01  0.1283647E-01  0.6284801E-01
 -0.2986230E+01 -0.1501280E+02 -0.2568960E-01  0.4283220E-01 -0.2222764E+01  0.2598850E-01  0.3404695E-01
 -0.1500340E+01 -0.1523320E+02 -0.2568960E-01  0.8114896E-01  0.2493153E+01  0.6467792E-01 -0.4900939E-01
  0.1825330E-06 -0.1530690E+02 -0.2568960E-01  0.1166657E+00  0.2332945E+01  0.8055502E-01 -0.8439066E-01
  0.1500340E+01 -0.1523320E+02 -0.2568960E-01  0.1320441E+00  0.2277160E+01  0.8570614E-01 -0.1004495E+00
  0.2986230E+01 -0.1501280E+02 -0.2568960E-01  0.1217491E+00  0.2240308E+01  0.7555787E-01 -0.9546649E-01
  0.4443360E+01 -0.1464780E+02 -0.2568960E-01  0.1107637E+00  0.2231170E+01  0.6794377E-01 -0.8747706E-01
  0.5857700E+01 -0.1414170E+02 -0.2568960E-01  0.1048074E+00  0.2224254E+01  0.6371612E-01 -0.8321562E-01
  0.7215620E+01 -0.1349950E+02 -0.2568960E-01  0.9935588E-01  0.2221949E+01  0.6021997E-01 -0.7902624E-01
  0.8504060E+01 -0.1272720E+02 -0.2568960E-01  0.9496376E-01  0.2220406E+01  0.5744125E-01 -0.7562155E-01
  0.9710600E+01 -0.1183240E+02 -0.2568960E-01  0.9160478E-01  0.2218088E+01  0.5524028E-01 -0.7307494E-01
  0.1082360E+02 -0.1082360E+02 -0.2568960E-01  0.8792587E-01  0.2219385E+01  0.5311271E-01 -0.7007138E-01
  0.1183240E+02 -0.9710590E+01 -0.2568960E-01  0.8448319E-01  0.2219944E+01  0.5107073E-01 -0.6729925E-01
  0.1272720E+02 -0.8504060E+01 -0.2568960E-01  0.8135218E-01  0.2218381E+01  0.4907669E-01 -0.6488185E-01
  0.1349950E+02 -0.7215620E+01 -0.2568960E-01  0.7774276E-01  0.2219217E+01  0.4695106E-01 -0.6196399E-01
  0.1414170E+02 -0.5857700E+01 -0.2568960E-01  0.7402966E-01  0.2221112E+01  0.4482036E-01 -0.5891966E-01
  0.1464780E+02 -0.4443350E+01 -0.2568960E-01  0.7078099E-01  0.2220418E+01  0.4281438E-01 -0.5636379E-01
  0.1501280E+02 -0.2986230E+01 -0.2568960E-01  0.6770296E-01  0.2218232E+01  0.4083455E-01 -0.5400212E-01
  0.1523320E+02 -0.1500330E+01 -0.2568960E-01  0.6460968E-01  0.2217005E+01  0.3890559E-01 -0.5158261E-01
  0.1530690E+02  0.0000000E+00 -0.1027320E+00  0.6128182E-01  0.2217466E+01  0.3692427E-01 -0.4890869E-01
  0.1523320E+02  0.1500340E+01 -0.1027320E+00  0.5793845E-01  0.2221130E+01  0.3507897E-01 -0.4611214E-01
  0.1501280E+02  0.2986230E+01 -0.1027320E+00  0.5441308E-01  0.2229250E+01  0.3329506E-01 -0.4303745E-01
  0.1464780E+02  0.4443360E+01 -0.1027320E+00  0.5076881E-01  0.2241333E+01  0.3154809E-01 -0.3977676E-01
  0.1414170E+02  0.5857700E+01 -0.1027320E+00  0.4748388E-01  0.2244845E+01  0.2963725E-01 -0.3709922E-01
  0.1349950E+02  0.7215620E+01 -0.1027320E+00  0.4450922E-01  0.2240309E+01  0.2762259E-01 -0.3490076E-01
  0.1272720E+02  0.8504060E+01 -0.1027320E+00  0.4100915E-01  0.2247444E+01  0.2567922E-01 -0.3197387E-01
  0.1183240E+02  0.9710600E+01 -0.1027320E+00  0.3639944E-01  0.2293792E+01  0.2408309E-01 -0.2729330E-01
  0.1082360E+02  0.1082360E+02 -0.1027320E+00  0.3164656E-01  0.2365049E+01  0.2257476E-01 -0.2217848E-01
  0.9710590E+01  0.1183240E+02 -0.1027320E+00  0.2711823E-01  0.2458863E+01  0.2103978E-01 -0.1710925E-01
  0.8504060E+01  0.1272720E+02 -0.1027320E+00  0.2234775E-01  0.2682700E+01  0.2003574E-01 -0.9899053E-02
  0.7215620E+01  0.1349950E+02 -0.1027320E+00  0.1936235E-01  0.3032401E+01  0.1924703E-01 -0.2110017E-02
  0.5857700E+01  0.1414170E+02 -0.1027320E+00  0.2119030E-01 -0.2730039E+01  0.1942092E-01  0.8476827E-02
  0.4443360E+01  0.1464780E+02 -0.1027320E+00  0.3154158E-01 -0.2294860E+01  0.2089421E-01  0.2362843E-01
  0.2986230E+01  0.1501280E+02 -0.1027320E+00  0.5856018E-01 -0.2050814E+01  0.2704281E-01  0.5194209E-01
  0.1500340E+01  0.1523320E+02 -0.1027320E+00  0.1432723E+00 -0.1935712E+01  0.5112971E-01  0.1338384E+00
 -0.6690860E-06  0.1530690E+02 -0.1027320E+00  0.1783335E+00 -0.1895521E+01  0.5689692E-01  0.1690135E+00
 -0.1500340E+01  0.1523320E+02 -0.1027320E+00  0.1926995E+00 -0.1848617E+01  0.5284988E-01  0.1853105E+00
 -0.2986230E+01  0.1501280E+02 -0.1027320E+00  0.1841317E+00 -0.1745594E+01  0.3202212E-01  0.1813259E+00
 -0.4443360E+01  0.1464780E+02 -0.1027320E+00  0.1749500E+00 -0.1683532E+01  0.1968134E-01  0.1738395E+00
 -0.5857700E+01  0.1414170E+02 -0.1027320E+00  0.1702430E+00 -0.1639951E+01  0.1176367E-01  0.1698361E+00
 -0.7215620E+01  0.1349950E+02 -0.1027320E+00  0.1659474E+00 -0.1602813E+01  0.5312238E-02  0.1658624E+00
 -0.8504060E+01  0.1272720E+02 -0.1027320E+00  0.1626065E+00 -0.1571247E+01  0.7329600E-04  0.1626064E+00
 -0.9710590E+01  0.1183240E+02 -0.1027320E+00  0.1602062E+00 -0.1543875E+01 -0.4312526E-02  0.1601481E+00
 -0.1082360E+02  0.1082360E+02 -0.1027320E+00  0.1574207E+00 -0.1519962E+01 -0.7998964E-02  0.1572174E+00
 -0.1183240E+02  0.9710590E+01 -0.1027320E+00  0.1549030E+00 -0.1498071E+01 -0.1125540E-01  0.1544936E+00
 -0.1272720E+02  0.8504060E+01 -0.1027320E+00  0.1527557E+00 -0.1478651E+01 -0.1405587E-01  0.1521077E+00
 -0.1349950E+02  0.7215620E+01 -0.1027320E+00  0.1501150E+00 -0.1461695E+01 -0.1634523E-01  0.1492225E+00
 -0.1414170E+02  0.5857690E+01 -0.1027320E+00  0.1473289E+00 -0.1447335E+01 -0.1814326E-01  0.1462075E+00
 -0.1464780E+02  0.4443360E+01 -0.1027320E+00  0.1449823E+00 -0.1435737E+01 -0.1952173E-01  0.1436620E+00
 -0.1501280E+02  0.2986230E+01 -0.1027320E+00  0.1427923E+00 -0.1426269E+01 -0.2056556E-01  0.1413035E+00
 -0.1523320E+02  0.1500340E+01 -0.1027320E+00  0.1404785E+00 -0.1419592E+01 -0.2116007E-01  0.1388757E+00
 -0.1530690E+02 -0.1338170E-05 -0.1027320E+00  0.1379457E+00 -0.1415706E+01 -0.2130842E-01  0.1362900E+00
 -0.1523320E+02 -0.1500340E+01 -0.1027320E+00  0.1351032E+00 -0.1414573E+01 -0.2102051E-01  0.1334579E+00
 -0.1501280E+02 -0.2986230E+01 -0.1027320E+00  0.1319085E+00 -0.1416322E+01 -0.2029552E-01  0.1303378E+00
 -0.1464780E+02 -0.4443360E+01 -0.1027320E+00  0.1284660E+00 -0.1420822E+01 -0.1919441E-01  0.1270239E+00
 -0.1414170E+02 -0.5857700E+01 -0.1027320E+00  0.1256046E+00 -0.1426684E+01 -0.1803862E-01  0.1243025E+00
 -0.1349950E+02 -0.7215620E+01 -0.1027320E+00  0.1232188E+00 -0.1433935E+01 -0.1681123E-01  0.1220666E+00
 -0.1272720E+02 -0.8504060E+01 -0.1027320E+00  0.1200638E+00 -0.1444062E+01 -0.1517545E-01  0.1191009E+00
 -0.1183240E+02 -0.9710600E+01 -0.1027320E+00  0.1150760E+00 -0.1459895E+01 -0.1273598E-01  0.1143690E+00
 -0.1082360E+02 -0.1082360E+02 -0.1027320E+00  0.1096589E+00 -0.1479135E+01 -0.1003742E-01  0.1091986E+00
 -0.9710600E+01 -0.1183240E+02 -0.1027320E+00  0.1043170E+00 -0.1501103E+01 -0.7264346E-02  0.1040638E+00
 -0.8504050E+01 -0.1272720E+02 -0.1027320E+00  0.9682535E-01 -0.1534183E+01 -0.3544266E-02  0.9676047E-01
 -0.7215620E+01 -0.1349950E+02 -0.1027320E+00  0.8885388E-01 -0.1575669E+01  0.4329208E-03  0.8885282E-01
 -0.5857690E+01 -0.1414170E+02 -0.1027320E+00  0.7830080E-01 -0.1643502E+01  0.5687864E-02  0.7809394E-01
 -0.4443360E+01 -0.1464780E+02 -0.1027320E+00  0.6399508E-01 -0.1772257E+01  0.1280543E-01  0.6270080E-01
 -0.2986230E+01 -0.1501280E+02 -0.1027320E+00  0.4271952E-01 -0.2223276E+01  0.2593754E-01  0.3394410E-01
 -0.1500340E+01 -0.1523320E+02 -0.1027320E+00  0.8093598E-01  0.2493336E+01  0.6451712E-01 -0.4886896E-01
  0.1825330E-06 -0.1530690E+02 -0.1027320E+00  0.1164108E+00  0.2332896E+01  0.8037487E-01 -0.8421018E-01
  0.1500340E+01 -0.1523320E+02 -0.1027320E+00  0.1317767E+00  0.2277054E+01  0.8552194E-01 -0.1002552E+00
  0.2986230E+01 -0.1501280E+02 -0.1027320E+00  0.1214798E+00  0.2240285E+01  0.7538861E-01 -0.9525706E-01
  0.4443360E+01 -0.1464780E+02 -0.1027320E+00  0.1105149E+00  0.2231136E+01  0.6778821E-01 -0.8728286E-01
  0.5857700E+01 -0.1414170E+02 -0.1027320E+00  0.1045412E+00  0.2224280E+01  0.6355646E-01 -0.8300260E-01
  0.7215620E+01 -0.1349950E+02 -0.1027320E+00  0.9911075E-01  0.2221945E+01  0.6007107E-01 -0.7883152E-01
  0.8504060E+01 -0.1272720E+02 -0.1027320E+00  0.9473347E-01  0.2220373E+01  0.5729945E-01 -0.7544006E-01
  0.9710600E+01 -0.1183240E+02 -0.1027320E+00  0.9136653E-01  0.2218103E+01  0.5509768E-01 -0.7288408E-01
  0.1082360E+02 -0.1082360E+02 -0.1027320E+00  0.8770081E-01  0.2219355E+01  0.5297465E-01 -0.6989363E-01
  0.1183240E+02 -0.9710590E+01 -0.1027320E+00  0.8426521E-01  0.2219903E+01  0.5093620E-01 -0.6712771E-01
  0.1272720E+02 -0.8504060E+01 -0.1027320E+00  0.8113367E-01  0.2218395E+01  0.4894579E-01 -0.6470690E-01
