 VARIABLES="X" "Y" "Z" "abs(eta) (m)" "angle(phi) (rad)" "PRE1" "PRE2"
ZONE N=   3200 ,E =    3136 ,F=FEPOINT,ET=QUADRILATERAL
  0.1530690E+02  0.0000000E+00  0.0000000E+00  0.4609689E-01  0.2147667E+01  0.2514140E-01 -0.3863720E-01
  0.1523320E+02  0.1500340E+01  0.0000000E+00  0.4367166E-01  0.2149881E+01  0.2389967E-01 -0.3655160E-01
  0.1501280E+02  0.2986230E+01  0.0000000E+00  0.4131037E-01  0.2150810E+01  0.2263956E-01 -0.3455427E-01
  0.1464780E+02  0.4443360E+01  0.0000000E+00  0.3879302E-01  0.2155951E+01  0.2142649E-01 -0.3233889E-01
  0.1414170E+02  0.5857700E+01  0.0000000E+00  0.3597741E-01  0.2171422E+01  0.2033295E-01 -0.2968073E-01
  0.1349950E+02  0.7215620E+01  0.0000000E+00  0.3285309E-01  0.2202401E+01  0.1939780E-01 -0.2651510E-01
  0.1272720E+02  0.8504060E+01  0.0000000E+00  0.2960652E-01  0.2249985E+01  0.1859770E-01 -0.2303631E-01
  0.1183240E+02  0.9710600E+01  0.0000000E+00  0.2660142E-01  0.2300523E+01  0.1773426E-01 -0.1982755E-01
  0.1082360E+02  0.1082360E+02  0.0000000E+00  0.2357876E-01  0.2370092E+01  0.1690279E-01 -0.1643940E-01
  0.9710590E+01  0.1183240E+02  0.0000000E+00  0.2018348E-01  0.2520658E+01  0.1641592E-01 -0.1174267E-01
  0.8504060E+01  0.1272720E+02  0.0000000E+00  0.1745927E-01  0.2733325E+01  0.1602429E-01 -0.6931685E-02
  0.7215620E+01  0.1349950E+02  0.0000000E+00  0.1604726E-01  0.3101941E+01  0.1603465E-01 -0.6361367E-03
  0.5857700E+01  0.1414170E+02  0.0000000E+00  0.1823595E-01 -0.2702206E+01  0.1650376E-01  0.7757295E-02
  0.4443360E+01  0.1464780E+02  0.0000000E+00  0.2703703E-01 -0.2306713E+01  0.1814906E-01  0.2004028E-01
  0.2986230E+01  0.1501280E+02  0.0000000E+00  0.4901875E-01 -0.2059801E+01  0.2302642E-01  0.4327380E-01
  0.1500340E+01  0.1523320E+02  0.0000000E+00  0.1186847E+00 -0.1925038E+01  0.4116924E-01  0.1113156E+00
 -0.6690860E-06  0.1530690E+02  0.0000000E+00  0.1474345E+00 -0.1890165E+01  0.4628961E-01  0.1399793E+00
 -0.1500340E+01  0.1523320E+02  0.0000000E+00  0.1583816E+00 -0.1855444E+01  0.4447669E-01  0.1520084E+00
 -0.2986230E+01  0.1501280E+02  0.0000000E+00  0.1483636E+00 -0.1782762E+01  0.3121301E-01  0.1450431E+00
 -0.4443360E+01  0.1464780E+02  0.0000000E+00  0.1395756E+00 -0.1739069E+01  0.2337608E-01  0.1376042E+00
 -0.5857700E+01  0.1414170E+02  0.0000000E+00  0.1339212E+00 -0.1706884E+01  0.1816877E-01  0.1326830E+00
 -0.7215620E+01  0.1349950E+02  0.0000000E+00  0.1302329E+00 -0.1680924E+01  0.1431329E-01  0.1294439E+00
 -0.8504060E+01  0.1272720E+02  0.0000000E+00  0.1264853E+00 -0.1657772E+01  0.1098727E-01  0.1260072E+00
 -0.9710590E+01  0.1183240E+02  0.0000000E+00  0.1230464E+00 -0.1637189E+01  0.8163373E-02  0.1227753E+00
 -0.1082360E+02  0.1082360E+02  0.0000000E+00  0.1204511E+00 -0.1619009E+01  0.5804964E-02  0.1203112E+00
 -0.1183240E+02  0.9710590E+01  0.0000000E+00  0.1180344E+00 -0.1603745E+01  0.3888366E-02  0.1179703E+00
 -0.1272720E+02  0.8504060E+01  0.0000000E+00  0.1157059E+00 -0.1590225E+01  0.2247807E-02  0.1156841E+00
 -0.1349950E+02  0.7215620E+01  0.0000000E+00  0.1135437E+00 -0.1578178E+01  0.8381061E-03  0.1135406E+00
 -0.1414170E+02  0.5857690E+01  0.0000000E+00  0.1115732E+00 -0.1568379E+01 -0.2697080E-03  0.1115729E+00
 -0.1464780E+02  0.4443360E+01  0.0000000E+00  0.1095657E+00 -0.1560710E+01 -0.1105109E-02  0.1095601E+00
 -0.1501280E+02  0.2986230E+01  0.0000000E+00  0.1074262E+00 -0.1555145E+01 -0.1681309E-02  0.1074130E+00
 -0.1523320E+02  0.1500340E+01  0.0000000E+00  0.1050963E+00 -0.1551703E+01 -0.2006488E-02  0.1050771E+00
 -0.1530690E+02 -0.1338170E-05  0.0000000E+00  0.1027325E+00 -0.1549851E+01 -0.2151636E-02  0.1027099E+00
 -0.1523320E+02 -0.1500340E+01  0.0000000E+00  0.1006434E+00 -0.1548376E+01 -0.2256235E-02  0.1006181E+00
 -0.1501280E+02 -0.2986230E+01  0.0000000E+00  0.9863970E-01 -0.1548351E+01 -0.2213816E-02  0.9861486E-01
 -0.1464780E+02 -0.4443360E+01  0.0000000E+00  0.9641107E-01 -0.1550622E+01 -0.1944930E-02  0.9639145E-01
 -0.1414170E+02 -0.5857700E+01  0.0000000E+00  0.9372924E-01 -0.1556051E+01 -0.1381992E-02  0.9371904E-01
 -0.1349950E+02 -0.7215620E+01  0.0000000E+00  0.9053367E-01 -0.1565266E+01 -0.5006880E-03  0.9053228E-01
 -0.1272720E+02 -0.8504060E+01  0.0000000E+00  0.8702791E-01 -0.1578082E+01  0.6340147E-03  0.8702560E-01
 -0.1183240E+02 -0.9710600E+01  0.0000000E+00  0.8380453E-01 -0.1591876E+01  0.1766417E-02  0.8378591E-01
 -0.1082360E+02 -0.1082360E+02  0.0000000E+00  0.8041868E-01 -0.1608261E+01  0.3012195E-02  0.8036225E-01
 -0.9710600E+01 -0.1183240E+02  0.0000000E+00  0.7576830E-01 -0.1633547E+01  0.4751423E-02  0.7561917E-01
 -0.8504050E+01 -0.1272720E+02  0.0000000E+00  0.7105762E-01 -0.1663611E+01  0.6585702E-02  0.7075177E-01
 -0.7215620E+01 -0.1349950E+02  0.0000000E+00  0.6500027E-01 -0.1708759E+01  0.8939217E-02  0.6438264E-01
 -0.5857690E+01 -0.1414170E+02  0.0000000E+00  0.5715312E-01 -0.1780817E+01  0.1191531E-01  0.5589727E-01
 -0.4443360E+01 -0.1464780E+02  0.0000000E+00  0.4641762E-01 -0.1928470E+01  0.1625065E-01  0.4348002E-01
 -0.2986230E+01 -0.1501280E+02  0.0000000E+00  0.3162830E-01 -0.2456280E+01  0.2448731E-01  0.2001802E-01
 -0.1500340E+01 -0.1523320E+02  0.0000000E+00  0.6928315E-01  0.2366169E+01  0.4947681E-01 -0.4849949E-01
  0.1825330E-06 -0.1530690E+02  0.0000000E+00  0.9740531E-01  0.2225614E+01  0.5932127E-01 -0.7725789E-01
  0.1500340E+01 -0.1523320E+02  0.0000000E+00  0.1084453E+00  0.2176273E+01  0.6172213E-01 -0.8916707E-01
  0.2986230E+01 -0.1501280E+02  0.0000000E+00  0.9746967E-01  0.2147641E+01  0.5315820E-01 -0.8169787E-01
  0.4443360E+01 -0.1464780E+02  0.0000000E+00  0.8790890E-01  0.2140661E+01  0.4742844E-01 -0.7401702E-01
  0.5857700E+01 -0.1414170E+02  0.0000000E+00  0.8168557E-01  0.2136696E+01  0.4379779E-01 -0.6895132E-01
  0.7215620E+01 -0.1349950E+02  0.0000000E+00  0.7752053E-01  0.2132451E+01  0.4128646E-01 -0.6561144E-01
  0.8504060E+01 -0.1272720E+02  0.0000000E+00  0.7333239E-01  0.2131729E+01  0.3901111E-01 -0.6209487E-01
  0.9710600E+01 -0.1183240E+02  0.0000000E+00  0.6947321E-01  0.2132384E+01  0.3699660E-01 -0.5880288E-01
  0.1082360E+02 -0.1082360E+02  0.0000000E+00  0.6645154E-01  0.2131061E+01  0.3531304E-01 -0.5629206E-01
  0.1183240E+02 -0.9710590E+01  0.0000000E+00  0.6364717E-01  0.2130985E+01  0.3381870E-01 -0.5391899E-01
  0.1272720E+02 -0.8504060E+01  0.0000000E+00  0.6093712E-01  0.2131432E+01  0.3240176E-01 -0.5160871E-01
  0.1349950E+02 -0.7215620E+01  0.0000000E+00  0.5838460E-01  0.2131444E+01  0.3104515E-01 -0.4944654E-01
  0.1414170E+02 -0.5857700E+01  0.0000000E+00  0.5604291E-01  0.2131238E+01  0.2979021E-01 -0.4746948E-01
  0.1464780E+02 -0.4443350E+01  0.0000000E+00  0.5369513E-01  0.2132128E+01  0.2858268E-01 -0.4545544E-01
  0.1501280E+02 -0.2986230E+01  0.0000000E+00  0.5125859E-01  0.2134975E+01  0.2740909E-01 -0.4331495E-01
  0.1523320E+02 -0.1500330E+01  0.0000000E+00  0.4868928E-01  0.2140812E+01  0.2627493E-01 -0.4099115E-01
  0.1530690E+02  0.0000000E+00 -0.2568960E-01  0.4606087E-01  0.2147702E+01  0.2512313E-01 -0.3860611E-01
  0.1523320E+02  0.1500340E+01 -0.2568960E-01  0.4363708E-01  0.2149930E+01  0.2388253E-01 -0.3652150E-01
  0.1501280E+02  0.2986230E+01 -0.2568960E-01  0.4127737E-01  0.2150896E+01  0.2262441E-01 -0.3452474E-01
  0.1464780E+02  0.4443360E+01 -0.2568960E-01  0.3876214E-01  0.2156034E+01  0.2141212E-01 -0.3231138E-01
  0.1414170E+02  0.5857700E+01 -0.2568960E-01  0.3595021E-01  0.2171486E+01  0.2031947E-01 -0.2965698E-01
  0.1349950E+02  0.7215620E+01 -0.2568960E-01  0.3283139E-01  0.2202388E+01  0.1938464E-01 -0.2649785E-01
  0.1272720E+02  0.8504060E+01 -0.2568960E-01  0.2959017E-01  0.2249856E+01  0.1858446E-01 -0.2302599E-01
  0.1183240E+02  0.9710600E+01 -0.2568960E-01  0.2658594E-01  0.2300417E+01  0.1772183E-01 -0.1981789E-01
  0.1082360E+02  0.1082360E+02 -0.2568960E-01  0.2356339E-01  0.2370104E+01  0.1689197E-01 -0.1642847E-01
  0.9710590E+01  0.1183240E+02 -0.2568960E-01  0.2017336E-01  0.2520361E+01  0.1640422E-01 -0.1174164E-01
  0.8504060E+01  0.1272720E+02 -0.2568960E-01  0.1744886E-01  0.2733112E+01  0.1601326E-01 -0.6930958E-02
  0.7215620E+01  0.1349950E+02 -0.2568960E-01  0.1603499E-01  0.3101422E+01  0.1602206E-01 -0.6439709E-03
  0.5857700E+01  0.1414170E+02 -0.2568960E-01  0.1822432E-01 -0.2702310E+01  0.1649405E-01  0.7750635E-02
  0.4443360E+01  0.1464780E+02 -0.2568960E-01  0.2701285E-01 -0.2306882E+01  0.1813622E-01  0.2001928E-01
  0.2986230E+01  0.1501280E+02 -0.2568960E-01  0.4899149E-01 -0.2059833E+01  0.2301500E-01  0.4324900E-01
  0.1500340E+01  0.1523320E+02 -0.2568960E-01  0.1185843E+00 -0.1925062E+01  0.4113710E-01  0.1112204E+00
 -0.6690860E-06  0.1530690E+02 -0.2568960E-01  0.1473268E+00 -0.1890169E+01  0.4625641E-01  0.1398769E+00
 -0.1500340E+01  0.1523320E+02 -0.2568960E-01  0.1582755E+00 -0.1855436E+01  0.4444568E-01  0.1519070E+00
 -0.2986230E+01  0.1501280E+02 -0.2568960E-01  0.1482780E+00 -0.1782784E+01  0.3119824E-01  0.1449587E+00
 -0.4443360E+01  0.1464780E+02 -0.2568960E-01  0.1394853E+00 -0.1739076E+01  0.2336195E-01  0.1375150E+00
 -0.5857700E+01  0.1414170E+02 -0.2568960E-01  0.1338341E+00 -0.1706900E+01  0.1815920E-01  0.1325964E+00
 -0.7215620E+01  0.1349950E+02 -0.2568960E-01  0.1301427E+00 -0.1680927E+01  0.1430371E-01  0.1293542E+00
 -0.8504060E+01  0.1272720E+02 -0.2568960E-01  0.1263973E+00 -0.1657781E+01  0.1098076E-01  0.1259194E+00
 -0.9710590E+01  0.1183240E+02 -0.2568960E-01  0.1229628E+00 -0.1637200E+01  0.8159181E-02  0.1226918E+00
 -0.1082360E+02  0.1082360E+02 -0.2568960E-01  0.1203663E+00 -0.1619020E+01  0.5802319E-02  0.1202264E+00
 -0.1183240E+02  0.9710590E+01 -0.2568960E-01  0.1179508E+00 -0.1603755E+01  0.3886790E-02  0.1178867E+00
 -0.1272720E+02  0.8504060E+01 -0.2568960E-01  0.1156239E+00 -0.1590234E+01  0.2247338E-02  0.1156021E+00
 -0.1349950E+02  0.7215620E+01 -0.2568960E-01  0.1134621E+00 -0.1578187E+01  0.8385175E-03  0.1134590E+00
 -0.1414170E+02  0.5857690E+01 -0.2568960E-01  0.1114907E+00 -0.1568392E+01 -0.2680096E-03  0.1114903E+00
 -0.1464780E+02  0.4443360E+01 -0.2568960E-01  0.1094826E+00 -0.1560716E+01 -0.1103555E-02  0.1094771E+00
 -0.1501280E+02  0.2986230E+01 -0.2568960E-01  0.1073435E+00 -0.1555151E+01 -0.1679391E-02  0.1073304E+00
 -0.1523320E+02  0.1500340E+01 -0.2568960E-01  0.1050155E+00 -0.1551703E+01 -0.2005005E-02  0.1049964E+00
 -0.1530690E+02 -0.1338170E-05 -0.2568960E-01  0.1026545E+00 -0.1549852E+01 -0.2149909E-02  0.1026320E+00
 -0.1523320E+02 -0.1500340E+01 -0.2568960E-01  0.1005664E+00 -0.1548380E+01 -0.2254090E-02  0.1005411E+00
 -0.1501280E+02 -0.2986230E+01 -0.2568960E-01  0.9856354E-01 -0.1548364E+01 -0.2210872E-02  0.9853875E-01
 -0.1464780E+02 -0.4443360E+01 -0.2568960E-01  0.9633671E-01 -0.1550641E+01 -0.1941543E-02  0.9631714E-01
 -0.1414170E+02 -0.5857700E+01 -0.2568960E-01  0.9365903E-01 -0.1556070E+01 -0.1379176E-02  0.9364887E-01
 -0.1349950E+02 -0.7215620E+01 -0.2568960E-01  0.9046984E-01 -0.1565277E+01 -0.4993386E-03  0.9046847E-01
 -0.1272720E+02 -0.8504060E+01 -0.2568960E-01  0.8697040E-01 -0.1578076E+01  0.6331149E-03  0.8696809E-01
 -0.1183240E+02 -0.9710600E+01 -0.2568960E-01  0.8374819E-01 -0.1591871E+01  0.1764822E-02  0.8372959E-01
 -0.1082360E+02 -0.1082360E+02 -0.2568960E-01  0.8036111E-01 -0.1608278E+01  0.3011395E-02  0.8030467E-01
 -0.9710600E+01 -0.1183240E+02 -0.2568960E-01  0.7572077E-01 -0.1633529E+01  0.4747067E-02  0.7557183E-01
 -0.8504050E+01 -0.1272720E+02 -0.2568960E-01  0.7100990E-01 -0.1663610E+01  0.6581249E-02  0.7070426E-01
 -0.7215620E+01 -0.1349950E+02 -0.2568960E-01  0.6496110E-01 -0.1708719E+01  0.8931230E-02  0.6434421E-01
 -0.5857690E+01 -0.1414170E+02 -0.2568960E-01  0.5711247E-01 -0.1780843E+01  0.1190828E-01  0.5585721E-01
 -0.4443360E+01 -0.1464780E+02 -0.2568960E-01  0.4638932E-01 -0.1928406E+01  0.1623795E-01  0.4345454E-01
 -0.2986230E+01 -0.1501280E+02 -0.2568960E-01  0.3160453E-01 -0.2456538E+01  0.2447406E-01  0.1999667E-01
 -0.1500340E+01 -0.1523320E+02 -0.2568960E-01  0.6922108E-01  0.2366283E+01  0.4943800E-01 -0.4845041E-01
  0.1825330E-06 -0.1530690E+02 -0.2568960E-01  0.9733476E-01  0.2225623E+01  0.5927897E-01 -0.7720141E-01
  0.1500340E+01 -0.1523320E+02 -0.2568960E-01  0.1083760E+00  0.2176249E+01  0.6168049E-01 -0.8911165E-01
  0.2986230E+01 -0.1501280E+02 -0.2568960E-01  0.9742204E-01  0.2147602E+01  0.5312902E-01 -0.8166004E-01
  0.4443360E+01 -0.1464780E+02 -0.2568960E-01  0.8785684E-01  0.2140639E+01  0.4739870E-01 -0.7397424E-01
  0.5857700E+01 -0.1414170E+02 -0.2568960E-01  0.8163773E-01  0.2136682E+01  0.4377118E-01 -0.6891155E-01
  0.7215620E+01 -0.1349950E+02 -0.2568960E-01  0.7746942E-01  0.2132443E+01  0.4125872E-01 -0.6556850E-01
  0.8504060E+01 -0.1272720E+02 -0.2568960E-01  0.7328404E-01  0.2131727E+01  0.3898522E-01 -0.6205403E-01
  0.9710600E+01 -0.1183240E+02 -0.2568960E-01  0.6942902E-01  0.2132370E+01  0.3697223E-01 -0.5876600E-01
  0.1082360E+02 -0.1082360E+02 -0.2568960E-01  0.6640709E-01  0.2131065E+01  0.3528966E-01 -0.5625426E-01
  0.1183240E+02 -0.9710590E+01 -0.2568960E-01  0.6360393E-01  0.2130986E+01  0.3379576E-01 -0.5388234E-01
  0.1272720E+02 -0.8504060E+01 -0.2568960E-01  0.6089567E-01  0.2131430E+01  0.3237965E-01 -0.5157365E-01
  0.1349950E+02 -0.7215620E+01 -0.2568960E-01  0.5834392E-01  0.2131456E+01  0.3102407E-01 -0.4941174E-01
  0.1414170E+02 -0.5857700E+01 -0.2568960E-01  0.5600167E-01  0.2131276E+01  0.2977008E-01 -0.4743342E-01
  0.1464780E+02 -0.4443350E+01 -0.2568960E-01  0.5365374E-01  0.2132173E+01  0.2856266E-01 -0.4541914E-01
  0.1501280E+02 -0.2986230E+01 -0.2568960E-01  0.5121795E-01  0.2135025E+01  0.2738954E-01 -0.4327923E-01
  0.1523320E+02 -0.1500330E+01 -0.2568960E-01  0.4865057E-01  0.2140864E+01  0.2625616E-01 -0.4095719E-01
  0.1530690E+02  0.0000000E+00 -0.1027320E+00  0.4595583E-01  0.2147732E+01  0.2506698E-01 -0.3851733E-01
  0.1523320E+02  0.1500340E+01 -0.1027320E+00  0.4353723E-01  0.2150007E+01  0.2383069E-01 -0.3643609E-01
  0.1501280E+02  0.2986230E+01 -0.1027320E+00  0.4118131E-01  0.2151054E+01  0.2257723E-01 -0.3444080E-01
  0.1464780E+02  0.4443360E+01 -0.1027320E+00  0.3867305E-01  0.2156244E+01  0.2136968E-01 -0.3223262E-01
  0.1414170E+02  0.5857700E+01 -0.1027320E+00  0.3587269E-01  0.2171617E+01  0.2027952E-01 -0.2959038E-01
  0.1349950E+02  0.7215620E+01 -0.1027320E+00  0.3276899E-01  0.2202284E+01  0.1934504E-01 -0.2644950E-01
  0.1272720E+02  0.8504060E+01 -0.1027320E+00  0.2954105E-01  0.2249419E+01  0.1854355E-01 -0.2299588E-01
  0.1183240E+02  0.9710600E+01 -0.1027320E+00  0.2654068E-01  0.2300039E+01  0.1768418E-01 -0.1979084E-01
  0.1082360E+02  0.1082360E+02 -0.1027320E+00  0.2351812E-01  0.2370063E+01  0.1685884E-01 -0.1639760E-01
  0.9710590E+01  0.1183240E+02 -0.1027320E+00  0.2014265E-01  0.2519410E+01  0.1636808E-01 -0.1173934E-01
  0.8504060E+01  0.1272720E+02 -0.1027320E+00  0.1741771E-01  0.2732472E+01  0.1598025E-01 -0.6928807E-02
  0.7215620E+01  0.1349950E+02 -0.1027320E+00  0.1600030E-01  0.3100380E+01  0.1598672E-01 -0.6592245E-03
  0.5857700E+01  0.1414170E+02 -0.1027320E+00  0.1818935E-01 -0.2702595E+01  0.1646460E-01  0.7731067E-02
  0.4443360E+01  0.1464780E+02 -0.1027320E+00  0.2694054E-01 -0.2307401E+01  0.1809803E-01  0.1995630E-01
  0.2986230E+01  0.1501280E+02 -0.1027320E+00  0.4891627E-01 -0.2059895E+01  0.2298233E-01  0.4318118E-01
  0.1500340E+01  0.1523320E+02 -0.1027320E+00  0.1182682E+00 -0.1925130E+01  0.4103497E-01  0.1109212E+00
 -0.6690860E-06  0.1530690E+02 -0.1027320E+00  0.1470203E+00 -0.1890187E+01  0.4616258E-01  0.1395850E+00
 -0.1500340E+01  0.1523320E+02 -0.1027320E+00  0.1579391E+00 -0.1855394E+01  0.4434471E-01  0.1515860E+00
 -0.2986230E+01  0.1501280E+02 -0.1027320E+00  0.1480167E+00 -0.1782845E+01  0.3115201E-01  0.1447014E+00
 -0.4443360E+01  0.1464780E+02 -0.1027320E+00  0.1392163E+00 -0.1739096E+01  0.2331963E-01  0.1372493E+00
 -0.5857700E+01  0.1414170E+02 -0.1027320E+00  0.1335790E+00 -0.1706948E+01  0.1813089E-01  0.1323428E+00
 -0.7215620E+01  0.1349950E+02 -0.1027320E+00  0.1298712E+00 -0.1680941E+01  0.1427568E-01  0.1290842E+00
 -0.8504060E+01  0.1272720E+02 -0.1027320E+00  0.1261371E+00 -0.1657802E+01  0.1096084E-01  0.1256600E+00
 -0.9710590E+01  0.1183240E+02 -0.1027320E+00  0.1227158E+00 -0.1637225E+01  0.8145834E-02  0.1224452E+00
 -0.1082360E+02  0.1082360E+02 -0.1027320E+00  0.1201157E+00 -0.1619054E+01  0.5794261E-02  0.1199759E+00
 -0.1183240E+02  0.9710590E+01 -0.1027320E+00  0.1177048E+00 -0.1603777E+01  0.3881295E-02  0.1176408E+00
 -0.1272720E+02  0.8504060E+01 -0.1027320E+00  0.1153825E+00 -0.1590252E+01  0.2244646E-02  0.1153607E+00
 -0.1349950E+02  0.7215620E+01 -0.1027320E+00  0.1132222E+00 -0.1578212E+01  0.8396184E-03  0.1132191E+00
 -0.1414170E+02  0.5857690E+01 -0.1027320E+00  0.1112481E+00 -0.1568412E+01 -0.2652184E-03  0.1112478E+00
 -0.1464780E+02  0.4443360E+01 -0.1027320E+00  0.1092385E+00 -0.1560733E+01 -0.1099291E-02  0.1092329E+00
 -0.1501280E+02  0.2986230E+01 -0.1027320E+00  0.1071011E+00 -0.1555157E+01 -0.1674895E-02  0.1070881E+00
 -0.1523320E+02  0.1500340E+01 -0.1027320E+00  0.1047796E+00 -0.1551700E+01 -0.2000780E-02  0.1047605E+00
 -0.1530690E+02 -0.1338170E-05 -0.1027320E+00  0.1024260E+00 -0.1549841E+01 -0.2146168E-02  0.1024035E+00
 -0.1523320E+02 -0.1500340E+01 -0.1027320E+00  0.1003409E+00 -0.1548385E+01 -0.2248622E-02  0.1003157E+00
 -0.1501280E+02 -0.2986230E+01 -0.1027320E+00  0.9833977E-01 -0.1548392E+01 -0.2203051E-02  0.9831509E-01
 -0.1464780E+02 -0.4443360E+01 -0.1027320E+00  0.9611822E-01 -0.1550686E+01 -0.1932830E-02  0.9609878E-01
 -0.1414170E+02 -0.5857700E+01 -0.1027320E+00  0.9345236E-01 -0.1556111E+01 -0.1372306E-02  0.9344228E-01
 -0.1349950E+02 -0.7215620E+01 -0.1027320E+00  0.9028169E-01 -0.1565287E+01 -0.4973888E-03  0.9028032E-01
 -0.1272720E+02 -0.8504060E+01 -0.1027320E+00  0.8680110E-01 -0.1578044E+01  0.6290681E-03  0.8679882E-01
 -0.1183240E+02 -0.9710600E+01 -0.1027320E+00  0.8358132E-01 -0.1591857E+01  0.1760168E-02  0.8356278E-01
 -0.1082360E+02 -0.1082360E+02 -0.1027320E+00  0.8019046E-01 -0.1608311E+01  0.3007585E-02  0.8013403E-01
 -0.9710600E+01 -0.1183240E+02 -0.1027320E+00  0.7557847E-01 -0.1633470E+01  0.4733708E-02  0.7543009E-01
 -0.8504050E+01 -0.1272720E+02 -0.1027320E+00  0.7086798E-01 -0.1663593E+01  0.6566856E-02  0.7056307E-01
 -0.7215620E+01 -0.1349950E+02 -0.1027320E+00  0.6483506E-01 -0.1708647E+01  0.8909285E-02  0.6422000E-01
 -0.5857690E+01 -0.1414170E+02 -0.1027320E+00  0.5699077E-01 -0.1780913E+01  0.1188682E-01  0.5573735E-01
 -0.4443360E+01 -0.1464780E+02 -0.1027320E+00  0.4630535E-01 -0.1928229E+01  0.1620088E-01  0.4337876E-01
 -0.2986230E+01 -0.1501280E+02 -0.1027320E+00  0.3153063E-01 -0.2457536E+01  0.2443672E-01  0.1992554E-01
 -0.1500340E+01 -0.1523320E+02 -0.1027320E+00  0.6901751E-01  0.2366691E+01  0.4931233E-01 -0.4828780E-01
  0.1825330E-06 -0.1530690E+02 -0.1027320E+00  0.9713768E-01  0.2225596E+01  0.5915688E-01 -0.7704669E-01
  0.1500340E+01 -0.1523320E+02 -0.1027320E+00  0.1081482E+00  0.2176196E+01  0.6154614E-01 -0.8892754E-01
  0.2986230E+01 -0.1501280E+02 -0.1027320E+00  0.9727366E-01  0.2147487E+01  0.5303873E-01 -0.8154175E-01
  0.4443360E+01 -0.1464780E+02 -0.1027320E+00  0.8770120E-01  0.2140549E+01  0.4730814E-01 -0.7384741E-01
  0.5857700E+01 -0.1414170E+02 -0.1027320E+00  0.8149730E-01  0.2136590E+01  0.4368957E-01 -0.6879703E-01
  0.7215620E+01 -0.1349950E+02 -0.1027320E+00  0.7731358E-01  0.2132412E+01  0.4117369E-01 -0.6543789E-01
  0.8504060E+01 -0.1272720E+02 -0.1027320E+00  0.7314070E-01  0.2131686E+01  0.3890643E-01 -0.6193425E-01
  0.9710600E+01 -0.1183240E+02 -0.1027320E+00  0.6929979E-01  0.2132298E+01  0.3689924E-01 -0.5865925E-01
  0.1082360E+02 -0.1082360E+02 -0.1027320E+00  0.6627606E-01  0.2131054E+01  0.3521937E-01 -0.5614367E-01
  0.1183240E+02 -0.9710590E+01 -0.1027320E+00  0.6347810E-01  0.2130964E+01  0.3372770E-01 -0.5377650E-01
  0.1272720E+02 -0.8504060E+01 -0.1027320E+00  0.6077441E-01  0.2131404E+01  0.3231383E-01 -0.5147179E-01
