 VARIABLES="X" "Y" "Z" "abs(eta) (m)" "angle(phi) (rad)" "PRE1" "PRE2"
ZONE N=   3200 ,E =    3136 ,F=FEPOINT,ET=QUADRILATERAL
  0.1530690E+02  0.0000000E+00  0.0000000E+00  0.8761004E+00 -0.6491936E+00 -0.6978766E+00  0.5296415E+00
  0.1523320E+02  0.1500340E+01  0.0000000E+00  0.8747201E+00 -0.6511856E+00 -0.6957224E+00  0.5301939E+00
  0.1501280E+02  0.2986230E+01  0.0000000E+00  0.8707484E+00 -0.6572331E+00 -0.6893590E+00  0.5319651E+00
  0.1464780E+02  0.4443360E+01  0.0000000E+00  0.8639210E+00 -0.6667727E+00 -0.6788878E+00  0.5342946E+00
  0.1414170E+02  0.5857700E+01  0.0000000E+00  0.8550022E+00 -0.6803277E+00 -0.6646501E+00  0.5378372E+00
  0.1349950E+02  0.7215620E+01  0.0000000E+00  0.8450316E+00 -0.6987879E+00 -0.6469752E+00  0.5436005E+00
  0.1272720E+02  0.8504060E+01  0.0000000E+00  0.8359603E+00 -0.7232115E+00 -0.6267062E+00  0.5532349E+00
  0.1183240E+02  0.9710600E+01  0.0000000E+00  0.8220695E+00 -0.7504850E+00 -0.6012273E+00  0.5606461E+00
  0.1082360E+02  0.1082360E+02  0.0000000E+00  0.8003992E+00 -0.7792199E+00 -0.5694537E+00  0.5624602E+00
  0.9710590E+01  0.1183240E+02  0.0000000E+00  0.7787749E+00 -0.8136104E+00 -0.5349241E+00  0.5659916E+00
  0.8504060E+01  0.1272720E+02  0.0000000E+00  0.7520443E+00 -0.8517310E+00 -0.4953578E+00  0.5658545E+00
  0.7215620E+01  0.1349950E+02  0.0000000E+00  0.7150550E+00 -0.8924742E+00 -0.4486880E+00  0.5567609E+00
  0.5857700E+01  0.1414170E+02  0.0000000E+00  0.6774671E+00 -0.9398433E+00 -0.3996477E+00  0.5470315E+00
  0.4443360E+01  0.1464780E+02  0.0000000E+00  0.6248121E+00 -0.9922443E+00 -0.3416549E+00  0.5231273E+00
  0.2986230E+01  0.1501280E+02  0.0000000E+00  0.5391884E+00 -0.1049835E+01 -0.2683618E+00  0.4676602E+00
  0.1500340E+01  0.1523320E+02  0.0000000E+00  0.2714818E+00 -0.1106879E+01 -0.1214757E+00  0.2427879E+00
 -0.6690860E-06  0.1530690E+02  0.0000000E+00  0.9795787E-01 -0.1534258E+01 -0.3578450E-02  0.9789249E-01
 -0.1500340E+01  0.1523320E+02  0.0000000E+00  0.1290415E+00  0.2783089E+01  0.1208374E+00 -0.4527726E-01
 -0.2986230E+01  0.1501280E+02  0.0000000E+00  0.3967563E+00  0.2419927E+01  0.2978476E+00 -0.2621114E+00
 -0.4443360E+01  0.1464780E+02  0.0000000E+00  0.4871422E+00  0.2442070E+01  0.3727367E+00 -0.3136476E+00
 -0.5857700E+01  0.1414170E+02  0.0000000E+00  0.5429963E+00  0.2476374E+01  0.4272195E+00 -0.3351543E+00
 -0.7215620E+01  0.1349950E+02  0.0000000E+00  0.5836017E+00  0.2513269E+01  0.4721418E+00 -0.3430351E+00
 -0.8504060E+01  0.1272720E+02  0.0000000E+00  0.6222997E+00  0.2542964E+01  0.5140875E+00 -0.3506721E+00
 -0.9710590E+01  0.1183240E+02  0.0000000E+00  0.6506156E+00  0.2574289E+01  0.5486984E+00 -0.3496150E+00
 -0.1082360E+02  0.1082360E+02  0.0000000E+00  0.6738566E+00  0.2603947E+01  0.5787867E+00 -0.3450923E+00
 -0.1183240E+02  0.9710590E+01  0.0000000E+00  0.6971110E+00  0.2628138E+01  0.6072204E+00 -0.3424136E+00
 -0.1272720E+02  0.8504060E+01  0.0000000E+00  0.7126877E+00  0.2653288E+01  0.6293956E+00 -0.3343425E+00
 -0.1349950E+02  0.7215620E+01  0.0000000E+00  0.7230745E+00  0.2676701E+01  0.6463346E+00 -0.3241732E+00
 -0.1414170E+02  0.5857690E+01  0.0000000E+00  0.7336840E+00  0.2693333E+01  0.6611980E+00 -0.3179770E+00
 -0.1464780E+02  0.4443360E+01  0.0000000E+00  0.7431224E+00  0.2705201E+01  0.6734789E+00 -0.3140973E+00
 -0.1501280E+02  0.2986230E+01  0.0000000E+00  0.7503132E+00  0.2713430E+01  0.6825826E+00 -0.3115301E+00
 -0.1523320E+02  0.1500340E+01  0.0000000E+00  0.7544848E+00  0.2718755E+01  0.6880360E+00 -0.3096026E+00
 -0.1530690E+02 -0.1338170E-05  0.0000000E+00  0.7559332E+00  0.2720490E+01  0.6898940E+00 -0.3090004E+00
 -0.1523320E+02 -0.1500340E+01  0.0000000E+00  0.7544850E+00  0.2718756E+01  0.6880366E+00 -0.3096018E+00
 -0.1501280E+02 -0.2986230E+01  0.0000000E+00  0.7503111E+00  0.2713429E+01  0.6825804E+00 -0.3115298E+00
 -0.1464780E+02 -0.4443360E+01  0.0000000E+00  0.7431219E+00  0.2705201E+01  0.6734784E+00 -0.3140970E+00
 -0.1414170E+02 -0.5857700E+01  0.0000000E+00  0.7336862E+00  0.2693334E+01  0.6612004E+00 -0.3179771E+00
 -0.1349950E+02 -0.7215620E+01  0.0000000E+00  0.7230751E+00  0.2676700E+01  0.6463350E+00 -0.3241738E+00
 -0.1272720E+02 -0.8504060E+01  0.0000000E+00  0.7126879E+00  0.2653291E+01  0.6293967E+00 -0.3343408E+00
 -0.1183240E+02 -0.9710600E+01  0.0000000E+00  0.6971108E+00  0.2628137E+01  0.6072201E+00 -0.3424138E+00
 -0.1082360E+02 -0.1082360E+02  0.0000000E+00  0.6738576E+00  0.2603947E+01  0.5787876E+00 -0.3450927E+00
 -0.9710600E+01 -0.1183240E+02  0.0000000E+00  0.6506153E+00  0.2574289E+01  0.5486982E+00 -0.3496149E+00
 -0.8504050E+01 -0.1272720E+02  0.0000000E+00  0.6222996E+00  0.2542963E+01  0.5140871E+00 -0.3506725E+00
 -0.7215620E+01 -0.1349950E+02  0.0000000E+00  0.5836017E+00  0.2513268E+01  0.4721417E+00 -0.3430352E+00
 -0.5857690E+01 -0.1414170E+02  0.0000000E+00  0.5429960E+00  0.2476373E+01  0.4272191E+00 -0.3351545E+00
 -0.4443360E+01 -0.1464780E+02  0.0000000E+00  0.4871415E+00  0.2442070E+01  0.3727363E+00 -0.3136471E+00
 -0.2986230E+01 -0.1501280E+02  0.0000000E+00  0.3967563E+00  0.2419929E+01  0.2978479E+00 -0.2621110E+00
 -0.1500340E+01 -0.1523320E+02  0.0000000E+00  0.1290415E+00  0.2783092E+01  0.1208375E+00 -0.4527694E-01
  0.1825330E-06 -0.1530690E+02  0.0000000E+00  0.9795835E-01 -0.1534273E+01 -0.3576946E-02  0.9789302E-01
  0.1500340E+01 -0.1523320E+02  0.0000000E+00  0.2714819E+00 -0.1106879E+01 -0.1214758E+00  0.2427881E+00
  0.2986230E+01 -0.1501280E+02  0.0000000E+00  0.5391889E+00 -0.1049835E+01 -0.2683621E+00  0.4676606E+00
  0.4443360E+01 -0.1464780E+02  0.0000000E+00  0.6248125E+00 -0.9922438E+00 -0.3416554E+00  0.5231274E+00
  0.5857700E+01 -0.1414170E+02  0.0000000E+00  0.6774663E+00 -0.9398450E+00 -0.3996463E+00  0.5470314E+00
  0.7215620E+01 -0.1349950E+02  0.0000000E+00  0.7150561E+00 -0.8924728E+00 -0.4486895E+00  0.5567611E+00
  0.8504060E+01 -0.1272720E+02  0.0000000E+00  0.7520447E+00 -0.8517320E+00 -0.4953575E+00  0.5658553E+00
  0.9710600E+01 -0.1183240E+02  0.0000000E+00  0.7787743E+00 -0.8136106E+00 -0.5349236E+00  0.5659913E+00
  0.1082360E+02 -0.1082360E+02  0.0000000E+00  0.8003984E+00 -0.7792208E+00 -0.5694525E+00  0.5624602E+00
  0.1183240E+02 -0.9710590E+01  0.0000000E+00  0.8220712E+00 -0.7504849E+00 -0.6012286E+00  0.5606472E+00
  0.1272720E+02 -0.8504060E+01  0.0000000E+00  0.8359600E+00 -0.7232124E+00 -0.6267055E+00  0.5532353E+00
  0.1349950E+02 -0.7215620E+01  0.0000000E+00  0.8450322E+00 -0.6987864E+00 -0.6469765E+00  0.5435999E+00
  0.1414170E+02 -0.5857700E+01  0.0000000E+00  0.8550025E+00 -0.6803290E+00 -0.6646497E+00  0.5378383E+00
  0.1464780E+02 -0.4443350E+01  0.0000000E+00  0.8639209E+00 -0.6667730E+00 -0.6788876E+00  0.5342947E+00
  0.1501280E+02 -0.2986230E+01  0.0000000E+00  0.8707498E+00 -0.6572322E+00 -0.6893606E+00  0.5319654E+00
  0.1523320E+02 -0.1500330E+01  0.0000000E+00  0.8747196E+00 -0.6511862E+00 -0.6957216E+00  0.5301940E+00
  0.1530690E+02  0.0000000E+00 -0.2568960E-01  0.8747436E+00 -0.6492280E+00 -0.6967776E+00  0.5288452E+00
  0.1523320E+02  0.1500340E+01 -0.2568960E-01  0.8733654E+00 -0.6512223E+00 -0.6946254E+00  0.5293983E+00
  0.1501280E+02  0.2986230E+01 -0.2568960E-01  0.8694048E+00 -0.6572689E+00 -0.6882763E+00  0.5311689E+00
  0.1464780E+02  0.4443360E+01 -0.2568960E-01  0.8625905E+00 -0.6668117E+00 -0.6778215E+00  0.5334982E+00
  0.1414170E+02  0.5857700E+01 -0.2568960E-01  0.8536866E+00 -0.6803659E+00 -0.6636069E+00  0.5370350E+00
  0.1349950E+02  0.7215620E+01 -0.2568960E-01  0.8437165E+00 -0.6988212E+00 -0.6459503E+00  0.5427760E+00
  0.1272720E+02  0.8504060E+01 -0.2568960E-01  0.8346222E+00 -0.7232235E+00 -0.6256965E+00  0.5523569E+00
  0.1183240E+02  0.9710600E+01 -0.2568960E-01  0.8207459E+00 -0.7504925E+00 -0.6002551E+00  0.5597479E+00
  0.1082360E+02  0.1082360E+02 -0.2568960E-01  0.7991415E+00 -0.7792429E+00 -0.5685459E+00  0.5615895E+00
  0.9710590E+01  0.1183240E+02 -0.2568960E-01  0.7775338E+00 -0.8136283E+00 -0.5340616E+00  0.5650992E+00
  0.8504060E+01  0.1272720E+02 -0.2568960E-01  0.7508466E+00 -0.8517358E+00 -0.4945662E+00  0.5649557E+00
  0.7215620E+01  0.1349950E+02 -0.2568960E-01  0.7139858E+00 -0.8925081E+00 -0.4479983E+00  0.5559436E+00
  0.5857700E+01  0.1414170E+02 -0.2568960E-01  0.6764358E+00 -0.9398746E+00 -0.3990223E+00  0.5462112E+00
  0.4443360E+01  0.1464780E+02 -0.2568960E-01  0.6239083E+00 -0.9922767E+00 -0.3411438E+00  0.5223815E+00
  0.2986230E+01  0.1501280E+02 -0.2568960E-01  0.5383838E+00 -0.1049855E+01 -0.2679518E+00  0.4669679E+00
  0.1500340E+01  0.1523320E+02 -0.2568960E-01  0.2711272E+00 -0.1106873E+01 -0.1213186E+00  0.2424701E+00
 -0.6690860E-06  0.1530690E+02 -0.2568960E-01  0.9779668E-01 -0.1534294E+01 -0.3569016E-02  0.9773153E-01
 -0.1500340E+01  0.1523320E+02 -0.2568960E-01  0.1289025E+00  0.2782610E+01  0.1206856E+00 -0.4528620E-01
 -0.2986230E+01  0.1501280E+02 -0.2568960E-01  0.3961897E+00  0.2419873E+01  0.2974081E+00 -0.2617532E+00
 -0.4443360E+01  0.1464780E+02 -0.2568960E-01  0.4864688E+00  0.2441996E+01  0.3721982E+00 -0.3132418E+00
 -0.5857700E+01  0.1414170E+02 -0.2568960E-01  0.5421928E+00  0.2476333E+01  0.4265737E+00 -0.3346759E+00
 -0.7215620E+01  0.1349950E+02 -0.2568960E-01  0.5827479E+00  0.2513202E+01  0.4714284E+00 -0.3425644E+00
 -0.8504060E+01  0.1272720E+02 -0.2568960E-01  0.6213136E+00  0.2542954E+01  0.5132695E+00 -0.3501214E+00
 -0.9710590E+01  0.1183240E+02 -0.2568960E-01  0.6495898E+00  0.2574275E+01  0.5478284E+00 -0.3490714E+00
 -0.1082360E+02  0.1082360E+02 -0.2568960E-01  0.6728113E+00  0.2603923E+01  0.5778805E+00 -0.3445709E+00
 -0.1183240E+02  0.9710590E+01 -0.2568960E-01  0.6959991E+00  0.2628134E+01  0.6062507E+00 -0.3418697E+00
 -0.1272720E+02  0.8504060E+01 -0.2568960E-01  0.7115558E+00  0.2653273E+01  0.6283909E+00 -0.3338211E+00
 -0.1349950E+02  0.7215620E+01 -0.2568960E-01  0.7219601E+00  0.2676652E+01  0.6453226E+00 -0.3237052E+00
 -0.1414170E+02  0.5857690E+01 -0.2568960E-01  0.7325625E+00  0.2693273E+01  0.6601683E+00 -0.3175305E+00
 -0.1464780E+02  0.4443360E+01 -0.2568960E-01  0.7419844E+00  0.2705143E+01  0.6724294E+00 -0.3136551E+00
 -0.1501280E+02  0.2986230E+01 -0.2568960E-01  0.7491572E+00  0.2713372E+01  0.6815128E+00 -0.3110897E+00
 -0.1523320E+02  0.1500340E+01 -0.2568960E-01  0.7533233E+00  0.2718700E+01  0.6869597E+00 -0.3091638E+00
 -0.1530690E+02 -0.1338170E-05 -0.2568960E-01  0.7547713E+00  0.2720437E+01  0.6888171E+00 -0.3085622E+00
 -0.1523320E+02 -0.1500340E+01 -0.2568960E-01  0.7533237E+00  0.2718700E+01  0.6869600E+00 -0.3091642E+00
 -0.1501280E+02 -0.2986230E+01 -0.2568960E-01  0.7491577E+00  0.2713374E+01  0.6815139E+00 -0.3110886E+00
 -0.1464780E+02 -0.4443360E+01 -0.2568960E-01  0.7419845E+00  0.2705143E+01  0.6724295E+00 -0.3136551E+00
 -0.1414170E+02 -0.5857700E+01 -0.2568960E-01  0.7325613E+00  0.2693274E+01  0.6601676E+00 -0.3175291E+00
 -0.1349950E+02 -0.7215620E+01 -0.2568960E-01  0.7219606E+00  0.2676650E+01  0.6453226E+00 -0.3237065E+00
 -0.1272720E+02 -0.8504060E+01 -0.2568960E-01  0.7115548E+00  0.2653273E+01  0.6283900E+00 -0.3338207E+00
 -0.1183240E+02 -0.9710600E+01 -0.2568960E-01  0.6959980E+00  0.2628135E+01  0.6062499E+00 -0.3418688E+00
 -0.1082360E+02 -0.1082360E+02 -0.2568960E-01  0.6728104E+00  0.2603922E+01  0.5778795E+00 -0.3445709E+00
 -0.9710600E+01 -0.1183240E+02 -0.2568960E-01  0.6495895E+00  0.2574276E+01  0.5478286E+00 -0.3490708E+00
 -0.8504050E+01 -0.1272720E+02 -0.2568960E-01  0.6213133E+00  0.2542953E+01  0.5132686E+00 -0.3501222E+00
 -0.7215620E+01 -0.1349950E+02 -0.2568960E-01  0.5827472E+00  0.2513203E+01  0.4714281E+00 -0.3425636E+00
 -0.5857690E+01 -0.1414170E+02 -0.2568960E-01  0.5421923E+00  0.2476331E+01  0.4265729E+00 -0.3346761E+00
 -0.4443360E+01 -0.1464780E+02 -0.2568960E-01  0.4864681E+00  0.2441998E+01  0.3721982E+00 -0.3132407E+00
 -0.2986230E+01 -0.1501280E+02 -0.2568960E-01  0.3961889E+00  0.2419874E+01  0.2974076E+00 -0.2617525E+00
 -0.1500340E+01 -0.1523320E+02 -0.2568960E-01  0.1289023E+00  0.2782615E+01  0.1206857E+00 -0.4528556E-01
  0.1825330E-06 -0.1530690E+02 -0.2568960E-01  0.9779754E-01 -0.1534282E+01 -0.3570182E-02  0.9773235E-01
  0.1500340E+01 -0.1523320E+02 -0.2568960E-01  0.2711271E+00 -0.1106874E+01 -0.1213184E+00  0.2424701E+00
  0.2986230E+01 -0.1501280E+02 -0.2568960E-01  0.5383846E+00 -0.1049855E+01 -0.2679523E+00  0.4669684E+00
  0.4443360E+01 -0.1464780E+02 -0.2568960E-01  0.6239079E+00 -0.9922788E+00 -0.3411424E+00  0.5223819E+00
  0.5857700E+01 -0.1414170E+02 -0.2568960E-01  0.6764359E+00 -0.9398737E+00 -0.3990228E+00  0.5462109E+00
  0.7215620E+01 -0.1349950E+02 -0.2568960E-01  0.7139854E+00 -0.8925097E+00 -0.4479972E+00  0.5559440E+00
  0.8504060E+01 -0.1272720E+02 -0.2568960E-01  0.7508474E+00 -0.8517367E+00 -0.4945662E+00  0.5649567E+00
  0.9710600E+01 -0.1183240E+02 -0.2568960E-01  0.7775328E+00 -0.8136294E+00 -0.5340602E+00  0.5650991E+00
  0.1082360E+02 -0.1082360E+02 -0.2568960E-01  0.7991417E+00 -0.7792426E+00 -0.5685462E+00  0.5615895E+00
  0.1183240E+02 -0.9710590E+01 -0.2568960E-01  0.8207452E+00 -0.7504947E+00 -0.6002533E+00  0.5597487E+00
  0.1272720E+02 -0.8504060E+01 -0.2568960E-01  0.8346222E+00 -0.7232239E+00 -0.6256962E+00  0.5523571E+00
  0.1349950E+02 -0.7215620E+01 -0.2568960E-01  0.8437176E+00 -0.6988207E+00 -0.6459514E+00  0.5427765E+00
  0.1414170E+02 -0.5857700E+01 -0.2568960E-01  0.8536868E+00 -0.6803648E+00 -0.6636077E+00  0.5370344E+00
  0.1464780E+02 -0.4443350E+01 -0.2568960E-01  0.8625903E+00 -0.6668115E+00 -0.6778215E+00  0.5334979E+00
  0.1501280E+02 -0.2986230E+01 -0.2568960E-01  0.8694031E+00 -0.6572698E+00 -0.6882744E+00  0.5311686E+00
  0.1523320E+02 -0.1500330E+01 -0.2568960E-01  0.8733652E+00 -0.6512223E+00 -0.6946253E+00  0.5293983E+00
  0.1530690E+02  0.0000000E+00 -0.1027320E+00  0.8707236E+00 -0.6493542E+00 -0.6935091E+00  0.5265024E+00
  0.1523320E+02  0.1500340E+01 -0.1027320E+00  0.8693535E+00 -0.6513538E+00 -0.6913653E+00  0.5270573E+00
  0.1501280E+02  0.2986230E+01 -0.1027320E+00  0.8654144E+00 -0.6574007E+00 -0.6850476E+00  0.5288213E+00
  0.1464780E+02  0.4443360E+01 -0.1027320E+00  0.8586459E+00 -0.6669449E+00 -0.6746511E+00  0.5311484E+00
  0.1414170E+02  0.5857700E+01 -0.1027320E+00  0.8497827E+00 -0.6804975E+00 -0.6605019E+00  0.5346661E+00
  0.1349950E+02  0.7215620E+01 -0.1027320E+00  0.8398233E+00 -0.6989255E+00 -0.6429133E+00  0.5403385E+00
  0.1272720E+02  0.8504060E+01 -0.1027320E+00  0.8306563E+00 -0.7232699E+00 -0.6226978E+00  0.5497612E+00
  0.1183240E+02  0.9710600E+01 -0.1027320E+00  0.8168155E+00 -0.7505258E+00 -0.5973620E+00  0.5570872E+00
  0.1082360E+02  0.1082360E+02 -0.1027320E+00  0.7954000E+00 -0.7793174E+00 -0.5658423E+00  0.5590023E+00
  0.9710590E+01  0.1183240E+02 -0.1027320E+00  0.7738456E+00 -0.8136803E+00 -0.5314990E+00  0.5624463E+00
  0.8504060E+01  0.1272720E+02 -0.1027320E+00  0.7472678E+00 -0.8517753E+00 -0.4921867E+00  0.5622824E+00
  0.7215620E+01  0.1349950E+02 -0.1027320E+00  0.7107537E+00 -0.8925947E+00 -0.4459223E+00  0.5534655E+00
  0.5857700E+01  0.1414170E+02 -0.1027320E+00  0.6733787E+00 -0.9399595E+00 -0.3971727E+00  0.5437763E+00
  0.4443360E+01  0.1464780E+02 -0.1027320E+00  0.6212155E+00 -0.9923787E+00 -0.3396184E+00  0.5201616E+00
  0.2986230E+01  0.1501280E+02 -0.1027320E+00  0.5359665E+00 -0.1049906E+01 -0.2667253E+00  0.4648845E+00
  0.1500340E+01  0.1523320E+02 -0.1027320E+00  0.2700499E+00 -0.1106887E+01 -0.1208331E+00  0.2415084E+00
 -0.6690860E-06  0.1530690E+02 -0.1027320E+00  0.9731422E-01 -0.1534214E+01 -0.3559199E-02  0.9724911E-01
 -0.1500340E+01  0.1523320E+02 -0.1027320E+00  0.1284711E+00  0.2781269E+01  0.1202211E+00 -0.4529594E-01
 -0.2986230E+01  0.1501280E+02 -0.1027320E+00  0.3944799E+00  0.2419719E+01  0.2960842E+00 -0.2606694E+00
 -0.4443360E+01  0.1464780E+02 -0.1027320E+00  0.4844594E+00  0.2441764E+01  0.3705884E+00 -0.3120339E+00
 -0.5857700E+01  0.1414170E+02 -0.1027320E+00  0.5398083E+00  0.2476182E+01  0.4246474E+00 -0.3332680E+00
 -0.7215620E+01  0.1349950E+02 -0.1027320E+00  0.5801594E+00  0.2513037E+01  0.4692778E+00 -0.3411205E+00
 -0.8504060E+01  0.1272720E+02 -0.1027320E+00  0.6183789E+00  0.2542908E+01  0.5108290E+00 -0.3484914E+00
 -0.9710590E+01  0.1183240E+02 -0.1027320E+00  0.6465393E+00  0.2574214E+01  0.5452349E+00 -0.3474649E+00
 -0.1082360E+02  0.1082360E+02 -0.1027320E+00  0.6696990E+00  0.2603819E+01  0.5751717E+00 -0.3430367E+00
 -0.1183240E+02  0.9710590E+01 -0.1027320E+00  0.6926826E+00  0.2628097E+01  0.6033492E+00 -0.3402629E+00
 -0.1272720E+02  0.8504060E+01 -0.1027320E+00  0.7081878E+00  0.2653209E+01  0.6253954E+00 -0.3322810E+00
 -0.1349950E+02  0.7215620E+01 -0.1027320E+00  0.7186465E+00  0.2676484E+01  0.6423067E+00 -0.3223273E+00
 -0.1414170E+02  0.5857690E+01 -0.1027320E+00  0.7292330E+00  0.2693071E+01  0.6571038E+00 -0.3162204E+00
 -0.1464780E+02  0.4443360E+01 -0.1027320E+00  0.7386103E+00  0.2704934E+01  0.6693062E+00 -0.3123689E+00
 -0.1501280E+02  0.2986230E+01 -0.1027320E+00  0.7457443E+00  0.2713174E+01  0.6783468E+00 -0.3098069E+00
 -0.1523320E+02  0.1500340E+01 -0.1027320E+00  0.7498845E+00  0.2718504E+01  0.6837634E+00 -0.3078868E+00
 -0.1530690E+02 -0.1338170E-05 -0.1027320E+00  0.7513182E+00  0.2720243E+01  0.6856063E+00 -0.3072833E+00
 -0.1523320E+02 -0.1500340E+01 -0.1027320E+00  0.7498832E+00  0.2718502E+01  0.6837619E+00 -0.3078872E+00
 -0.1501280E+02 -0.2986230E+01 -0.1027320E+00  0.7457426E+00  0.2713173E+01  0.6783450E+00 -0.3098067E+00
 -0.1464780E+02 -0.4443360E+01 -0.1027320E+00  0.7386115E+00  0.2704934E+01  0.6693074E+00 -0.3123692E+00
 -0.1414170E+02 -0.5857700E+01 -0.1027320E+00  0.7292318E+00  0.2693071E+01  0.6571029E+00 -0.3162195E+00
 -0.1349950E+02 -0.7215620E+01 -0.1027320E+00  0.7186469E+00  0.2676484E+01  0.6423072E+00 -0.3223272E+00
 -0.1272720E+02 -0.8504060E+01 -0.1027320E+00  0.7081883E+00  0.2653210E+01  0.6253959E+00 -0.3322810E+00
 -0.1183240E+02 -0.9710600E+01 -0.1027320E+00  0.6926827E+00  0.2628099E+01  0.6033499E+00 -0.3402621E+00
 -0.1082360E+02 -0.1082360E+02 -0.1027320E+00  0.6696985E+00  0.2603818E+01  0.5751709E+00 -0.3430372E+00
 -0.9710600E+01 -0.1183240E+02 -0.1027320E+00  0.6465394E+00  0.2574214E+01  0.5452347E+00 -0.3474656E+00
 -0.8504050E+01 -0.1272720E+02 -0.1027320E+00  0.6183778E+00  0.2542907E+01  0.5108279E+00 -0.3484910E+00
 -0.7215620E+01 -0.1349950E+02 -0.1027320E+00  0.5801574E+00  0.2513035E+01  0.4692755E+00 -0.3411204E+00
 -0.5857690E+01 -0.1414170E+02 -0.1027320E+00  0.5398067E+00  0.2476182E+01  0.4246460E+00 -0.3332672E+00
 -0.4443360E+01 -0.1464780E+02 -0.1027320E+00  0.4844594E+00  0.2441763E+01  0.3705883E+00 -0.3120340E+00
 -0.2986230E+01 -0.1501280E+02 -0.1027320E+00  0.3944784E+00  0.2419716E+01  0.2960824E+00 -0.2606691E+00
 -0.1500340E+01 -0.1523320E+02 -0.1027320E+00  0.1284718E+00  0.2781275E+01  0.1202220E+00 -0.4529545E-01
  0.1825330E-06 -0.1530690E+02 -0.1027320E+00  0.9731436E-01 -0.1534204E+01 -0.3560173E-02  0.9724921E-01
  0.1500340E+01 -0.1523320E+02 -0.1027320E+00  0.2700502E+00 -0.1106891E+01 -0.1208324E+00  0.2415091E+00
  0.2986230E+01 -0.1501280E+02 -0.1027320E+00  0.5359663E+00 -0.1049906E+01 -0.2667252E+00  0.4648845E+00
  0.4443360E+01 -0.1464780E+02 -0.1027320E+00  0.6212152E+00 -0.9923792E+00 -0.3396179E+00  0.5201615E+00
  0.5857700E+01 -0.1414170E+02 -0.1027320E+00  0.6733799E+00 -0.9399586E+00 -0.3971739E+00  0.5437769E+00
  0.7215620E+01 -0.1349950E+02 -0.1027320E+00  0.7107531E+00 -0.8925946E+00 -0.4459220E+00  0.5534651E+00
  0.8504060E+01 -0.1272720E+02 -0.1027320E+00  0.7472688E+00 -0.8517746E+00 -0.4921877E+00  0.5622827E+00
  0.9710600E+01 -0.1183240E+02 -0.1027320E+00  0.7738458E+00 -0.8136774E+00 -0.5315007E+00  0.5624449E+00
  0.1082360E+02 -0.1082360E+02 -0.1027320E+00  0.7953996E+00 -0.7793176E+00 -0.5658419E+00  0.5590022E+00
  0.1183240E+02 -0.9710590E+01 -0.1027320E+00  0.8168158E+00 -0.7505257E+00 -0.5973622E+00  0.5570874E+00
  0.1272720E+02 -0.8504060E+01 -0.1027320E+00  0.8306565E+00 -0.7232698E+00 -0.6226980E+00  0.5497612E+00
