 VARIABLES="X" "Y" "Z" "abs(eta) (m)" "angle(phi) (rad)" "PRE1" "PRE2"
ZONE N=   3200 ,E =    3136 ,F=FEPOINT,ET=QUADRILATERAL
  0.1672760E+02  0.0000000E+00  0.0000000E+00  0.2558021E+00 -0.1334672E+01 -0.5984136E-01  0.2487041E+00
  0.1664710E+02  0.1639590E+01  0.0000000E+00  0.2534991E+00 -0.1331004E+01 -0.6020629E-01  0.2462458E+00
  0.1640620E+02  0.3263390E+01  0.0000000E+00  0.2501482E+00 -0.1329197E+01 -0.5984932E-01  0.2428831E+00
  0.1600730E+02  0.4855770E+01  0.0000000E+00  0.2457214E+00 -0.1329355E+01 -0.5875256E-01  0.2385941E+00
  0.1545430E+02  0.6401380E+01  0.0000000E+00  0.2412394E+00 -0.1331457E+01 -0.5718853E-01  0.2343628E+00
  0.1475240E+02  0.7885340E+01  0.0000000E+00  0.2369301E+00 -0.1335376E+01 -0.5526444E-01  0.2303947E+00
  0.1390850E+02  0.9293360E+01  0.0000000E+00  0.2333790E+00 -0.1341173E+01 -0.5311958E-01  0.2272533E+00
  0.1293060E+02  0.1061190E+02  0.0000000E+00  0.2296251E+00 -0.1348696E+01 -0.5058162E-01  0.2239848E+00
  0.1182820E+02  0.1182820E+02  0.0000000E+00  0.2214998E+00 -0.1359058E+01 -0.4655034E-01  0.2165531E+00
  0.1061190E+02  0.1293060E+02  0.0000000E+00  0.2129337E+00 -0.1371253E+01 -0.4220800E-01  0.2087085E+00
  0.9293360E+01  0.1390850E+02  0.0000000E+00  0.2026619E+00 -0.1386100E+01 -0.3721842E-01  0.1992151E+00
  0.7885330E+01  0.1475240E+02  0.0000000E+00  0.1871046E+00 -0.1406290E+01 -0.3064126E-01  0.1845785E+00
  0.6401380E+01  0.1545430E+02  0.0000000E+00  0.1684888E+00 -0.1432370E+01 -0.2324893E-01  0.1668771E+00
  0.4855770E+01  0.1600730E+02  0.0000000E+00  0.1402545E+00 -0.1477666E+01 -0.1304314E-01  0.1396467E+00
  0.3263390E+01  0.1640620E+02  0.0000000E+00  0.9336653E-01 -0.1601357E+01  0.2852859E-02  0.9332294E-01
  0.1639590E+01  0.1664710E+02  0.0000000E+00  0.3716803E-01 -0.2306157E+01  0.2493436E-01  0.2756339E-01
 -0.7311870E-06  0.1672760E+02  0.0000000E+00  0.5521660E-01  0.2533362E+01  0.4531407E-01 -0.3155168E-01
 -0.1639590E+01  0.1664710E+02  0.0000000E+00  0.1005684E+00  0.2232840E+01  0.6182241E-01 -0.7932207E-01
 -0.3263390E+01  0.1640620E+02  0.0000000E+00  0.1382273E+00  0.2135685E+01  0.7399610E-01 -0.1167534E+00
 -0.4855770E+01  0.1600730E+02  0.0000000E+00  0.1601681E+00  0.2097410E+01  0.8050193E-01 -0.1384675E+00
 -0.6401380E+01  0.1545430E+02  0.0000000E+00  0.1713692E+00  0.2081382E+01  0.8374611E-01 -0.1495125E+00
 -0.7885340E+01  0.1475240E+02  0.0000000E+00  0.1771505E+00  0.2074202E+01  0.8545948E-01 -0.1551740E+00
 -0.9293360E+01  0.1390850E+02  0.0000000E+00  0.1827154E+00  0.2068558E+01  0.8723921E-01 -0.1605435E+00
 -0.1061190E+02  0.1293060E+02  0.0000000E+00  0.1849925E+00  0.2066899E+01  0.8805680E-01 -0.1626906E+00
 -0.1182820E+02  0.1182820E+02  0.0000000E+00  0.1863565E+00  0.2066207E+01  0.8859253E-01 -0.1639515E+00
 -0.1293060E+02  0.1061190E+02  0.0000000E+00  0.1874361E+00  0.2065738E+01  0.8902856E-01 -0.1649431E+00
 -0.1390850E+02  0.9293360E+01  0.0000000E+00  0.1853373E+00  0.2068118E+01  0.8841950E-01 -0.1628862E+00
 -0.1475240E+02  0.7885330E+01  0.0000000E+00  0.1838280E+00  0.2068019E+01  0.8768345E-01 -0.1615684E+00
 -0.1545430E+02  0.6401370E+01  0.0000000E+00  0.1832941E+00  0.2064532E+01  0.8686641E-01 -0.1614031E+00
 -0.1600730E+02  0.4855770E+01  0.0000000E+00  0.1827824E+00  0.2059361E+01  0.8579060E-01 -0.1613982E+00
 -0.1640620E+02  0.3263390E+01  0.0000000E+00  0.1821785E+00  0.2052814E+01  0.8445206E-01 -0.1614214E+00
 -0.1664710E+02  0.1639590E+01  0.0000000E+00  0.1808127E+00  0.2045939E+01  0.8271558E-01 -0.1607836E+00
 -0.1672760E+02 -0.1462370E-05  0.0000000E+00  0.1785558E+00  0.2038991E+01  0.8057802E-01 -0.1593404E+00
 -0.1664710E+02 -0.1639590E+01  0.0000000E+00  0.1752839E+00  0.2032383E+01  0.7806604E-01 -0.1569399E+00
 -0.1640620E+02 -0.3263400E+01  0.0000000E+00  0.1710775E+00  0.2026161E+01  0.7523809E-01 -0.1536448E+00
 -0.1600730E+02 -0.4855770E+01  0.0000000E+00  0.1659416E+00  0.2020577E+01  0.7214612E-01 -0.1494374E+00
 -0.1545430E+02 -0.6401380E+01  0.0000000E+00  0.1607139E+00  0.2012524E+01  0.6870544E-01 -0.1452877E+00
 -0.1475240E+02 -0.7885340E+01  0.0000000E+00  0.1555648E+00  0.2000971E+01  0.6487507E-01 -0.1413918E+00
 -0.1390850E+02 -0.9293360E+01  0.0000000E+00  0.1510489E+00  0.1984345E+01  0.6070073E-01 -0.1383156E+00
 -0.1293060E+02 -0.1061190E+02  0.0000000E+00  0.1463481E+00  0.1965252E+01  0.5624244E-01 -0.1351094E+00
 -0.1182820E+02 -0.1182820E+02  0.0000000E+00  0.1378786E+00  0.1956306E+01  0.5184665E-01 -0.1277592E+00
 -0.1061190E+02 -0.1293060E+02  0.0000000E+00  0.1289357E+00  0.1945258E+01  0.4716097E-01 -0.1200010E+00
 -0.9293350E+01 -0.1390850E+02  0.0000000E+00  0.1184436E+00  0.1936534E+01  0.4235992E-01 -0.1106098E+00
 -0.7885340E+01 -0.1475240E+02  0.0000000E+00  0.1032613E+00  0.1945363E+01  0.3778014E-01 -0.9610181E-01
 -0.6401370E+01 -0.1545430E+02  0.0000000E+00  0.8532880E-01  0.1971556E+01  0.3328832E-01 -0.7856776E-01
 -0.4855760E+01 -0.1600730E+02  0.0000000E+00  0.5946732E-01  0.2092222E+01  0.2962166E-01 -0.5156470E-01
 -0.3263390E+01 -0.1640620E+02  0.0000000E+00  0.2851590E-01  0.2944777E+01  0.2796538E-01 -0.5576206E-02
 -0.1639590E+01 -0.1664710E+02  0.0000000E+00  0.6620867E-01 -0.2013313E+01  0.2835154E-01  0.5983125E-01
  0.1994750E-06 -0.1672760E+02  0.0000000E+00  0.1218737E+00 -0.1793763E+01  0.2694921E-01  0.1188568E+00
  0.1639600E+01 -0.1664710E+02  0.0000000E+00  0.1683444E+00 -0.1703219E+01  0.2222748E-01  0.1668706E+00
  0.3263390E+01 -0.1640620E+02  0.0000000E+00  0.2052850E+00 -0.1639821E+01  0.1415851E-01  0.2047962E+00
  0.4855770E+01 -0.1600730E+02  0.0000000E+00  0.2270053E+00 -0.1591643E+01  0.4731924E-02  0.2269560E+00
  0.6401380E+01 -0.1545430E+02  0.0000000E+00  0.2383512E+00 -0.1552833E+01 -0.4281240E-02  0.2383127E+00
  0.7885340E+01 -0.1475240E+02  0.0000000E+00  0.2445356E+00 -0.1518816E+01 -0.1270528E-01  0.2442053E+00
  0.9293360E+01 -0.1390850E+02  0.0000000E+00  0.2505563E+00 -0.1490215E+01 -0.2016838E-01  0.2497432E+00
  0.1061190E+02 -0.1293060E+02  0.0000000E+00  0.2534582E+00 -0.1463869E+01 -0.2704999E-01  0.2520106E+00
  0.1182820E+02 -0.1182820E+02  0.0000000E+00  0.2555295E+00 -0.1440296E+01 -0.3325207E-01  0.2533567E+00
  0.1293060E+02 -0.1061190E+02  0.0000000E+00  0.2573420E+00 -0.1419614E+01 -0.3875749E-01  0.2544067E+00
  0.1390850E+02 -0.9293360E+01  0.0000000E+00  0.2561350E+00 -0.1399222E+01 -0.4373078E-01  0.2523743E+00
  0.1475240E+02 -0.7885330E+01  0.0000000E+00  0.2556038E+00 -0.1381896E+01 -0.4799707E-01  0.2510569E+00
  0.1545430E+02 -0.6401380E+01  0.0000000E+00  0.2561386E+00 -0.1367832E+01 -0.5163076E-01  0.2508810E+00
  0.1600730E+02 -0.4855760E+01  0.0000000E+00  0.2567483E+00 -0.1356277E+01 -0.5465608E-01  0.2508633E+00
  0.1640620E+02 -0.3263390E+01  0.0000000E+00  0.2572696E+00 -0.1347213E+01 -0.5704309E-01  0.2508660E+00
  0.1664710E+02 -0.1639590E+01  0.0000000E+00  0.2570046E+00 -0.1340064E+01 -0.5877458E-01  0.2501938E+00
  0.1672760E+02  0.0000000E+00 -0.2568960E-01  0.2555684E+00 -0.1334684E+01 -0.5978380E-01  0.2484776E+00
  0.1664710E+02  0.1639590E+01 -0.2568960E-01  0.2532701E+00 -0.1331012E+01 -0.6014990E-01  0.2460239E+00
  0.1640620E+02  0.3263390E+01 -0.2568960E-01  0.2499267E+00 -0.1329204E+01 -0.5979475E-01  0.2426683E+00
  0.1600730E+02  0.4855770E+01 -0.2568960E-01  0.2455103E+00 -0.1329369E+01 -0.5869884E-01  0.2383899E+00
  0.1545430E+02  0.6401380E+01 -0.2568960E-01  0.2410368E+00 -0.1331463E+01 -0.5713911E-01  0.2341663E+00
  0.1475240E+02  0.7885340E+01 -0.2568960E-01  0.2367295E+00 -0.1335384E+01 -0.5521581E-01  0.2302001E+00
  0.1390850E+02  0.9293360E+01 -0.2568960E-01  0.2331712E+00 -0.1341182E+01 -0.5307015E-01  0.2270514E+00
  0.1293060E+02  0.1061190E+02 -0.2568960E-01  0.2294075E+00 -0.1348702E+01 -0.5053227E-01  0.2237729E+00
  0.1182820E+02  0.1182820E+02 -0.2568960E-01  0.2213039E+00 -0.1359069E+01 -0.4650684E-01  0.2163620E+00
  0.1061190E+02  0.1293060E+02 -0.2568960E-01  0.2127457E+00 -0.1371263E+01 -0.4216877E-01  0.2085246E+00
  0.9293360E+01  0.1390850E+02 -0.2568960E-01  0.2024747E+00 -0.1386117E+01 -0.3718076E-01  0.1990317E+00
  0.7885330E+01  0.1475240E+02 -0.2568960E-01  0.1869504E+00 -0.1406290E+01 -0.3061604E-01  0.1844264E+00
  0.6401380E+01  0.1545430E+02 -0.2568960E-01  0.1683421E+00 -0.1432386E+01 -0.2322589E-01  0.1667322E+00
  0.4855770E+01  0.1600730E+02 -0.2568960E-01  0.1401266E+00 -0.1477689E+01 -0.1302797E-01  0.1395197E+00
  0.3263390E+01  0.1640620E+02 -0.2568960E-01  0.9329174E-01 -0.1601367E+01  0.2851587E-02  0.9324814E-01
  0.1639590E+01  0.1664710E+02 -0.2568960E-01  0.3714490E-01 -0.2305902E+01  0.2491181E-01  0.2755258E-01
 -0.7311870E-06  0.1672760E+02 -0.2568960E-01  0.5517187E-01  0.2533360E+01  0.4527731E-01 -0.3152619E-01
 -0.1639590E+01  0.1664710E+02 -0.2568960E-01  0.1004988E+00  0.2232806E+01  0.6177698E-01 -0.7926925E-01
 -0.3263390E+01  0.1640620E+02 -0.2568960E-01  0.1381163E+00  0.2135684E+01  0.7393662E-01 -0.1166598E+00
 -0.4855770E+01  0.1600730E+02 -0.2568960E-01  0.1600278E+00  0.2097423E+01  0.8043317E-01 -0.1383452E+00
 -0.6401380E+01  0.1545430E+02 -0.2568960E-01  0.1712202E+00  0.2081388E+01  0.8367427E-01 -0.1493819E+00
 -0.7885340E+01  0.1475240E+02 -0.2568960E-01  0.1770075E+00  0.2074200E+01  0.8539017E-01 -0.1550490E+00
 -0.9293360E+01  0.1390850E+02 -0.2568960E-01  0.1825504E+00  0.2068573E+01  0.8716293E-01 -0.1603972E+00
 -0.1061190E+02  0.1293060E+02 -0.2568960E-01  0.1848289E+00  0.2066899E+01  0.8797888E-01 -0.1625467E+00
 -0.1182820E+02  0.1182820E+02 -0.2568960E-01  0.1861916E+00  0.2066213E+01  0.8851525E-01 -0.1638059E+00
 -0.1293060E+02  0.1061190E+02 -0.2568960E-01  0.1872604E+00  0.2065754E+01  0.8894770E-01 -0.1647870E+00
 -0.1390850E+02  0.9293360E+01 -0.2568960E-01  0.1851762E+00  0.2068115E+01  0.8834223E-01 -0.1627448E+00
 -0.1475240E+02  0.7885330E+01 -0.2568960E-01  0.1836761E+00  0.2068001E+01  0.8760801E-01 -0.1614365E+00
 -0.1545430E+02  0.6401370E+01 -0.2568960E-01  0.1831424E+00  0.2064523E+01  0.8679311E-01 -0.1612703E+00
 -0.1600730E+02  0.4855770E+01 -0.2568960E-01  0.1826276E+00  0.2059358E+01  0.8571745E-01 -0.1612618E+00
 -0.1640620E+02  0.3263390E+01 -0.2568960E-01  0.1820189E+00  0.2052818E+01  0.8437873E-01 -0.1612796E+00
 -0.1664710E+02  0.1639590E+01 -0.2568960E-01  0.1806508E+00  0.2045946E+01  0.8264261E-01 -0.1606390E+00
 -0.1672760E+02 -0.1462370E-05 -0.2568960E-01  0.1783937E+00  0.2038998E+01  0.8050585E-01 -0.1591952E+00
 -0.1664710E+02 -0.1639590E+01 -0.2568960E-01  0.1751265E+00  0.2032388E+01  0.7799670E-01 -0.1567986E+00
 -0.1640620E+02 -0.3263400E+01 -0.2568960E-01  0.1709277E+00  0.2026153E+01  0.7517105E-01 -0.1535109E+00
 -0.1600730E+02 -0.4855770E+01 -0.2568960E-01  0.1658022E+00  0.2020546E+01  0.7208090E-01 -0.1493141E+00
 -0.1545430E+02 -0.6401380E+01 -0.2568960E-01  0.1605812E+00  0.2012473E+01  0.6864139E-01 -0.1451713E+00
 -0.1475240E+02 -0.7885340E+01 -0.2568960E-01  0.1554376E+00  0.2000940E+01  0.6481769E-01 -0.1412781E+00
 -0.1390850E+02 -0.9293360E+01 -0.2568960E-01  0.1509162E+00  0.1984340E+01  0.6064666E-01 -0.1381944E+00
 -0.1293060E+02 -0.1061190E+02 -0.2568960E-01  0.1462089E+00  0.1965285E+01  0.5619337E-01 -0.1349790E+00
 -0.1182820E+02 -0.1182820E+02 -0.2568960E-01  0.1377595E+00  0.1956302E+01  0.5180136E-01 -0.1276491E+00
 -0.1061190E+02 -0.1293060E+02 -0.2568960E-01  0.1288246E+00  0.1945256E+01  0.4712015E-01 -0.1198977E+00
 -0.9293350E+01 -0.1390850E+02 -0.2568960E-01  0.1183342E+00  0.1936561E+01  0.4232379E-01 -0.1105065E+00
 -0.7885340E+01 -0.1475240E+02 -0.2568960E-01  0.1031818E+00  0.1945315E+01  0.3774647E-01 -0.9602959E-01
 -0.6401370E+01 -0.1545430E+02 -0.2568960E-01  0.8525871E-01  0.1971562E+01  0.3326140E-01 -0.7850304E-01
 -0.4855760E+01 -0.1600730E+02 -0.2568960E-01  0.5941572E-01  0.2092270E+01  0.2959847E-01 -0.5151852E-01
 -0.3263390E+01 -0.1640620E+02 -0.2568960E-01  0.2849487E-01  0.2944445E+01  0.2794290E-01 -0.5581369E-02
 -0.1639590E+01 -0.1664710E+02 -0.2568960E-01  0.6613720E-01 -0.2013470E+01  0.2833033E-01  0.5976221E-01
  0.1994750E-06 -0.1672760E+02 -0.2568960E-01  0.1217668E+00 -0.1793797E+01  0.2692963E-01  0.1187516E+00
  0.1639600E+01 -0.1664710E+02 -0.2568960E-01  0.1682106E+00 -0.1703242E+01  0.2221362E-01  0.1667374E+00
  0.3263390E+01 -0.1640620E+02 -0.2568960E-01  0.2051110E+00 -0.1639842E+01  0.1415084E-01  0.2046223E+00
  0.4855770E+01 -0.1600730E+02 -0.2568960E-01  0.2268022E+00 -0.1591663E+01  0.4732222E-02  0.2267528E+00
  0.6401380E+01 -0.1545430E+02 -0.2568960E-01  0.2381393E+00 -0.1552849E+01 -0.4273627E-02  0.2381010E+00
  0.7885340E+01 -0.1475240E+02 -0.2568960E-01  0.2443291E+00 -0.1518835E+01 -0.1269001E-01  0.2439993E+00
  0.9293360E+01 -0.1390850E+02 -0.2568960E-01  0.2503276E+00 -0.1490224E+01 -0.2014777E-01  0.2495155E+00
  0.1061190E+02 -0.1293060E+02 -0.2568960E-01  0.2532306E+00 -0.1463881E+01 -0.2702266E-01  0.2517847E+00
  0.1182820E+02 -0.1182820E+02 -0.2568960E-01  0.2553004E+00 -0.1440305E+01 -0.3322015E-01  0.2531299E+00
  0.1293060E+02 -0.1061190E+02 -0.2568960E-01  0.2571019E+00 -0.1419614E+01 -0.3872129E-01  0.2541693E+00
  0.1390850E+02 -0.9293360E+01 -0.2568960E-01  0.2559091E+00 -0.1399234E+01 -0.4368920E-01  0.2521522E+00
  0.1475240E+02 -0.7885330E+01 -0.2568960E-01  0.2553860E+00 -0.1381910E+01 -0.4795248E-01  0.2508437E+00
  0.1545430E+02 -0.6401380E+01 -0.2568960E-01  0.2559192E+00 -0.1367852E+01 -0.5158146E-01  0.2506671E+00
  0.1600730E+02 -0.4855760E+01 -0.2568960E-01  0.2565250E+00 -0.1356296E+01 -0.5460383E-01  0.2506462E+00
  0.1640620E+02 -0.3263390E+01 -0.2568960E-01  0.2570402E+00 -0.1347227E+01 -0.5698887E-01  0.2506430E+00
  0.1664710E+02 -0.1639590E+01 -0.2568960E-01  0.2567711E+00 -0.1340078E+01 -0.5871766E-01  0.2499672E+00
  0.1672760E+02  0.0000000E+00 -0.1027320E+00  0.2548881E+00 -0.1334712E+01 -0.5961760E-01  0.2478178E+00
  0.1664710E+02  0.1639590E+01 -0.1027320E+00  0.2526007E+00 -0.1331043E+01 -0.5998331E-01  0.2453754E+00
  0.1640620E+02  0.3263390E+01 -0.1027320E+00  0.2492787E+00 -0.1329235E+01 -0.5963216E-01  0.2420410E+00
  0.1600730E+02  0.4855770E+01 -0.1027320E+00  0.2448961E+00 -0.1329392E+01 -0.5854635E-01  0.2377949E+00
  0.1545430E+02  0.6401380E+01 -0.1027320E+00  0.2404449E+00 -0.1331482E+01 -0.5699413E-01  0.2335925E+00
  0.1475240E+02  0.7885340E+01 -0.1027320E+00  0.2361444E+00 -0.1335402E+01 -0.5507521E-01  0.2296321E+00
  0.1390850E+02  0.9293360E+01 -0.1027320E+00  0.2325636E+00 -0.1341204E+01 -0.5292700E-01  0.2264610E+00
  0.1293060E+02  0.1061190E+02 -0.1027320E+00  0.2287699E+00 -0.1348745E+01 -0.5038216E-01  0.2231531E+00
  0.1182820E+02  0.1182820E+02 -0.1027320E+00  0.2207298E+00 -0.1359092E+01 -0.4638108E-01  0.2158019E+00
  0.1061190E+02  0.1293060E+02 -0.1027320E+00  0.2121904E+00 -0.1371291E+01 -0.4205288E-01  0.2079816E+00
  0.9293360E+01  0.1390850E+02 -0.1027320E+00  0.2019204E+00 -0.1386158E+01 -0.3707084E-01  0.1984883E+00
  0.7885330E+01  0.1475240E+02 -0.1027320E+00  0.1864901E+00 -0.1406301E+01 -0.3053862E-01  0.1839726E+00
  0.6401380E+01  0.1545430E+02 -0.1027320E+00  0.1679048E+00 -0.1432422E+01 -0.2315967E-01  0.1662999E+00
  0.4855770E+01  0.1600730E+02 -0.1027320E+00  0.1397420E+00 -0.1477760E+01 -0.1298240E-01  0.1391377E+00
  0.3263390E+01  0.1640620E+02 -0.1027320E+00  0.9308105E-01 -0.1601322E+01  0.2840930E-02  0.9303769E-01
  0.1639590E+01  0.1664710E+02 -0.1027320E+00  0.3706934E-01 -0.2305282E+01  0.2484408E-01  0.2751195E-01
 -0.7311870E-06  0.1672760E+02 -0.1027320E+00  0.5504157E-01  0.2533332E+01  0.4516948E-01 -0.3145301E-01
 -0.1639590E+01  0.1664710E+02 -0.1027320E+00  0.1002881E+00  0.2232689E+01  0.6163817E-01 -0.7911027E-01
 -0.3263390E+01  0.1640620E+02 -0.1027320E+00  0.1377944E+00  0.2135651E+01  0.7376041E-01 -0.1163903E+00
 -0.4855770E+01  0.1600730E+02 -0.1027320E+00  0.1596068E+00  0.2097453E+01  0.8022570E-01 -0.1379788E+00
 -0.6401380E+01  0.1545430E+02 -0.1027320E+00  0.1707766E+00  0.2081394E+01  0.8345839E-01 -0.1489945E+00
 -0.7885340E+01  0.1475240E+02 -0.1027320E+00  0.1765825E+00  0.2074165E+01  0.8517977E-01 -0.1546796E+00
 -0.9293360E+01  0.1390850E+02 -0.1027320E+00  0.1820614E+00  0.2068587E+01  0.8693165E-01 -0.1599664E+00
 -0.1061190E+02  0.1293060E+02 -0.1027320E+00  0.1843499E+00  0.2066897E+01  0.8775052E-01 -0.1621257E+00
 -0.1182820E+02  0.1182820E+02 -0.1027320E+00  0.1857076E+00  0.2066198E+01  0.8828259E-01 -0.1633815E+00
 -0.1293060E+02  0.1061190E+02 -0.1027320E+00  0.1867472E+00  0.2065761E+01  0.8870502E-01 -0.1643348E+00
 -0.1390850E+02  0.9293360E+01 -0.1027320E+00  0.1847075E+00  0.2068062E+01  0.8810996E-01 -0.1623376E+00
 -0.1475240E+02  0.7885330E+01 -0.1027320E+00  0.1832359E+00  0.2067915E+01  0.8738429E-01 -0.1610571E+00
 -0.1545430E+02  0.6401370E+01 -0.1027320E+00  0.1827026E+00  0.2064440E+01  0.8657139E-01 -0.1608902E+00
 -0.1600730E+02  0.4855770E+01 -0.1027320E+00  0.1821801E+00  0.2059297E+01  0.8549751E-01 -0.1608719E+00
 -0.1640620E+02  0.3263390E+01 -0.1027320E+00  0.1815570E+00  0.2052782E+01  0.8415881E-01 -0.1608734E+00
 -0.1664710E+02  0.1639590E+01 -0.1027320E+00  0.1801801E+00  0.2045925E+01  0.8242386E-01 -0.1602222E+00
 -0.1672760E+02 -0.1462370E-05 -0.1027320E+00  0.1779248E+00  0.2038985E+01  0.8029223E-01 -0.1587778E+00
 -0.1664710E+02 -0.1639590E+01 -0.1027320E+00  0.1746700E+00  0.2032353E+01  0.7778794E-01 -0.1563926E+00
 -0.1640620E+02 -0.3263400E+01 -0.1027320E+00  0.1704939E+00  0.2026080E+01  0.7496908E-01 -0.1531267E+00
 -0.1600730E+02 -0.4855770E+01 -0.1027320E+00  0.1654002E+00  0.2020414E+01  0.7188640E-01 -0.1489616E+00
 -0.1545430E+02 -0.6401380E+01 -0.1027320E+00  0.1602026E+00  0.2012314E+01  0.6845647E-01 -0.1448398E+00
 -0.1475240E+02 -0.7885340E+01 -0.1027320E+00  0.1550684E+00  0.2000793E+01  0.6464294E-01 -0.1409521E+00
 -0.1390850E+02 -0.9293360E+01 -0.1027320E+00  0.1505316E+00  0.1984295E+01  0.6048590E-01 -0.1378449E+00
 -0.1293060E+02 -0.1061190E+02 -0.1027320E+00  0.1458031E+00  0.1965361E+01  0.5604766E-01 -0.1346002E+00
 -0.1182820E+02 -0.1182820E+02 -0.1027320E+00  0.1374118E+00  0.1956240E+01  0.5166277E-01 -0.1273302E+00
 -0.1061190E+02 -0.1293060E+02 -0.1027320E+00  0.1284982E+00  0.1945215E+01  0.4699589E-01 -0.1195959E+00
 -0.9293350E+01 -0.1390850E+02 -0.1027320E+00  0.1180141E+00  0.1936639E+01  0.4221797E-01 -0.1102042E+00
 -0.7885340E+01 -0.1475240E+02 -0.1027320E+00  0.1029477E+00  0.1945177E+01  0.3764759E-01 -0.9581690E-01
 -0.6401370E+01 -0.1545430E+02 -0.1027320E+00  0.8505029E-01  0.1971539E+01  0.3317834E-01 -0.7831188E-01
 -0.4855760E+01 -0.1600730E+02 -0.1027320E+00  0.5925843E-01  0.2092458E+01  0.2952977E-01 -0.5137659E-01
 -0.3263390E+01 -0.1640620E+02 -0.1027320E+00  0.2843299E-01  0.2942976E+01  0.2787402E-01 -0.5610195E-02
 -0.1639590E+01 -0.1664710E+02 -0.1027320E+00  0.6592972E-01 -0.2013828E+01  0.2826277E-01  0.5956462E-01
  0.1994750E-06 -0.1672760E+02 -0.1027320E+00  0.1214506E+00 -0.1793903E+01  0.2687220E-01  0.1184404E+00
  0.1639600E+01 -0.1664710E+02 -0.1027320E+00  0.1678108E+00 -0.1703318E+01  0.2217359E-01  0.1663394E+00
  0.3263390E+01 -0.1640620E+02 -0.1027320E+00  0.2046009E+00 -0.1639907E+01  0.1412889E-01  0.2041125E+00
  0.4855770E+01 -0.1600730E+02 -0.1027320E+00  0.2261954E+00 -0.1591715E+01  0.4731435E-02  0.2261459E+00
  0.6401380E+01 -0.1545430E+02 -0.1027320E+00  0.2375103E+00 -0.1552887E+01 -0.4253488E-02  0.2374722E+00
  0.7885340E+01 -0.1475240E+02 -0.1027320E+00  0.2437164E+00 -0.1518897E+01 -0.1264296E-01  0.2433883E+00
  0.9293360E+01 -0.1390850E+02 -0.1027320E+00  0.2496516E+00 -0.1490258E+01 -0.2008492E-01  0.2488424E+00
  0.1061190E+02 -0.1293060E+02 -0.1027320E+00  0.2525624E+00 -0.1463921E+01 -0.2694134E-01  0.2511214E+00
  0.1182820E+02 -0.1182820E+02 -0.1027320E+00  0.2546258E+00 -0.1440342E+01 -0.3312300E-01  0.2524622E+00
  0.1293060E+02 -0.1061190E+02 -0.1027320E+00  0.2563978E+00 -0.1419630E+01 -0.3861124E-01  0.2534739E+00
  0.1390850E+02 -0.9293360E+01 -0.1027320E+00  0.2552470E+00 -0.1399275E+01 -0.4356599E-01  0.2515016E+00
