 VARIABLES="X" "Y" "Z" "abs(eta) (m)" "angle(phi) (rad)" "PRE1" "PRE2"
ZONE N=   3200 ,E =    3136 ,F=FEPOINT,ET=QUADRILATERAL
  0.1530690E+02  0.0000000E+00  0.0000000E+00  0.3010978E+00 -0.1358406E+01 -0.6347052E-01  0.2943321E+00
  0.1523320E+02  0.1500340E+01  0.0000000E+00  0.2992220E+00 -0.1355301E+01 -0.6398289E-01  0.2923012E+00
  0.1501280E+02  0.2986230E+01  0.0000000E+00  0.2965836E+00 -0.1353901E+01 -0.6382439E-01  0.2896347E+00
  0.1464780E+02  0.4443360E+01  0.0000000E+00  0.2934506E+00 -0.1354179E+01 -0.6307048E-01  0.2865927E+00
  0.1414170E+02  0.5857700E+01  0.0000000E+00  0.2914919E+00 -0.1356186E+01 -0.6207805E-01  0.2848049E+00
  0.1349950E+02  0.7215620E+01  0.0000000E+00  0.2908420E+00 -0.1359717E+01 -0.6093573E-01  0.2843869E+00
  0.1272720E+02  0.8504060E+01  0.0000000E+00  0.2887446E+00 -0.1364514E+01 -0.5914146E-01  0.2826230E+00
  0.1183240E+02  0.9710600E+01  0.0000000E+00  0.2829309E+00 -0.1371032E+01 -0.5614429E-01  0.2773043E+00
  0.1082360E+02  0.1082360E+02  0.0000000E+00  0.2767322E+00 -0.1379168E+01 -0.5270568E-01  0.2716667E+00
  0.9710590E+01  0.1183240E+02  0.0000000E+00  0.2709371E+00 -0.1388703E+01 -0.4906375E-01  0.2664576E+00
  0.8504060E+01  0.1272720E+02  0.0000000E+00  0.2608149E+00 -0.1400441E+01 -0.4421664E-01  0.2570395E+00
  0.7215620E+01  0.1349950E+02  0.0000000E+00  0.2507932E+00 -0.1412930E+01 -0.3942744E-01  0.2476746E+00
  0.5857700E+01  0.1414170E+02  0.0000000E+00  0.2366962E+00 -0.1428271E+01 -0.3362118E-01  0.2342962E+00
  0.4443360E+01  0.1464780E+02  0.0000000E+00  0.2148383E+00 -0.1448955E+01 -0.2611142E-01  0.2132456E+00
  0.2986230E+01  0.1501280E+02  0.0000000E+00  0.1741302E+00 -0.1486997E+01 -0.1457490E-01  0.1735192E+00
  0.1500340E+01  0.1523320E+02  0.0000000E+00  0.4344979E-01 -0.2105014E+01  0.2212323E-01  0.3739582E-01
 -0.6690860E-06  0.1530690E+02  0.0000000E+00  0.6066531E-01  0.2430820E+01  0.4597569E-01 -0.3957923E-01
 -0.1500340E+01  0.1523320E+02  0.0000000E+00  0.1229308E+00  0.2146172E+01  0.6689281E-01 -0.1031374E+00
 -0.2986230E+01  0.1501280E+02  0.0000000E+00  0.1999676E+00  0.2038872E+01  0.9021941E-01 -0.1784587E+00
 -0.4443360E+01  0.1464780E+02  0.0000000E+00  0.2149668E+00  0.2022238E+01  0.9378210E-01 -0.1934312E+00
 -0.5857700E+01  0.1414170E+02  0.0000000E+00  0.2231371E+00  0.2014904E+01  0.9587142E-01 -0.2014915E+00
 -0.7215620E+01  0.1349950E+02  0.0000000E+00  0.2269016E+00  0.2013200E+01  0.9713958E-01 -0.2050567E+00
 -0.8504060E+01  0.1272720E+02  0.0000000E+00  0.2291444E+00  0.2012998E+01  0.9805784E-01 -0.2071034E+00
 -0.9710590E+01  0.1183240E+02  0.0000000E+00  0.2324443E+00  0.2012396E+01  0.9934349E-01 -0.2101457E+00
 -0.1082360E+02  0.1082360E+02  0.0000000E+00  0.2326737E+00  0.2014112E+01  0.9980237E-01 -0.2101822E+00
 -0.1183240E+02  0.9710590E+01  0.0000000E+00  0.2333650E+00  0.2015007E+01  0.1002874E+00 -0.2107170E+00
 -0.1272720E+02  0.8504060E+01  0.0000000E+00  0.2341513E+00  0.2014793E+01  0.1005803E+00 -0.2114485E+00
 -0.1349950E+02  0.7215620E+01  0.0000000E+00  0.2321362E+00  0.2015818E+01  0.9992939E-01 -0.2095265E+00
 -0.1414170E+02  0.5857690E+01  0.0000000E+00  0.2290902E+00  0.2016734E+01  0.9880744E-01 -0.2066867E+00
 -0.1464780E+02  0.4443360E+01  0.0000000E+00  0.2272726E+00  0.2015124E+01  0.9769336E-01 -0.2052044E+00
 -0.1501280E+02  0.2986230E+01  0.0000000E+00  0.2262974E+00  0.2011395E+01  0.9651165E-01 -0.2046852E+00
 -0.1523320E+02  0.1500340E+01  0.0000000E+00  0.2249324E+00  0.2006842E+01  0.9500220E-01 -0.2038852E+00
 -0.1530690E+02 -0.1338170E-05  0.0000000E+00  0.2229253E+00  0.2001640E+01  0.9310187E-01 -0.2025530E+00
 -0.1523320E+02 -0.1500340E+01  0.0000000E+00  0.2201770E+00  0.1995918E+01  0.9080789E-01 -0.2005787E+00
 -0.1501280E+02 -0.2986230E+01  0.0000000E+00  0.2167155E+00  0.1989661E+01  0.8814331E-01 -0.1979807E+00
 -0.1464780E+02 -0.4443360E+01  0.0000000E+00  0.2127760E+00  0.1982257E+01  0.8509946E-01 -0.1950172E+00
 -0.1414170E+02 -0.5857700E+01  0.0000000E+00  0.2098282E+00  0.1970343E+01  0.8162337E-01 -0.1933016E+00
 -0.1349950E+02 -0.7215620E+01  0.0000000E+00  0.2080099E+00  0.1953663E+01  0.7770853E-01 -0.1929494E+00
 -0.1272720E+02 -0.8504060E+01  0.0000000E+00  0.2048452E+00  0.1937097E+01  0.7336825E-01 -0.1912555E+00
 -0.1183240E+02 -0.9710600E+01  0.0000000E+00  0.1983366E+00  0.1925028E+01  0.6879695E-01 -0.1860225E+00
 -0.1082360E+02 -0.1082360E+02  0.0000000E+00  0.1914857E+00  0.1911438E+01  0.6397384E-01 -0.1804830E+00
 -0.9710600E+01 -0.1183240E+02  0.0000000E+00  0.1849909E+00  0.1894534E+01  0.5884783E-01 -0.1753812E+00
 -0.8504050E+01 -0.1272720E+02  0.0000000E+00  0.1745192E+00  0.1882786E+01  0.5356922E-01 -0.1660943E+00
 -0.7215620E+01 -0.1349950E+02  0.0000000E+00  0.1640294E+00  0.1867134E+01  0.4789976E-01 -0.1568798E+00
 -0.5857690E+01 -0.1414170E+02  0.0000000E+00  0.1497717E+00  0.1856463E+01  0.4220522E-01 -0.1437021E+00
 -0.4443360E+01 -0.1464780E+02  0.0000000E+00  0.1282304E+00  0.1859632E+01  0.3652472E-01 -0.1229186E+00
 -0.2986230E+01 -0.1501280E+02  0.0000000E+00  0.8942968E-01  0.1931758E+01  0.3158425E-01 -0.8366662E-01
 -0.1500340E+01 -0.1523320E+02  0.0000000E+00  0.6125297E-01 -0.2143301E+01  0.3318314E-01  0.5148598E-01
  0.1825330E-06 -0.1530690E+02  0.0000000E+00  0.1319578E+00 -0.1806740E+01  0.3084651E-01  0.1283018E+00
  0.1500340E+01 -0.1523320E+02  0.0000000E+00  0.1939306E+00 -0.1706055E+01  0.2615080E-01  0.1921593E+00
  0.2986230E+01 -0.1501280E+02  0.0000000E+00  0.2691375E+00 -0.1633353E+01  0.1682526E-01  0.2686111E+00
  0.4443360E+01 -0.1464780E+02  0.0000000E+00  0.2841838E+00 -0.1589642E+01  0.5355373E-02  0.2841334E+00
  0.5857700E+01 -0.1414170E+02  0.0000000E+00  0.2925528E+00 -0.1555462E+01 -0.4485961E-02  0.2925184E+00
  0.7215620E+01 -0.1349950E+02  0.0000000E+00  0.2966268E+00 -0.1525768E+01 -0.1335220E-01  0.2963261E+00
  0.8504060E+01 -0.1272720E+02  0.0000000E+00  0.2993186E+00 -0.1499201E+01 -0.2141165E-01  0.2985518E+00
  0.9710600E+01 -0.1183240E+02  0.0000000E+00  0.3030846E+00 -0.1476248E+01 -0.2861335E-01  0.3017310E+00
  0.1082360E+02 -0.1082360E+02  0.0000000E+00  0.3039058E+00 -0.1454848E+01 -0.3515856E-01  0.3018653E+00
  0.1183240E+02 -0.9710590E+01  0.0000000E+00  0.3052447E+00 -0.1436034E+01 -0.4101120E-01  0.3024771E+00
  0.1272720E+02 -0.8504060E+01  0.0000000E+00  0.3067671E+00 -0.1419593E+01 -0.4620755E-01  0.3032671E+00
  0.1349950E+02 -0.7215620E+01  0.0000000E+00  0.3056332E+00 -0.1403824E+01 -0.5079561E-01  0.3013825E+00
  0.1414170E+02 -0.5857700E+01  0.0000000E+00  0.3035237E+00 -0.1389671E+01 -0.5467582E-01  0.2985585E+00
  0.1464780E+02 -0.4443350E+01  0.0000000E+00  0.3026606E+00 -0.1378370E+01 -0.5788108E-01  0.2970744E+00
  0.1501280E+02 -0.2986230E+01  0.0000000E+00  0.3026325E+00 -0.1369782E+01 -0.6042458E-01  0.2965389E+00
  0.1523320E+02 -0.1500330E+01  0.0000000E+00  0.3021968E+00 -0.1363210E+01 -0.6228229E-01  0.2957090E+00
  0.1530690E+02  0.0000000E+00 -0.2568960E-01  0.3008412E+00 -0.1358418E+01 -0.6341300E-01  0.2940820E+00
  0.1523320E+02  0.1500340E+01 -0.2568960E-01  0.2989674E+00 -0.1355310E+01 -0.6392606E-01  0.2920530E+00
  0.1501280E+02  0.2986230E+01 -0.2568960E-01  0.2963343E+00 -0.1353912E+01 -0.6376768E-01  0.2893920E+00
  0.1464780E+02  0.4443360E+01 -0.2568960E-01  0.2932070E+00 -0.1354187E+01 -0.6301583E-01  0.2863553E+00
  0.1414170E+02  0.5857700E+01 -0.2568960E-01  0.2912430E+00 -0.1356192E+01 -0.6202335E-01  0.2845621E+00
  0.1349950E+02  0.7215620E+01 -0.2568960E-01  0.2905755E+00 -0.1359725E+01 -0.6087786E-01  0.2841268E+00
  0.1272720E+02  0.8504060E+01 -0.2568960E-01  0.2884715E+00 -0.1364520E+01 -0.5908379E-01  0.2823560E+00
  0.1183240E+02  0.9710600E+01 -0.2568960E-01  0.2826790E+00 -0.1371039E+01 -0.5609245E-01  0.2770579E+00
  0.1082360E+02  0.1082360E+02 -0.2568960E-01  0.2764925E+00 -0.1379177E+01 -0.5265771E-01  0.2714319E+00
  0.9710590E+01  0.1183240E+02 -0.2568960E-01  0.2706902E+00 -0.1388719E+01 -0.4901468E-01  0.2662156E+00
  0.8504060E+01  0.1272720E+02 -0.2568960E-01  0.2606009E+00 -0.1400447E+01 -0.4417866E-01  0.2568288E+00
  0.7215620E+01  0.1349950E+02 -0.2568960E-01  0.2505839E+00 -0.1412933E+01 -0.3939404E-01  0.2474679E+00
  0.5857700E+01  0.1414170E+02 -0.2568960E-01  0.2364926E+00 -0.1428276E+01 -0.3359094E-01  0.2340948E+00
  0.4443360E+01  0.1464780E+02 -0.2568960E-01  0.2146700E+00 -0.1448954E+01 -0.2609132E-01  0.2130785E+00
  0.2986230E+01  0.1501280E+02 -0.2568960E-01  0.1739903E+00 -0.1486999E+01 -0.1456288E-01  0.1733797E+00
  0.1500340E+01  0.1523320E+02 -0.2568960E-01  0.4339527E-01 -0.2105419E+01  0.2211060E-01  0.3733994E-01
 -0.6690860E-06  0.1530690E+02 -0.2568960E-01  0.6062456E-01  0.2430738E+01  0.4594158E-01 -0.3955639E-01
 -0.1500340E+01  0.1523320E+02 -0.2568960E-01  0.1228609E+00  0.2146087E+01  0.6684598E-01 -0.1030845E+00
 -0.2986230E+01  0.1501280E+02 -0.2568960E-01  0.1998218E+00  0.2038862E+01  0.9015181E-01 -0.1783295E+00
 -0.4443360E+01  0.1464780E+02 -0.2568960E-01  0.2148050E+00  0.2022227E+01  0.9370938E-01 -0.1932866E+00
 -0.5857700E+01  0.1414170E+02 -0.2568960E-01  0.2229473E+00  0.2014914E+01  0.9579184E-01 -0.2013192E+00
 -0.7215620E+01  0.1349950E+02 -0.2568960E-01  0.2267153E+00  0.2013198E+01  0.9705939E-01 -0.2048886E+00
 -0.8504060E+01  0.1272720E+02 -0.2568960E-01  0.2289586E+00  0.2012989E+01  0.9797655E-01 -0.2069363E+00
 -0.9710590E+01  0.1183240E+02 -0.2568960E-01  0.2322356E+00  0.2012408E+01  0.9925684E-01 -0.2099558E+00
 -0.1082360E+02  0.1082360E+02 -0.2568960E-01  0.2324730E+00  0.2014113E+01  0.9971651E-01 -0.2100008E+00
 -0.1183240E+02  0.9710590E+01 -0.2568960E-01  0.2331589E+00  0.2015007E+01  0.1001990E+00 -0.2105309E+00
 -0.1272720E+02  0.8504060E+01 -0.2568960E-01  0.2339310E+00  0.2014799E+01  0.1004869E+00 -0.2112489E+00
 -0.1349950E+02  0.7215620E+01 -0.2568960E-01  0.2319250E+00  0.2015822E+01  0.9983934E-01 -0.2093354E+00
 -0.1414170E+02  0.5857690E+01 -0.2568960E-01  0.2288972E+00  0.2016727E+01  0.9872284E-01 -0.2065133E+00
 -0.1464780E+02  0.4443360E+01 -0.2568960E-01  0.2270872E+00  0.2015109E+01  0.9761060E-01 -0.2050384E+00
 -0.1501280E+02  0.2986230E+01 -0.2568960E-01  0.2261106E+00  0.2011382E+01  0.9642915E-01 -0.2045176E+00
 -0.1523320E+02  0.1500340E+01 -0.2568960E-01  0.2247455E+00  0.2006827E+01  0.9492009E-01 -0.2037173E+00
 -0.1530690E+02 -0.1338170E-05 -0.2568960E-01  0.2227390E+00  0.2001614E+01  0.9301896E-01 -0.2023861E+00
 -0.1523320E+02 -0.1500340E+01 -0.2568960E-01  0.2199940E+00  0.1995894E+01  0.9072771E-01 -0.2004142E+00
 -0.1501280E+02 -0.2986230E+01 -0.2568960E-01  0.2165380E+00  0.1989626E+01  0.8806415E-01 -0.1978217E+00
 -0.1464780E+02 -0.4443360E+01 -0.2568960E-01  0.2126042E+00  0.1982221E+01  0.8502382E-01 -0.1948628E+00
 -0.1414170E+02 -0.5857700E+01 -0.2568960E-01  0.2096527E+00  0.1970322E+01  0.8155099E-01 -0.1931416E+00
 -0.1349950E+02 -0.7215620E+01 -0.2568960E-01  0.2078196E+00  0.1953667E+01  0.7763822E-01 -0.1927726E+00
 -0.1272720E+02 -0.8504060E+01 -0.2568960E-01  0.2046501E+00  0.1937123E+01  0.7330324E-01 -0.1910714E+00
 -0.1183240E+02 -0.9710600E+01 -0.2568960E-01  0.1981622E+00  0.1925028E+01  0.6873643E-01 -0.1858590E+00
 -0.1082360E+02 -0.1082360E+02 -0.2568960E-01  0.1913236E+00  0.1911426E+01  0.6391752E-01 -0.1803310E+00
 -0.9710600E+01 -0.1183240E+02 -0.2568960E-01  0.1848237E+00  0.1894548E+01  0.5879708E-01 -0.1752218E+00
 -0.8504050E+01 -0.1272720E+02 -0.2568960E-01  0.1743836E+00  0.1882758E+01  0.5352287E-01 -0.1659666E+00
 -0.7215620E+01 -0.1349950E+02 -0.2568960E-01  0.1638986E+00  0.1867115E+01  0.4785866E-01 -0.1567556E+00
 -0.5857690E+01 -0.1414170E+02 -0.2568960E-01  0.1496476E+00  0.1856462E+01  0.4217022E-01 -0.1435830E+00
 -0.4443360E+01 -0.1464780E+02 -0.2568960E-01  0.1281399E+00  0.1859590E+01  0.3649374E-01 -0.1228333E+00
 -0.2986230E+01 -0.1501280E+02 -0.2568960E-01  0.8936708E-01  0.1931731E+01  0.3155987E-01 -0.8360890E-01
 -0.1500340E+01 -0.1523320E+02 -0.2568960E-01  0.6121836E-01 -0.2143242E+01  0.3316135E-01  0.5145885E-01
  0.1825330E-06 -0.1530690E+02 -0.2568960E-01  0.1318521E+00 -0.1806769E+01  0.3082557E-01  0.1281982E+00
  0.1500340E+01 -0.1523320E+02 -0.2568960E-01  0.1937948E+00 -0.1706091E+01  0.2613945E-01  0.1920239E+00
  0.2986230E+01 -0.1501280E+02 -0.2568960E-01  0.2689266E+00 -0.1633378E+01  0.1681890E-01  0.2684002E+00
  0.4443360E+01 -0.1464780E+02 -0.2568960E-01  0.2839572E+00 -0.1589666E+01  0.5357882E-02  0.2839066E+00
  0.5857700E+01 -0.1414170E+02 -0.2568960E-01  0.2922978E+00 -0.1555482E+01 -0.4476223E-02  0.2922635E+00
  0.7215620E+01 -0.1349950E+02 -0.2568960E-01  0.2963766E+00 -0.1525784E+01 -0.1333620E-01  0.2960764E+00
  0.8504060E+01 -0.1272720E+02 -0.2568960E-01  0.2990671E+00 -0.1499215E+01 -0.2138937E-01  0.2983012E+00
  0.9710600E+01 -0.1183240E+02 -0.2568960E-01  0.3028106E+00 -0.1476253E+01 -0.2858619E-01  0.3014582E+00
  0.1082360E+02 -0.1082360E+02 -0.2568960E-01  0.3036393E+00 -0.1454863E+01 -0.3512317E-01  0.3016010E+00
  0.1183240E+02 -0.9710590E+01 -0.2568960E-01  0.3049715E+00 -0.1436044E+01 -0.4097143E-01  0.3022068E+00
  0.1272720E+02 -0.8504060E+01 -0.2568960E-01  0.3064808E+00 -0.1419594E+01 -0.4616437E-01  0.3029840E+00
  0.1349950E+02 -0.7215620E+01 -0.2568960E-01  0.3053542E+00 -0.1403831E+01 -0.5074703E-01  0.3011079E+00
  0.1414170E+02 -0.5857700E+01 -0.2568960E-01  0.3032618E+00 -0.1389692E+01 -0.5462240E-01  0.2983020E+00
  0.1464780E+02 -0.4443350E+01 -0.2568960E-01  0.3024051E+00 -0.1378386E+01 -0.5782737E-01  0.2968246E+00
  0.1501280E+02 -0.2986230E+01 -0.2568960E-01  0.3023759E+00 -0.1369803E+01 -0.6036729E-01  0.2962887E+00
  0.1523320E+02 -0.1500330E+01 -0.2568960E-01  0.3019385E+00 -0.1363228E+01 -0.6222386E-01  0.2954574E+00
  0.1530690E+02  0.0000000E+00 -0.1027320E+00  0.3000913E+00 -0.1358462E+01 -0.6324206E-01  0.2933517E+00
  0.1523320E+02  0.1500340E+01 -0.1027320E+00  0.2982273E+00 -0.1355351E+01 -0.6375580E-01  0.2913326E+00
  0.1501280E+02  0.2986230E+01 -0.1027320E+00  0.2956091E+00 -0.1353942E+01 -0.6360288E-01  0.2886857E+00
  0.1464780E+02  0.4443360E+01 -0.1027320E+00  0.2924979E+00 -0.1354213E+01 -0.6285620E-01  0.2856643E+00
  0.1414170E+02  0.5857700E+01 -0.1027320E+00  0.2905153E+00 -0.1356214E+01 -0.6186218E-01  0.2838525E+00
  0.1349950E+02  0.7215620E+01 -0.1027320E+00  0.2897942E+00 -0.1359746E+01 -0.6070818E-01  0.2833641E+00
  0.1272720E+02  0.8504060E+01 -0.1027320E+00  0.2876681E+00 -0.1364547E+01 -0.5891174E-01  0.2815712E+00
  0.1183240E+02  0.9710600E+01 -0.1027320E+00  0.2819384E+00 -0.1371065E+01 -0.5593818E-01  0.2763335E+00
  0.1082360E+02  0.1082360E+02 -0.1027320E+00  0.2757863E+00 -0.1379202E+01 -0.5251652E-01  0.2707399E+00
  0.9710590E+01  0.1183240E+02 -0.1027320E+00  0.2699606E+00 -0.1388752E+01 -0.4887382E-01  0.2654997E+00
  0.8504060E+01  0.1272720E+02 -0.1027320E+00  0.2599646E+00 -0.1400455E+01 -0.4406874E-01  0.2562021E+00
  0.7215620E+01  0.1349950E+02 -0.1027320E+00  0.2499334E+00 -0.1412974E+01 -0.3928160E-01  0.2468272E+00
  0.5857700E+01  0.1414170E+02 -0.1027320E+00  0.2358886E+00 -0.1428305E+01 -0.3349849E-01  0.2334979E+00
  0.4443360E+01  0.1464780E+02 -0.1027320E+00  0.2141725E+00 -0.1448948E+01 -0.2603196E-01  0.2125845E+00
  0.2986230E+01  0.1501280E+02 -0.1027320E+00  0.1735510E+00 -0.1487024E+01 -0.1452184E-01  0.1729424E+00
  0.1500340E+01  0.1523320E+02 -0.1027320E+00  0.4335096E-01 -0.2104040E+01  0.2203656E-01  0.3733223E-01
 -0.6690860E-06  0.1530690E+02 -0.1027320E+00  0.6049646E-01  0.2430528E+01  0.4583620E-01 -0.3948246E-01
 -0.1500340E+01  0.1523320E+02 -0.1027320E+00  0.1226743E+00  0.2145816E+01  0.6671657E-01 -0.1029460E+00
 -0.2986230E+01  0.1501280E+02 -0.1027320E+00  0.1993603E+00  0.2038843E+01  0.8994016E-01 -0.1779193E+00
 -0.4443360E+01  0.1464780E+02 -0.1027320E+00  0.2143263E+00  0.2022189E+01  0.9349327E-01 -0.1928594E+00
 -0.5857700E+01  0.1414170E+02 -0.1027320E+00  0.2223821E+00  0.2014916E+01  0.9554942E-01 -0.2008086E+00
 -0.7215620E+01  0.1349950E+02 -0.1027320E+00  0.2261429E+00  0.2013187E+01  0.9681211E-01 -0.2043723E+00
 -0.8504060E+01  0.1272720E+02 -0.1027320E+00  0.2284095E+00  0.2012959E+01  0.9773526E-01 -0.2064430E+00
 -0.9710590E+01  0.1183240E+02 -0.1027320E+00  0.2316186E+00  0.2012405E+01  0.9899259E-01 -0.2093983E+00
 -0.1082360E+02  0.1082360E+02 -0.1027320E+00  0.2318841E+00  0.2014088E+01  0.9945869E-01 -0.2094712E+00
 -0.1183240E+02  0.9710590E+01 -0.1027320E+00  0.2325555E+00  0.2014989E+01  0.9993590E-01 -0.2099878E+00
 -0.1272720E+02  0.8504060E+01 -0.1027320E+00  0.2332870E+00  0.2014814E+01  0.1002133E+00 -0.2106659E+00
 -0.1349950E+02  0.7215620E+01 -0.1027320E+00  0.2313084E+00  0.2015807E+01  0.9957083E-01 -0.2087803E+00
 -0.1414170E+02  0.5857690E+01 -0.1027320E+00  0.2283364E+00  0.2016664E+01  0.9846801E-01 -0.2060135E+00
 -0.1464780E+02  0.4443360E+01 -0.1027320E+00  0.2265491E+00  0.2015026E+01  0.9736221E-01 -0.2045608E+00
 -0.1501280E+02  0.2986230E+01 -0.1027320E+00  0.2255709E+00  0.2011293E+01  0.9618090E-01 -0.2040379E+00
 -0.1523320E+02  0.1500340E+01 -0.1027320E+00  0.2242047E+00  0.2006746E+01  0.9467532E-01 -0.2032347E+00
 -0.1530690E+02 -0.1338170E-05 -0.1027320E+00  0.2222016E+00  0.2001528E+01  0.9277707E-01 -0.2019059E+00
 -0.1523320E+02 -0.1500340E+01 -0.1027320E+00  0.2194664E+00  0.1995791E+01  0.9048939E-01 -0.1999429E+00
 -0.1501280E+02 -0.2986230E+01 -0.1027320E+00  0.2160260E+00  0.1989500E+01  0.8783105E-01 -0.1973650E+00
 -0.1464780E+02 -0.4443360E+01 -0.1027320E+00  0.2121077E+00  0.1982073E+01  0.8479644E-01 -0.1944203E+00
 -0.1414170E+02 -0.5857700E+01 -0.1027320E+00  0.2091438E+00  0.1970215E+01  0.8133239E-01 -0.1926815E+00
 -0.1349950E+02 -0.7215620E+01 -0.1027320E+00  0.2072652E+00  0.1953670E+01  0.7743169E-01 -0.1922582E+00
 -0.1272720E+02 -0.8504060E+01 -0.1027320E+00  0.2040801E+00  0.1937179E+01  0.7310984E-01 -0.1905352E+00
 -0.1183240E+02 -0.9710600E+01 -0.1027320E+00  0.1976525E+00  0.1925006E+01  0.6855569E-01 -0.1853824E+00
 -0.1082360E+02 -0.1082360E+02 -0.1027320E+00  0.1908497E+00  0.1911376E+01  0.6375013E-01 -0.1798875E+00
 -0.9710600E+01 -0.1183240E+02 -0.1027320E+00  0.1843325E+00  0.1894575E+01  0.5864550E-01 -0.1747546E+00
 -0.8504050E+01 -0.1272720E+02 -0.1027320E+00  0.1739795E+00  0.1882655E+01  0.5338185E-01 -0.1655876E+00
 -0.7215620E+01 -0.1349950E+02 -0.1027320E+00  0.1634867E+00  0.1867119E+01  0.4773902E-01 -0.1563614E+00
 -0.5857690E+01 -0.1414170E+02 -0.1027320E+00  0.1492819E+00  0.1856444E+01  0.4206446E-01 -0.1432330E+00
 -0.4443360E+01 -0.1464780E+02 -0.1027320E+00  0.1278770E+00  0.1859465E+01  0.3640359E-01 -0.1225860E+00
 -0.2986230E+01 -0.1501280E+02 -0.1027320E+00  0.8916253E-01  0.1931720E+01  0.3148672E-01 -0.8341789E-01
 -0.1500340E+01 -0.1523320E+02 -0.1027320E+00  0.6097889E-01 -0.2144268E+01  0.3308417E-01  0.5122366E-01
  0.1825330E-06 -0.1530690E+02 -0.1027320E+00  0.1315283E+00 -0.1806853E+01  0.3076061E-01  0.1278807E+00
  0.1500340E+01 -0.1523320E+02 -0.1027320E+00  0.1934108E+00 -0.1706122E+01  0.2609361E-01  0.1916425E+00
  0.2986230E+01 -0.1501280E+02 -0.1027320E+00  0.2682695E+00 -0.1633441E+01  0.1679469E-01  0.2677433E+00
  0.4443360E+01 -0.1464780E+02 -0.1027320E+00  0.2832826E+00 -0.1589720E+01  0.5360563E-02  0.2832319E+00
  0.5857700E+01 -0.1414170E+02 -0.1027320E+00  0.2915398E+00 -0.1555525E+01 -0.4451960E-02  0.2915058E+00
  0.7215620E+01 -0.1349950E+02 -0.1027320E+00  0.2956099E+00 -0.1525822E+01 -0.1329035E-01  0.2953110E+00
  0.8504060E+01 -0.1272720E+02 -0.1027320E+00  0.2983211E+00 -0.1499268E+01 -0.2132027E-01  0.2975582E+00
  0.9710600E+01 -0.1183240E+02 -0.1027320E+00  0.3020005E+00 -0.1476279E+01 -0.2850169E-01  0.3006525E+00
  0.1082360E+02 -0.1082360E+02 -0.1027320E+00  0.3028536E+00 -0.1454902E+01 -0.3502056E-01  0.3008219E+00
  0.1183240E+02 -0.9710590E+01 -0.1027320E+00  0.3041708E+00 -0.1436076E+01 -0.4085421E-01  0.3014147E+00
  0.1272720E+02 -0.8504060E+01 -0.1027320E+00  0.3056385E+00 -0.1419602E+01 -0.4603506E-01  0.3021517E+00
