 VARIABLES="X" "Y" "Z" "abs(eta) (m)" "angle(phi) (rad)" "PRE1" "PRE2"
ZONE N=   3200 ,E =    3136 ,F=FEPOINT,ET=QUADRILATERAL
  0.1530690E+02  0.0000000E+00  0.0000000E+00  0.2705539E+00  0.2794648E+01  0.2544333E+00 -0.9199531E-01
  0.1523320E+02  0.1500340E+01  0.0000000E+00  0.2618265E+00  0.2789341E+01  0.2457499E+00 -0.9033336E-01
  0.1501280E+02  0.2986230E+01  0.0000000E+00  0.2522993E+00  0.2781573E+01  0.2361244E+00 -0.8888316E-01
  0.1464780E+02  0.4443360E+01  0.0000000E+00  0.2421123E+00  0.2772228E+01  0.2257835E+00 -0.8740804E-01
  0.1414170E+02  0.5857700E+01  0.0000000E+00  0.2313629E+00  0.2759932E+01  0.2147157E+00 -0.8617397E-01
  0.1349950E+02  0.7215620E+01  0.0000000E+00  0.2199425E+00  0.2741258E+01  0.2025518E+00 -0.8571742E-01
  0.1272720E+02  0.8504060E+01  0.0000000E+00  0.2084291E+00  0.2714174E+01  0.1896785E+00 -0.8639863E-01
  0.1183240E+02  0.9710600E+01  0.0000000E+00  0.1955522E+00  0.2690406E+01  0.1759834E+00 -0.8526733E-01
  0.1082360E+02  0.1082360E+02  0.0000000E+00  0.1810899E+00  0.2678690E+01  0.1620321E+00 -0.8086511E-01
  0.9710590E+01  0.1183240E+02  0.0000000E+00  0.1661133E+00  0.2660213E+01  0.1472357E+00 -0.7691097E-01
  0.8504060E+01  0.1272720E+02  0.0000000E+00  0.1496548E+00  0.2650095E+01  0.1319397E+00 -0.7062907E-01
  0.7215620E+01  0.1349950E+02  0.0000000E+00  0.1306156E+00  0.2670177E+01  0.1163689E+00 -0.5931876E-01
  0.5857700E+01  0.1414170E+02  0.0000000E+00  0.1112681E+00  0.2722137E+01  0.1016223E+00 -0.4531537E-01
  0.4443360E+01  0.1464780E+02  0.0000000E+00  0.9070215E-01  0.2889505E+01  0.8783539E-01 -0.2262352E-01
  0.2986230E+01  0.1501280E+02  0.0000000E+00  0.8355217E-01 -0.2869813E+01  0.8048536E-01  0.2242927E-01
  0.1500340E+01  0.1523320E+02  0.0000000E+00  0.1909776E+00 -0.2123735E+01  0.1002996E+00  0.1625191E+00
 -0.6690860E-06  0.1530690E+02  0.0000000E+00  0.2447238E+00 -0.1926713E+01  0.8527388E-01  0.2293864E+00
 -0.1500340E+01  0.1523320E+02  0.0000000E+00  0.2779804E+00 -0.1742051E+01  0.4737318E-01  0.2739141E+00
 -0.2986230E+01  0.1501280E+02  0.0000000E+00  0.3130904E+00 -0.1444463E+01 -0.3944859E-01  0.3105952E+00
 -0.4443360E+01  0.1464780E+02  0.0000000E+00  0.3277192E+00 -0.1288478E+01 -0.9129697E-01  0.3147455E+00
 -0.5857700E+01  0.1414170E+02  0.0000000E+00  0.3405378E+00 -0.1181299E+01 -0.1293102E+00  0.3150316E+00
 -0.7215620E+01  0.1349950E+02  0.0000000E+00  0.3512852E+00 -0.1092764E+01 -0.1616028E+00  0.3119067E+00
 -0.8504060E+01  0.1272720E+02  0.0000000E+00  0.3634025E+00 -0.1022178E+01 -0.1895176E+00  0.3100717E+00
 -0.9710590E+01  0.1183240E+02  0.0000000E+00  0.3729123E+00 -0.9603058E+00 -0.2137792E+00  0.3055519E+00
 -0.1082360E+02  0.1082360E+02  0.0000000E+00  0.3811468E+00 -0.9057246E+00 -0.2352116E+00  0.2999139E+00
 -0.1183240E+02  0.9710590E+01  0.0000000E+00  0.3894985E+00 -0.8581212E+00 -0.2546775E+00  0.2947006E+00
 -0.1272720E+02  0.8504060E+01  0.0000000E+00  0.3955050E+00 -0.8159327E+00 -0.2709958E+00  0.2880720E+00
 -0.1349950E+02  0.7215620E+01  0.0000000E+00  0.3997566E+00 -0.7793513E+00 -0.2843747E+00  0.2809562E+00
 -0.1414170E+02  0.5857690E+01  0.0000000E+00  0.4041322E+00 -0.7499604E+00 -0.2957099E+00  0.2754605E+00
 -0.1464780E+02  0.4443360E+01  0.0000000E+00  0.4078717E+00 -0.7255654E+00 -0.3051387E+00  0.2706467E+00
 -0.1501280E+02  0.2986230E+01  0.0000000E+00  0.4105137E+00 -0.7062144E+00 -0.3123287E+00  0.2664062E+00
 -0.1523320E+02  0.1500340E+01  0.0000000E+00  0.4117072E+00 -0.6914065E+00 -0.3171586E+00  0.2625133E+00
 -0.1530690E+02 -0.1338170E-05  0.0000000E+00  0.4117809E+00 -0.6811978E+00 -0.3198792E+00  0.2593083E+00
 -0.1523320E+02 -0.1500340E+01  0.0000000E+00  0.4105044E+00 -0.6752580E+00 -0.3204174E+00  0.2566058E+00
 -0.1501280E+02 -0.2986230E+01  0.0000000E+00  0.4077863E+00 -0.6734113E+00 -0.3187661E+00  0.2543184E+00
 -0.1464780E+02 -0.4443360E+01  0.0000000E+00  0.4032076E+00 -0.6753064E+00 -0.3147097E+00  0.2520598E+00
 -0.1414170E+02 -0.5857700E+01  0.0000000E+00  0.3972786E+00 -0.6811109E+00 -0.3086354E+00  0.2501490E+00
 -0.1349950E+02 -0.7215620E+01  0.0000000E+00  0.3911103E+00 -0.6912128E+00 -0.3013401E+00  0.2493219E+00
 -0.1272720E+02 -0.8504060E+01  0.0000000E+00  0.3851837E+00 -0.7061170E+00 -0.2930814E+00  0.2499396E+00
 -0.1183240E+02 -0.9710600E+01  0.0000000E+00  0.3759580E+00 -0.7238500E+00 -0.2816909E+00  0.2489873E+00
 -0.1082360E+02 -0.1082360E+02  0.0000000E+00  0.3612709E+00 -0.7443544E+00 -0.2657239E+00  0.2447600E+00
 -0.9710600E+01 -0.1183240E+02  0.0000000E+00  0.3466792E+00 -0.7688918E+00 -0.2491520E+00  0.2410597E+00
 -0.8504050E+01 -0.1272720E+02  0.0000000E+00  0.3284981E+00 -0.7972987E+00 -0.2295026E+00  0.2350310E+00
 -0.7215620E+01 -0.1349950E+02  0.0000000E+00  0.3032708E+00 -0.8306327E+00 -0.2045285E+00  0.2239225E+00
 -0.5857690E+01 -0.1414170E+02  0.0000000E+00  0.2745058E+00 -0.8705618E+00 -0.1768907E+00  0.2099122E+00
 -0.4443360E+01 -0.1464780E+02  0.0000000E+00  0.2340700E+00 -0.9245849E+00 -0.1409490E+00  0.1868746E+00
 -0.2986230E+01 -0.1501280E+02  0.0000000E+00  0.1634787E+00 -0.1034495E+01 -0.8353116E-01  0.1405270E+00
 -0.1500340E+01 -0.1523320E+02  0.0000000E+00  0.7606340E-01  0.3108999E+01  0.7602300E-01 -0.2478748E-02
  0.1825330E-06 -0.1530690E+02  0.0000000E+00  0.1764877E+00  0.2742404E+01  0.1626116E+00 -0.6859567E-01
  0.1500340E+01 -0.1523320E+02  0.0000000E+00  0.2493657E+00  0.2683320E+01  0.2236357E+00 -0.1103192E+00
  0.2986230E+01 -0.1501280E+02  0.0000000E+00  0.2998288E+00  0.2655756E+01  0.2651339E+00 -0.1400047E+00
  0.4443360E+01 -0.1464780E+02  0.0000000E+00  0.3056186E+00  0.2662138E+01  0.2711590E+00 -0.1409804E+00
  0.5857700E+01 -0.1414170E+02  0.0000000E+00  0.3097036E+00  0.2674351E+01  0.2765077E+00 -0.1394985E+00
  0.7215620E+01 -0.1349950E+02  0.0000000E+00  0.3106121E+00  0.2690908E+01  0.2795973E+00 -0.1352969E+00
  0.8504060E+01 -0.1272720E+02  0.0000000E+00  0.3140512E+00  0.2704290E+01  0.2844981E+00 -0.1329998E+00
  0.9710600E+01 -0.1183240E+02  0.0000000E+00  0.3141664E+00  0.2720292E+01  0.2866950E+00 -0.1284775E+00
  0.1082360E+02 -0.1082360E+02  0.0000000E+00  0.3126883E+00  0.2736570E+01  0.2873897E+00 -0.1232117E+00
  0.1183240E+02 -0.9710590E+01  0.0000000E+00  0.3113328E+00  0.2750578E+01  0.2878343E+00 -0.1186572E+00
  0.1272720E+02 -0.8504060E+01  0.0000000E+00  0.3073582E+00  0.2765312E+01  0.2858548E+00 -0.1129430E+00
  0.1349950E+02 -0.7215620E+01  0.0000000E+00  0.3017515E+00  0.2779231E+01  0.2821564E+00 -0.1069660E+00
  0.1414170E+02 -0.5857700E+01  0.0000000E+00  0.2966765E+00  0.2787953E+01  0.2783178E+00 -0.1027433E+00
  0.1464780E+02 -0.4443350E+01  0.0000000E+00  0.2911569E+00  0.2793825E+01  0.2737270E+00 -0.9922636E-01
  0.1501280E+02 -0.2986230E+01  0.0000000E+00  0.2851167E+00  0.2796788E+01  0.2683351E+00 -0.9637320E-01
  0.1523320E+02 -0.1500330E+01  0.0000000E+00  0.2783210E+00  0.2797286E+01  0.2619863E+00 -0.9394557E-01
  0.1530690E+02  0.0000000E+00 -0.2568960E-01  0.2701411E+00  0.2794580E+01  0.2540388E+00 -0.9187244E-01
  0.1523320E+02  0.1500340E+01 -0.2568960E-01  0.2614263E+00  0.2789266E+01  0.2453675E+00 -0.9021372E-01
  0.1501280E+02  0.2986230E+01 -0.2568960E-01  0.2519145E+00  0.2781493E+01  0.2357571E+00 -0.8876652E-01
  0.1464780E+02  0.4443360E+01 -0.2568960E-01  0.2417433E+00  0.2772132E+01  0.2254310E+00 -0.8729661E-01
  0.1414170E+02  0.5857700E+01 -0.2568960E-01  0.2310114E+00  0.2759828E+01  0.2143805E+00 -0.8606538E-01
  0.1349950E+02  0.7215620E+01 -0.2568960E-01  0.2196067E+00  0.2741180E+01  0.2022358E+00 -0.8560234E-01
  0.1272720E+02  0.8504060E+01 -0.2568960E-01  0.2081026E+00  0.2714162E+01  0.1893804E+00 -0.8626556E-01
  0.1183240E+02  0.9710600E+01 -0.2568960E-01  0.1952452E+00  0.2690409E+01  0.1757073E+00 -0.8513289E-01
  0.1082360E+02  0.1082360E+02 -0.2568960E-01  0.1808115E+00  0.2678613E+01  0.1617768E+00 -0.8075327E-01
  0.9710590E+01  0.1183240E+02 -0.2568960E-01  0.1658566E+00  0.2660175E+01  0.1470053E+00 -0.7679758E-01
  0.8504060E+01  0.1272720E+02 -0.2568960E-01  0.1494231E+00  0.2650081E+01  0.1317345E+00 -0.7052159E-01
  0.7215620E+01  0.1349950E+02 -0.2568960E-01  0.1304307E+00  0.2669988E+01  0.1161930E+00 -0.5925684E-01
  0.5857700E+01  0.1414170E+02 -0.2568960E-01  0.1111057E+00  0.2721903E+01  0.1014634E+00 -0.4527300E-01
  0.4443360E+01  0.1464780E+02 -0.2568960E-01  0.9057592E-01  0.2889072E+01  0.8770336E-01 -0.2263001E-01
  0.2986230E+01  0.1501280E+02 -0.2568960E-01  0.8342861E-01 -0.2870095E+01  0.8037263E-01  0.2237347E-01
  0.1500340E+01  0.1523320E+02 -0.2568960E-01  0.1906951E+00 -0.2123920E+01  0.1001812E+00  0.1622601E+00
 -0.6690860E-06  0.1530690E+02 -0.2568960E-01  0.2443579E+00 -0.1926801E+01  0.8516666E-01  0.2290359E+00
 -0.1500340E+01  0.1523320E+02 -0.2568960E-01  0.2775980E+00 -0.1742177E+01  0.4734248E-01  0.2735313E+00
 -0.2986230E+01  0.1501280E+02 -0.2568960E-01  0.3126122E+00 -0.1444522E+01 -0.3937005E-01  0.3101232E+00
 -0.4443360E+01  0.1464780E+02 -0.2568960E-01  0.3272219E+00 -0.1288519E+01 -0.9114565E-01  0.3142716E+00
 -0.5857700E+01  0.1414170E+02 -0.2568960E-01  0.3400058E+00 -0.1181323E+01 -0.1291006E+00  0.3145425E+00
 -0.7215620E+01  0.1349950E+02 -0.2568960E-01  0.3507438E+00 -0.1092817E+01 -0.1613371E+00  0.3114347E+00
 -0.8504060E+01  0.1272720E+02 -0.2568960E-01  0.3628186E+00 -0.1022205E+01 -0.1892046E+00  0.3095786E+00
 -0.9710590E+01  0.1183240E+02 -0.2568960E-01  0.3723142E+00 -0.9603271E+00 -0.2134299E+00  0.3050665E+00
 -0.1082360E+02  0.1082360E+02 -0.2568960E-01  0.3805405E+00 -0.9057486E+00 -0.2348303E+00  0.2994425E+00
 -0.1183240E+02  0.9710590E+01 -0.2568960E-01  0.3888691E+00 -0.8581417E+00 -0.2542600E+00  0.2942295E+00
 -0.1272720E+02  0.8504060E+01 -0.2568960E-01  0.3948693E+00 -0.8159539E+00 -0.2705541E+00  0.2876147E+00
 -0.1349950E+02  0.7215620E+01 -0.2568960E-01  0.3991260E+00 -0.7793869E+00 -0.2839161E+00  0.2805231E+00
 -0.1414170E+02  0.5857690E+01 -0.2568960E-01  0.4035006E+00 -0.7499978E+00 -0.2952375E+00  0.2750410E+00
 -0.1464780E+02  0.4443360E+01 -0.2568960E-01  0.4072346E+00 -0.7256054E+00 -0.3046513E+00  0.2702362E+00
 -0.1501280E+02  0.2986230E+01 -0.2568960E-01  0.4098724E+00 -0.7062536E+00 -0.3118303E+00  0.2660023E+00
 -0.1523320E+02  0.1500340E+01 -0.2568960E-01  0.4110653E+00 -0.6914441E+00 -0.3166543E+00  0.2621159E+00
 -0.1530690E+02 -0.1338170E-05 -0.2568960E-01  0.4111395E+00 -0.6812323E+00 -0.3193721E+00  0.2589154E+00
 -0.1523320E+02 -0.1500340E+01 -0.2568960E-01  0.4098665E+00 -0.6752927E+00 -0.3199106E+00  0.2562181E+00
 -0.1501280E+02 -0.2986230E+01 -0.2568960E-01  0.4071548E+00 -0.6734452E+00 -0.3182638E+00  0.2539354E+00
 -0.1464780E+02 -0.4443360E+01 -0.2568960E-01  0.4025878E+00 -0.6753415E+00 -0.3142171E+00  0.2516834E+00
 -0.1414170E+02 -0.5857700E+01 -0.2568960E-01  0.3966697E+00 -0.6811402E+00 -0.3081550E+00  0.2497747E+00
 -0.1349950E+02 -0.7215620E+01 -0.2568960E-01  0.3905017E+00 -0.6912396E+00 -0.3008645E+00  0.2489420E+00
 -0.1272720E+02 -0.8504060E+01 -0.2568960E-01  0.3845640E+00 -0.7061345E+00 -0.2926054E+00  0.2495426E+00
 -0.1183240E+02 -0.9710600E+01 -0.2568960E-01  0.3753490E+00 -0.7238671E+00 -0.2812303E+00  0.2485888E+00
 -0.1082360E+02 -0.1082360E+02 -0.2568960E-01  0.3607062E+00 -0.7443745E+00 -0.2653036E+00  0.2443827E+00
 -0.9710600E+01 -0.1183240E+02 -0.2568960E-01  0.3461272E+00 -0.7689116E+00 -0.2487505E+00  0.2406807E+00
 -0.8504050E+01 -0.1272720E+02 -0.2568960E-01  0.3279695E+00 -0.7973191E+00 -0.2291285E+00  0.2346575E+00
 -0.7215620E+01 -0.1349950E+02 -0.2568960E-01  0.3028219E+00 -0.8306450E+00 -0.2042230E+00  0.2235936E+00
 -0.5857690E+01 -0.1414170E+02 -0.2568960E-01  0.2740992E+00 -0.8705736E+00 -0.1766263E+00  0.2096033E+00
 -0.4443360E+01 -0.1464780E+02 -0.2568960E-01  0.2337456E+00 -0.9245752E+00 -0.1407555E+00  0.1866143E+00
 -0.2986230E+01 -0.1501280E+02 -0.2568960E-01  0.1632347E+00 -0.1034493E+01 -0.8340667E-01  0.1403171E+00
 -0.1500340E+01 -0.1523320E+02 -0.2568960E-01  0.7595428E-01  0.3108889E+01  0.7591367E-01 -0.2483551E-02
  0.1825330E-06 -0.1530690E+02 -0.2568960E-01  0.1762418E+00  0.2742356E+01  0.1623818E+00 -0.6850792E-01
  0.1500340E+01 -0.1523320E+02 -0.2568960E-01  0.2490625E+00  0.2683233E+01  0.2233541E+00 -0.1102046E+00
  0.2986230E+01 -0.1501280E+02 -0.2568960E-01  0.2993960E+00  0.2655733E+01  0.2647480E+00 -0.1398086E+00
  0.4443360E+01 -0.1464780E+02 -0.2568960E-01  0.3051815E+00  0.2662107E+01  0.2707668E+00 -0.1407873E+00
  0.5857700E+01 -0.1414170E+02 -0.2568960E-01  0.3092362E+00  0.2674333E+01  0.2760879E+00 -0.1392927E+00
  0.7215620E+01 -0.1349950E+02 -0.2568960E-01  0.3101596E+00  0.2690871E+01  0.2791850E+00 -0.1351101E+00
  0.8504060E+01 -0.1272720E+02 -0.2568960E-01  0.3135590E+00  0.2704286E+01  0.2840517E+00 -0.1327926E+00
  0.9710600E+01 -0.1183240E+02 -0.2568960E-01  0.3136739E+00  0.2720286E+01  0.2862449E+00 -0.1282779E+00
  0.1082360E+02 -0.1082360E+02 -0.2568960E-01  0.3122039E+00  0.2736554E+01  0.2869426E+00 -0.1230253E+00
  0.1183240E+02 -0.9710590E+01 -0.2568960E-01  0.3108387E+00  0.2750573E+01  0.2873770E+00 -0.1184702E+00
  0.1272720E+02 -0.8504060E+01 -0.2568960E-01  0.3068734E+00  0.2765298E+01  0.2854022E+00 -0.1127690E+00
  0.1349950E+02 -0.7215620E+01 -0.2568960E-01  0.3012914E+00  0.2779189E+01  0.2817218E+00 -0.1068146E+00
  0.1414170E+02 -0.5857700E+01 -0.2568960E-01  0.2962280E+00  0.2787903E+01  0.2778918E+00 -0.1026021E+00
  0.1464780E+02 -0.4443350E+01 -0.2568960E-01  0.2907154E+00  0.2793765E+01  0.2733060E+00 -0.9909210E-01
  0.1501280E+02 -0.2986230E+01 -0.2568960E-01  0.2846839E+00  0.2796725E+01  0.2679218E+00 -0.9624358E-01
  0.1523320E+02 -0.1500330E+01 -0.2568960E-01  0.2778965E+00  0.2797219E+01  0.2615803E+00 -0.9381995E-01
  0.1530690E+02  0.0000000E+00 -0.1027320E+00  0.2689137E+00  0.2794323E+01  0.2528611E+00 -0.9151977E-01
  0.1523320E+02  0.1500340E+01 -0.1027320E+00  0.2602403E+00  0.2788997E+01  0.2442302E+00 -0.8986999E-01
  0.1501280E+02  0.2986230E+01 -0.1027320E+00  0.2507736E+00  0.2781202E+01  0.2346637E+00 -0.8843269E-01
  0.1464780E+02  0.4443360E+01 -0.1027320E+00  0.2406488E+00  0.2771803E+01  0.2243818E+00 -0.8697502E-01
  0.1414170E+02  0.5857700E+01 -0.1027320E+00  0.2299628E+00  0.2759480E+01  0.2133777E+00 -0.8574878E-01
  0.1349950E+02  0.7215620E+01 -0.1027320E+00  0.2186063E+00  0.2740906E+01  0.2012912E+00 -0.8526764E-01
  0.1272720E+02  0.8504060E+01 -0.1027320E+00  0.2071346E+00  0.2714102E+01  0.1884944E+00 -0.8587566E-01
  0.1183240E+02  0.9710600E+01 -0.1027320E+00  0.1943345E+00  0.2690405E+01  0.1748874E+00 -0.8473666E-01
  0.1082360E+02  0.1082360E+02 -0.1027320E+00  0.1799842E+00  0.2678366E+01  0.1610166E+00 -0.8042361E-01
  0.9710590E+01  0.1183240E+02 -0.1027320E+00  0.1650935E+00  0.2660051E+01  0.1463194E+00 -0.7646246E-01
  0.8504060E+01  0.1272720E+02 -0.1027320E+00  0.1487368E+00  0.2650043E+01  0.1311267E+00 -0.7020259E-01
  0.7215620E+01  0.1349950E+02 -0.1027320E+00  0.1298694E+00  0.2669560E+01  0.1156676E+00 -0.5905130E-01
  0.5857700E+01  0.1414170E+02 -0.1027320E+00  0.1106299E+00  0.2721204E+01  0.1009974E+00 -0.4514971E-01
  0.4443360E+01  0.1464780E+02 -0.1027320E+00  0.9019482E-01  0.2887735E+01  0.8730416E-01 -0.2265149E-01
  0.2986230E+01  0.1501280E+02 -0.1027320E+00  0.8306282E-01 -0.2870828E+01  0.8003657E-01  0.2221666E-01
  0.1500340E+01  0.1523320E+02 -0.1027320E+00  0.1898264E+00 -0.2124410E+01  0.9980396E-01  0.1614720E+00
 -0.6690860E-06  0.1530690E+02 -0.1027320E+00  0.2433235E+00 -0.1927179E+01  0.8489241E-01  0.2280343E+00
 -0.1500340E+01  0.1523320E+02 -0.1027320E+00  0.2764290E+00 -0.1742478E+01  0.4722496E-01  0.2723652E+00
 -0.2986230E+01  0.1501280E+02 -0.1027320E+00  0.3111805E+00 -0.1444697E+01 -0.3913558E-01  0.3087097E+00
 -0.4443360E+01  0.1464780E+02 -0.1027320E+00  0.3257403E+00 -0.1288619E+01 -0.9070169E-01  0.3128577E+00
 -0.5857700E+01  0.1414170E+02 -0.1027320E+00  0.3384254E+00 -0.1181402E+01 -0.1284758E+00  0.3130906E+00
 -0.7215620E+01  0.1349950E+02 -0.1027320E+00  0.3491197E+00 -0.1092964E+01 -0.1605445E+00  0.3100161E+00
 -0.8504060E+01  0.1272720E+02 -0.1027320E+00  0.3610803E+00 -0.1022281E+01 -0.1882748E+00  0.3081097E+00
 -0.9710590E+01  0.1183240E+02 -0.1027320E+00  0.3705350E+00 -0.9603888E+00 -0.2123912E+00  0.3036218E+00
 -0.1082360E+02  0.1082360E+02 -0.1027320E+00  0.3787378E+00 -0.9058188E+00 -0.2336969E+00  0.2980404E+00
 -0.1183240E+02  0.9710590E+01 -0.1027320E+00  0.3870020E+00 -0.8582007E+00 -0.2530219E+00  0.2928318E+00
 -0.1272720E+02  0.8504060E+01 -0.1027320E+00  0.3929846E+00 -0.8160263E+00 -0.2692421E+00  0.2862614E+00
 -0.1349950E+02  0.7215620E+01 -0.1027320E+00  0.3972614E+00 -0.7794997E+00 -0.2825583E+00  0.2792444E+00
 -0.1414170E+02  0.5857690E+01 -0.1027320E+00  0.4016275E+00 -0.7501217E+00 -0.2938330E+00  0.2738006E+00
 -0.1464780E+02  0.4443360E+01 -0.1027320E+00  0.4053482E+00 -0.7257371E+00 -0.3032047E+00  0.2690243E+00
 -0.1501280E+02  0.2986230E+01 -0.1027320E+00  0.4079745E+00 -0.7063828E+00 -0.3103522E+00  0.2648107E+00
 -0.1523320E+02  0.1500340E+01 -0.1027320E+00  0.4091649E+00 -0.6915661E+00 -0.3151585E+00  0.2609425E+00
 -0.1530690E+02 -0.1338170E-05 -0.1027320E+00  0.4092397E+00 -0.6813486E+00 -0.3178663E+00  0.2577560E+00
 -0.1523320E+02 -0.1500340E+01 -0.1027320E+00  0.4079762E+00 -0.6754057E+00 -0.3184064E+00  0.2550724E+00
 -0.1501280E+02 -0.2986230E+01 -0.1027320E+00  0.4052829E+00 -0.6735567E+00 -0.3167724E+00  0.2528032E+00
 -0.1464780E+02 -0.4443360E+01 -0.1027320E+00  0.4007474E+00 -0.6754507E+00 -0.3127533E+00  0.2505670E+00
 -0.1414170E+02 -0.5857700E+01 -0.1027320E+00  0.3948634E+00 -0.6812400E+00 -0.3067269E+00  0.2486679E+00
 -0.1349950E+02 -0.7215620E+01 -0.1027320E+00  0.3886997E+00 -0.6913218E+00 -0.2994558E+00  0.2478179E+00
 -0.1272720E+02 -0.8504060E+01 -0.1027320E+00  0.3827243E+00 -0.7061890E+00 -0.2911921E+00  0.2483647E+00
 -0.1183240E+02 -0.9710600E+01 -0.1027320E+00  0.3735340E+00 -0.7239205E+00 -0.2798572E+00  0.2474017E+00
 -0.1082360E+02 -0.1082360E+02 -0.1027320E+00  0.3590276E+00 -0.7444398E+00 -0.2640532E+00  0.2432627E+00
 -0.9710600E+01 -0.1183240E+02 -0.1027320E+00  0.3444848E+00 -0.7689674E+00 -0.2475568E+00  0.2395525E+00
 -0.8504050E+01 -0.1272720E+02 -0.1027320E+00  0.3263956E+00 -0.7973737E+00 -0.2280162E+00  0.2335438E+00
 -0.7215620E+01 -0.1349950E+02 -0.1027320E+00  0.3014520E+00 -0.8306896E+00 -0.2032892E+00  0.2225911E+00
 -0.5857690E+01 -0.1414170E+02 -0.1027320E+00  0.2728897E+00 -0.8706018E+00 -0.1758409E+00  0.2086833E+00
 -0.4443360E+01 -0.1464780E+02 -0.1027320E+00  0.2327822E+00 -0.9245378E+00 -0.1401823E+00  0.1858399E+00
 -0.2986230E+01 -0.1501280E+02 -0.1027320E+00  0.1624941E+00 -0.1034509E+01 -0.8302611E-01  0.1396818E+00
 -0.1500340E+01 -0.1523320E+02 -0.1027320E+00  0.7560540E-01  0.3108770E+01  0.7556468E-01 -0.2481110E-02
  0.1825330E-06 -0.1530690E+02 -0.1027320E+00  0.1755700E+00  0.2742059E+01  0.1617425E+00 -0.6829480E-01
  0.1500340E+01 -0.1523320E+02 -0.1027320E+00  0.2481207E+00  0.2683010E+01  0.2224851E+00 -0.1098375E+00
  0.2986230E+01 -0.1501280E+02 -0.1027320E+00  0.2980961E+00  0.2655652E+01  0.2635873E+00 -0.1392230E+00
  0.4443360E+01 -0.1464780E+02 -0.1027320E+00  0.3038717E+00  0.2661997E+01  0.2695894E+00 -0.1402127E+00
  0.5857700E+01 -0.1414170E+02 -0.1027320E+00  0.3078483E+00  0.2674260E+01  0.2748387E+00 -0.1386876E+00
  0.7215620E+01 -0.1349950E+02 -0.1027320E+00  0.3087899E+00  0.2690759E+01  0.2779369E+00 -0.1345447E+00
  0.8504060E+01 -0.1272720E+02 -0.1027320E+00  0.3120896E+00  0.2704255E+01  0.2827165E+00 -0.1321789E+00
  0.9710600E+01 -0.1183240E+02 -0.1027320E+00  0.3122046E+00  0.2720244E+01  0.2848986E+00 -0.1276891E+00
  0.1082360E+02 -0.1082360E+02 -0.1027320E+00  0.3107570E+00  0.2736483E+01  0.2856040E+00 -0.1224754E+00
  0.1183240E+02 -0.9710590E+01 -0.1027320E+00  0.3093686E+00  0.2750526E+01  0.2860123E+00 -0.1179234E+00
  0.1272720E+02 -0.8504060E+01 -0.1027320E+00  0.3054335E+00  0.2765224E+01  0.2840548E+00 -0.1122607E+00
