 VARIABLES="X" "Y" "Z" "abs(eta) (m)" "angle(phi) (rad)" "PRE1" "PRE2"
ZONE N=   3200 ,E =    3136 ,F=FEPOINT,ET=QUADRILATERAL
  0.1672760E+02  0.0000000E+00  0.0000000E+00  0.8505876E-01 -0.1038033E+01 -0.4320263E-01  0.7327022E-01
  0.1664710E+02  0.1639590E+01  0.0000000E+00  0.8085561E-01 -0.1063238E+01 -0.3929948E-01  0.7066244E-01
  0.1640620E+02  0.3263390E+01  0.0000000E+00  0.7648029E-01 -0.1100281E+01 -0.3467201E-01  0.6816954E-01
  0.1600730E+02  0.4855770E+01  0.0000000E+00  0.7185540E-01 -0.1150993E+01 -0.2928687E-01  0.6561613E-01
  0.1545430E+02  0.6401380E+01  0.0000000E+00  0.6680354E-01 -0.1219093E+01 -0.2301364E-01  0.6271432E-01
  0.1475240E+02  0.7885340E+01  0.0000000E+00  0.6210045E-01 -0.1303036E+01 -0.1643003E-01  0.5988756E-01
  0.1390850E+02  0.9293360E+01  0.0000000E+00  0.5783017E-01 -0.1405268E+01 -0.9528900E-02  0.5703972E-01
  0.1293060E+02  0.1061190E+02  0.0000000E+00  0.5390559E-01 -0.1533604E+01 -0.2004389E-02  0.5386831E-01
  0.1182820E+02  0.1182820E+02  0.0000000E+00  0.5001801E-01 -0.1711852E+01  0.7031942E-02  0.4952123E-01
  0.1061190E+02  0.1293060E+02  0.0000000E+00  0.4757071E-01 -0.1934169E+01  0.1690800E-01  0.4446451E-01
  0.9293360E+01  0.1390850E+02  0.0000000E+00  0.4750735E-01 -0.2184052E+01  0.2734204E-01  0.3885050E-01
  0.7885330E+01  0.1475240E+02  0.0000000E+00  0.5071564E-01 -0.2467313E+01  0.3961688E-01  0.3166353E-01
  0.6401380E+01  0.1545430E+02  0.0000000E+00  0.5871836E-01 -0.2749620E+01  0.5426500E-01  0.2243113E-01
  0.4855770E+01  0.1600730E+02  0.0000000E+00  0.7430256E-01 -0.3015966E+01  0.7371701E-01  0.9309845E-02
  0.3263390E+01  0.1640620E+02  0.0000000E+00  0.1011048E+00  0.3045888E+01  0.1006421E+00 -0.9661418E-02
  0.1639590E+01  0.1664710E+02  0.0000000E+00  0.1354360E+00  0.2903684E+01  0.1316212E+00 -0.3191832E-01
 -0.7311870E-06  0.1672760E+02  0.0000000E+00  0.1491084E+00  0.2866689E+01  0.1435096E+00 -0.4047617E-01
 -0.1639590E+01  0.1664710E+02  0.0000000E+00  0.1354361E+00  0.2903684E+01  0.1316213E+00 -0.3191835E-01
 -0.3263390E+01  0.1640620E+02  0.0000000E+00  0.1011051E+00  0.3045889E+01  0.1006424E+00 -0.9661409E-02
 -0.4855770E+01  0.1600730E+02  0.0000000E+00  0.7430241E-01 -0.3015966E+01  0.7371686E-01  0.9309815E-02
 -0.6401380E+01  0.1545430E+02  0.0000000E+00  0.5871827E-01 -0.2749620E+01  0.5426491E-01  0.2243111E-01
 -0.7885340E+01  0.1475240E+02  0.0000000E+00  0.5071576E-01 -0.2467314E+01  0.3961700E-01  0.3166357E-01
 -0.9293360E+01  0.1390850E+02  0.0000000E+00  0.4750731E-01 -0.2184051E+01  0.2734199E-01  0.3885048E-01
 -0.1061190E+02  0.1293060E+02  0.0000000E+00  0.4757076E-01 -0.1934173E+01  0.1690817E-01  0.4446449E-01
 -0.1182820E+02  0.1182820E+02  0.0000000E+00  0.5001796E-01 -0.1711851E+01  0.7031913E-02  0.4952119E-01
 -0.1293060E+02  0.1061190E+02  0.0000000E+00  0.5390551E-01 -0.1533606E+01 -0.2004303E-02  0.5386824E-01
 -0.1390850E+02  0.9293360E+01  0.0000000E+00  0.5783011E-01 -0.1405269E+01 -0.9528797E-02  0.5703967E-01
 -0.1475240E+02  0.7885330E+01  0.0000000E+00  0.6210047E-01 -0.1303034E+01 -0.1643019E-01  0.5988754E-01
 -0.1545430E+02  0.6401370E+01  0.0000000E+00  0.6680353E-01 -0.1219092E+01 -0.2301368E-01  0.6271429E-01
 -0.1600730E+02  0.4855770E+01  0.0000000E+00  0.7185534E-01 -0.1150993E+01 -0.2928685E-01  0.6561608E-01
 -0.1640620E+02  0.3263390E+01  0.0000000E+00  0.7648019E-01 -0.1100281E+01 -0.3467197E-01  0.6816944E-01
 -0.1664710E+02  0.1639590E+01  0.0000000E+00  0.8085556E-01 -0.1063238E+01 -0.3929942E-01  0.7066242E-01
 -0.1672760E+02 -0.1462370E-05  0.0000000E+00  0.8505867E-01 -0.1038033E+01 -0.4320263E-01  0.7327012E-01
 -0.1664710E+02 -0.1639590E+01  0.0000000E+00  0.8922146E-01 -0.1021234E+01 -0.4660162E-01  0.7608389E-01
 -0.1640620E+02 -0.3263400E+01  0.0000000E+00  0.9311442E-01 -0.1012762E+01 -0.4930589E-01  0.7898876E-01
 -0.1600730E+02 -0.4855770E+01  0.0000000E+00  0.9674314E-01 -0.1013394E+01 -0.5117555E-01  0.8209933E-01
 -0.1545430E+02 -0.6401380E+01  0.0000000E+00  0.1001252E+00 -0.1025615E+01 -0.5192222E-01  0.8561044E-01
 -0.1475240E+02 -0.7885340E+01  0.0000000E+00  0.1033717E+00 -0.1042727E+01 -0.5208558E-01  0.8929056E-01
 -0.1390850E+02 -0.9293360E+01  0.0000000E+00  0.1065597E+00 -0.1065289E+01 -0.5160165E-01  0.9323218E-01
 -0.1293060E+02 -0.1061190E+02  0.0000000E+00  0.1096921E+00 -0.1095451E+01 -0.5020008E-01  0.9753107E-01
 -0.1182820E+02 -0.1182820E+02  0.0000000E+00  0.1130206E+00 -0.1142675E+01 -0.4692188E-01  0.1028202E+00
 -0.1061190E+02 -0.1293060E+02  0.0000000E+00  0.1166431E+00 -0.1198964E+01 -0.4237908E-01  0.1086721E+00
 -0.9293350E+01 -0.1390850E+02  0.0000000E+00  0.1206790E+00 -0.1260799E+01 -0.3681388E-01  0.1149267E+00
 -0.7885340E+01 -0.1475240E+02  0.0000000E+00  0.1258645E+00 -0.1338453E+01 -0.2898134E-01  0.1224825E+00
 -0.6401370E+01 -0.1545430E+02  0.0000000E+00  0.1329877E+00 -0.1432520E+01 -0.1833048E-01  0.1317183E+00
 -0.4855760E+01 -0.1600730E+02  0.0000000E+00  0.1443309E+00 -0.1553084E+01 -0.2556319E-02  0.1443083E+00
 -0.3263390E+01 -0.1640620E+02  0.0000000E+00  0.1634135E+00 -0.1698638E+01  0.2083425E-01  0.1620799E+00
 -0.1639590E+01 -0.1664710E+02  0.0000000E+00  0.1891336E+00 -0.1831003E+01  0.4866035E-01  0.1827668E+00
  0.1994750E-06 -0.1672760E+02  0.0000000E+00  0.1997628E+00 -0.1872664E+01  0.5939023E-01  0.1907302E+00
  0.1639600E+01 -0.1664710E+02  0.0000000E+00  0.1891335E+00 -0.1831002E+01  0.4866018E-01  0.1827667E+00
  0.3263390E+01 -0.1640620E+02  0.0000000E+00  0.1634135E+00 -0.1698638E+01  0.2083424E-01  0.1620799E+00
  0.4855770E+01 -0.1600730E+02  0.0000000E+00  0.1443308E+00 -0.1553084E+01 -0.2556365E-02  0.1443082E+00
  0.6401380E+01 -0.1545430E+02  0.0000000E+00  0.1329877E+00 -0.1432520E+01 -0.1833050E-01  0.1317183E+00
  0.7885340E+01 -0.1475240E+02  0.0000000E+00  0.1258645E+00 -0.1338453E+01 -0.2898133E-01  0.1224825E+00
  0.9293360E+01 -0.1390850E+02  0.0000000E+00  0.1206789E+00 -0.1260798E+01 -0.3681392E-01  0.1149267E+00
  0.1061190E+02 -0.1293060E+02  0.0000000E+00  0.1166432E+00 -0.1198965E+01 -0.4237910E-01  0.1086722E+00
  0.1182820E+02 -0.1182820E+02  0.0000000E+00  0.1130207E+00 -0.1142676E+01 -0.4692188E-01  0.1028204E+00
  0.1293060E+02 -0.1061190E+02  0.0000000E+00  0.1096921E+00 -0.1095451E+01 -0.5020009E-01  0.9753109E-01
  0.1390850E+02 -0.9293360E+01  0.0000000E+00  0.1065598E+00 -0.1065290E+01 -0.5160164E-01  0.9323224E-01
  0.1475240E+02 -0.7885330E+01  0.0000000E+00  0.1033718E+00 -0.1042727E+01 -0.5208559E-01  0.8929060E-01
  0.1545430E+02 -0.6401380E+01  0.0000000E+00  0.1001254E+00 -0.1025616E+01 -0.5192222E-01  0.8561057E-01
  0.1600730E+02 -0.4855760E+01  0.0000000E+00  0.9674317E-01 -0.1013393E+01 -0.5117561E-01  0.8209932E-01
  0.1640620E+02 -0.3263390E+01  0.0000000E+00  0.9311442E-01 -0.1012762E+01 -0.4930590E-01  0.7898876E-01
  0.1664710E+02 -0.1639590E+01  0.0000000E+00  0.8922151E-01 -0.1021233E+01 -0.4660172E-01  0.7608388E-01
  0.1672760E+02  0.0000000E+00 -0.2568960E-01  0.8491986E-01 -0.1038064E+01 -0.4312982E-01  0.7315191E-01
  0.1664710E+02  0.1639590E+01 -0.2568960E-01  0.8072388E-01 -0.1063279E+01 -0.3923256E-01  0.7054893E-01
  0.1640620E+02  0.3263390E+01 -0.2568960E-01  0.7635555E-01 -0.1100331E+01 -0.3461209E-01  0.6806008E-01
  0.1600730E+02  0.4855770E+01 -0.2568960E-01  0.7173862E-01 -0.1151048E+01 -0.2923569E-01  0.6551109E-01
  0.1545430E+02  0.6401380E+01 -0.2568960E-01  0.6669701E-01 -0.1219136E+01 -0.2297428E-01  0.6261528E-01
  0.1475240E+02  0.7885340E+01 -0.2568960E-01  0.6200148E-01 -0.1303087E+01 -0.1640084E-01  0.5979294E-01
  0.1390850E+02  0.9293360E+01 -0.2568960E-01  0.5773645E-01 -0.1405360E+01 -0.9508178E-02  0.5694815E-01
  0.1293060E+02  0.1061190E+02 -0.2568960E-01  0.5381677E-01 -0.1533762E+01 -0.1992589E-02  0.5377986E-01
  0.1182820E+02  0.1182820E+02 -0.2568960E-01  0.4993893E-01 -0.1711957E+01  0.7026043E-02  0.4944221E-01
  0.1061190E+02  0.1293060E+02 -0.2568960E-01  0.4749746E-01 -0.1934228E+01  0.1688457E-01  0.4439504E-01
  0.9293360E+01  0.1390850E+02 -0.2568960E-01  0.4743486E-01 -0.2184194E+01  0.2730582E-01  0.3878734E-01
  0.7885330E+01  0.1475240E+02 -0.2568960E-01  0.5063965E-01 -0.2467399E+01  0.3956024E-01  0.3161268E-01
  0.6401380E+01  0.1545430E+02 -0.2568960E-01  0.5863345E-01 -0.2749740E+01  0.5418923E-01  0.2239217E-01
  0.4855770E+01  0.1600730E+02 -0.2568960E-01  0.7419226E-01 -0.3016004E+01  0.7360793E-01  0.9293252E-02
  0.3263390E+01  0.1640620E+02 -0.2568960E-01  0.1009643E+00  0.3045811E+01  0.1005015E+00 -0.9655775E-02
  0.1639590E+01  0.1664710E+02 -0.2568960E-01  0.1352373E+00  0.2903663E+01  0.1314274E+00 -0.3187427E-01
 -0.7311870E-06  0.1672760E+02 -0.2568960E-01  0.1488999E+00  0.2866644E+01  0.1433071E+00 -0.4042597E-01
 -0.1639590E+01  0.1664710E+02 -0.2568960E-01  0.1352371E+00  0.2903663E+01  0.1314272E+00 -0.3187424E-01
 -0.3263390E+01  0.1640620E+02 -0.2568960E-01  0.1009641E+00  0.3045811E+01  0.1005013E+00 -0.9655731E-02
 -0.4855770E+01  0.1600730E+02 -0.2568960E-01  0.7419192E-01 -0.3016003E+01  0.7360758E-01  0.9293277E-02
 -0.6401380E+01  0.1545430E+02 -0.2568960E-01  0.5863349E-01 -0.2749741E+01  0.5418928E-01  0.2239215E-01
 -0.7885340E+01  0.1475240E+02 -0.2568960E-01  0.5063957E-01 -0.2467398E+01  0.3956014E-01  0.3161266E-01
 -0.9293360E+01  0.1390850E+02 -0.2568960E-01  0.4743487E-01 -0.2184194E+01  0.2730584E-01  0.3878734E-01
 -0.1061190E+02  0.1293060E+02 -0.2568960E-01  0.4749741E-01 -0.1934228E+01  0.1688455E-01  0.4439499E-01
 -0.1182820E+02  0.1182820E+02 -0.2568960E-01  0.4993892E-01 -0.1711957E+01  0.7026026E-02  0.4944219E-01
 -0.1293060E+02  0.1061190E+02 -0.2568960E-01  0.5381675E-01 -0.1533763E+01 -0.1992580E-02  0.5377985E-01
 -0.1390850E+02  0.9293360E+01 -0.2568960E-01  0.5773652E-01 -0.1405359E+01 -0.9508292E-02  0.5694820E-01
 -0.1475240E+02  0.7885330E+01 -0.2568960E-01  0.6200159E-01 -0.1303084E+01 -0.1640102E-01  0.5979301E-01
 -0.1545430E+02  0.6401370E+01 -0.2568960E-01  0.6669709E-01 -0.1219135E+01 -0.2297433E-01  0.6261535E-01
 -0.1600730E+02  0.4855770E+01 -0.2568960E-01  0.7173855E-01 -0.1151047E+01 -0.2923569E-01  0.6551102E-01
 -0.1640620E+02  0.3263390E+01 -0.2568960E-01  0.7635551E-01 -0.1100331E+01 -0.3461205E-01  0.6806005E-01
 -0.1664710E+02  0.1639590E+01 -0.2568960E-01  0.8072379E-01 -0.1063279E+01 -0.3923247E-01  0.7054888E-01
 -0.1672760E+02 -0.1462370E-05 -0.2568960E-01  0.8491988E-01 -0.1038065E+01 -0.4312981E-01  0.7315193E-01
 -0.1664710E+02 -0.1639590E+01 -0.2568960E-01  0.8907518E-01 -0.1021266E+01 -0.4652275E-01  0.7596065E-01
 -0.1640620E+02 -0.3263400E+01 -0.2568960E-01  0.9296143E-01 -0.1012797E+01 -0.4922215E-01  0.7886069E-01
 -0.1600730E+02 -0.4855770E+01 -0.2568960E-01  0.9658410E-01 -0.1013425E+01 -0.5108885E-01  0.8196595E-01
 -0.1545430E+02 -0.6401380E+01 -0.2568960E-01  0.9996030E-01 -0.1025627E+01 -0.5183568E-01  0.8547001E-01
 -0.1475240E+02 -0.7885340E+01 -0.2568960E-01  0.1032014E+00 -0.1042743E+01 -0.5199828E-01  0.8914430E-01
 -0.1390850E+02 -0.9293360E+01 -0.2568960E-01  0.1063843E+00 -0.1065332E+01 -0.5151273E-01  0.9308087E-01
 -0.1293060E+02 -0.1061190E+02 -0.2568960E-01  0.1095122E+00 -0.1095527E+01 -0.5011033E-01  0.9737487E-01
 -0.1182820E+02 -0.1182820E+02 -0.2568960E-01  0.1128347E+00 -0.1142720E+01 -0.4684010E-01  0.1026532E+00
 -0.1061190E+02 -0.1293060E+02 -0.2568960E-01  0.1164508E+00 -0.1198993E+01 -0.4230613E-01  0.1084941E+00
 -0.9293350E+01 -0.1390850E+02 -0.2568960E-01  0.1204816E+00 -0.1260866E+01 -0.3674595E-01  0.1147413E+00
 -0.7885340E+01 -0.1475240E+02 -0.2568960E-01  0.1256588E+00 -0.1338514E+01 -0.2892659E-01  0.1222840E+00
 -0.6401370E+01 -0.1545430E+02 -0.2568960E-01  0.1327733E+00 -0.1432613E+01 -0.1828873E-01  0.1315077E+00
 -0.4855760E+01 -0.1600730E+02 -0.2568960E-01  0.1440984E+00 -0.1553159E+01 -0.2541409E-02  0.1440760E+00
 -0.3263390E+01 -0.1640620E+02 -0.2568960E-01  0.1631606E+00 -0.1698763E+01  0.2082227E-01  0.1618265E+00
 -0.1639590E+01 -0.1664710E+02 -0.2568960E-01  0.1888384E+00 -0.1831090E+01  0.4860037E-01  0.1824773E+00
  0.1994750E-06 -0.1672760E+02 -0.2568960E-01  0.1994611E+00 -0.1872781E+01  0.5932279E-01  0.1904351E+00
  0.1639600E+01 -0.1664710E+02 -0.2568960E-01  0.1888383E+00 -0.1831090E+01  0.4860028E-01  0.1824772E+00
  0.3263390E+01 -0.1640620E+02 -0.2568960E-01  0.1631606E+00 -0.1698764E+01  0.2082231E-01  0.1618265E+00
  0.4855770E+01 -0.1600730E+02 -0.2568960E-01  0.1440984E+00 -0.1553158E+01 -0.2541490E-02  0.1440760E+00
  0.6401380E+01 -0.1545430E+02 -0.2568960E-01  0.1327732E+00 -0.1432612E+01 -0.1828881E-01  0.1315076E+00
  0.7885340E+01 -0.1475240E+02 -0.2568960E-01  0.1256587E+00 -0.1338514E+01 -0.2892653E-01  0.1222839E+00
  0.9293360E+01 -0.1390850E+02 -0.2568960E-01  0.1204816E+00 -0.1260866E+01 -0.3674596E-01  0.1147412E+00
  0.1061190E+02 -0.1293060E+02 -0.2568960E-01  0.1164508E+00 -0.1198993E+01 -0.4230611E-01  0.1084942E+00
  0.1182820E+02 -0.1182820E+02 -0.2568960E-01  0.1128347E+00 -0.1142720E+01 -0.4684014E-01  0.1026532E+00
  0.1293060E+02 -0.1061190E+02 -0.2568960E-01  0.1095122E+00 -0.1095527E+01 -0.5011038E-01  0.9737489E-01
  0.1390850E+02 -0.9293360E+01 -0.2568960E-01  0.1063844E+00 -0.1065333E+01 -0.5151272E-01  0.9308103E-01
  0.1475240E+02 -0.7885330E+01 -0.2568960E-01  0.1032015E+00 -0.1042744E+01 -0.5199832E-01  0.8914443E-01
  0.1545430E+02 -0.6401380E+01 -0.2568960E-01  0.9996042E-01 -0.1025627E+01 -0.5183576E-01  0.8547010E-01
  0.1600730E+02 -0.4855760E+01 -0.2568960E-01  0.9658411E-01 -0.1013426E+01 -0.5108881E-01  0.8196599E-01
  0.1640620E+02 -0.3263390E+01 -0.2568960E-01  0.9296159E-01 -0.1012797E+01 -0.4922220E-01  0.7886084E-01
  0.1664710E+02 -0.1639590E+01 -0.2568960E-01  0.8907524E-01 -0.1021267E+01 -0.4652277E-01  0.7596073E-01
  0.1672760E+02  0.0000000E+00 -0.1027320E+00  0.8450752E-01 -0.1038119E+01 -0.4291639E-01  0.7279906E-01
  0.1664710E+02  0.1639590E+01 -0.1027320E+00  0.8033212E-01 -0.1063355E+01 -0.3903678E-01  0.7020953E-01
  0.1640620E+02  0.3263390E+01 -0.1027320E+00  0.7598465E-01 -0.1100430E+01 -0.3443725E-01  0.6773288E-01
  0.1600730E+02  0.4855770E+01 -0.1027320E+00  0.7139050E-01 -0.1151157E+01 -0.2908673E-01  0.6519637E-01
  0.1545430E+02  0.6401380E+01 -0.1027320E+00  0.6637926E-01 -0.1219205E+01 -0.2286050E-01  0.6231857E-01
  0.1475240E+02  0.7885340E+01 -0.1027320E+00  0.6170567E-01 -0.1303176E+01 -0.1631729E-01  0.5950912E-01
  0.1390850E+02  0.9293360E+01 -0.1027320E+00  0.5745566E-01 -0.1405572E+01 -0.9449918E-02  0.5667320E-01
  0.1293060E+02  0.1061190E+02 -0.1027320E+00  0.5355006E-01 -0.1534167E+01 -0.1961071E-02  0.5351414E-01
  0.1182820E+02  0.1182820E+02 -0.1027320E+00  0.4970058E-01 -0.1712217E+01  0.7005263E-02  0.4920441E-01
  0.1061190E+02  0.1293060E+02 -0.1027320E+00  0.4727579E-01 -0.1934355E+01  0.1681141E-01  0.4418571E-01
  0.9293360E+01  0.1390850E+02 -0.1027320E+00  0.4721512E-01 -0.2184590E+01  0.2719463E-01  0.3859689E-01
  0.7885330E+01  0.1475240E+02 -0.1027320E+00  0.5040916E-01 -0.2467651E+01  0.3938809E-01  0.3145889E-01
  0.6401380E+01  0.1545430E+02 -0.1027320E+00  0.5837575E-01 -0.2750102E+01  0.5395911E-01  0.2227427E-01
  0.4855770E+01  0.1600730E+02 -0.1027320E+00  0.7386058E-01 -0.3016135E+01  0.7328007E-01  0.9242116E-02
  0.3263390E+01  0.1640620E+02 -0.1027320E+00  0.1005368E+00  0.3045589E+01  0.1000738E+00 -0.9637071E-02
  0.1639590E+01  0.1664710E+02 -0.1027320E+00  0.1346444E+00  0.2903570E+01  0.1308482E+00 -0.3174663E-01
 -0.7311870E-06  0.1672760E+02 -0.1027320E+00  0.1482733E+00  0.2866496E+01  0.1426980E+00 -0.4027693E-01
 -0.1639590E+01  0.1664710E+02 -0.1027320E+00  0.1346446E+00  0.2903571E+01  0.1308484E+00 -0.3174660E-01
 -0.3263390E+01  0.1640620E+02 -0.1027320E+00  0.1005366E+00  0.3045589E+01  0.1000737E+00 -0.9637024E-02
 -0.4855770E+01  0.1600730E+02 -0.1027320E+00  0.7386017E-01 -0.3016134E+01  0.7327966E-01  0.9242116E-02
 -0.6401380E+01  0.1545430E+02 -0.1027320E+00  0.5837580E-01 -0.2750102E+01  0.5395917E-01  0.2227425E-01
 -0.7885340E+01  0.1475240E+02 -0.1027320E+00  0.5040918E-01 -0.2467650E+01  0.3938809E-01  0.3145891E-01
 -0.9293360E+01  0.1390850E+02 -0.1027320E+00  0.4721507E-01 -0.2184590E+01  0.2719460E-01  0.3859685E-01
 -0.1061190E+02  0.1293060E+02 -0.1027320E+00  0.4727579E-01 -0.1934353E+01  0.1681132E-01  0.4418574E-01
 -0.1182820E+02  0.1182820E+02 -0.1027320E+00  0.4970054E-01 -0.1712214E+01  0.7005128E-02  0.4920438E-01
 -0.1293060E+02  0.1061190E+02 -0.1027320E+00  0.5355005E-01 -0.1534165E+01 -0.1961160E-02  0.5351413E-01
 -0.1390850E+02  0.9293360E+01 -0.1027320E+00  0.5745571E-01 -0.1405573E+01 -0.9449913E-02  0.5667325E-01
 -0.1475240E+02  0.7885330E+01 -0.1027320E+00  0.6170569E-01 -0.1303177E+01 -0.1631721E-01  0.5950917E-01
 -0.1545430E+02  0.6401370E+01 -0.1027320E+00  0.6637929E-01 -0.1219202E+01 -0.2286070E-01  0.6231852E-01
 -0.1600730E+02  0.4855770E+01 -0.1027320E+00  0.7139053E-01 -0.1151156E+01 -0.2908677E-01  0.6519638E-01
 -0.1640620E+02  0.3263390E+01 -0.1027320E+00  0.7598454E-01 -0.1100430E+01 -0.3443719E-01  0.6773279E-01
 -0.1664710E+02  0.1639590E+01 -0.1027320E+00  0.8033203E-01 -0.1063357E+01 -0.3903665E-01  0.7020951E-01
 -0.1672760E+02 -0.1462370E-05 -0.1027320E+00  0.8450757E-01 -0.1038120E+01 -0.4291639E-01  0.7279912E-01
 -0.1664710E+02 -0.1639590E+01 -0.1027320E+00  0.8864096E-01 -0.1021328E+01 -0.4629134E-01  0.7559320E-01
 -0.1640620E+02 -0.3263400E+01 -0.1027320E+00  0.9250741E-01 -0.1012869E+01 -0.4897614E-01  0.7847903E-01
 -0.1600730E+02 -0.4855770E+01 -0.1027320E+00  0.9611197E-01 -0.1013494E+01 -0.5083349E-01  0.8156879E-01
 -0.1545430E+02 -0.6401380E+01 -0.1027320E+00  0.9947108E-01 -0.1025638E+01 -0.5158111E-01  0.8505225E-01
 -0.1475240E+02 -0.7885340E+01 -0.1027320E+00  0.1026960E+00 -0.1042772E+01 -0.5174107E-01  0.8870929E-01
 -0.1390850E+02 -0.9293360E+01 -0.1027320E+00  0.1058638E+00 -0.1065446E+01 -0.5125019E-01  0.9263133E-01
 -0.1293060E+02 -0.1061190E+02 -0.1027320E+00  0.1089776E+00 -0.1095737E+01 -0.4984542E-01  0.9691007E-01
 -0.1182820E+02 -0.1182820E+02 -0.1027320E+00  0.1122823E+00 -0.1142837E+01 -0.4659885E-01  0.1021560E+00
 -0.1061190E+02 -0.1293060E+02 -0.1027320E+00  0.1158792E+00 -0.1199063E+01 -0.4209094E-01  0.1079645E+00
 -0.9293350E+01 -0.1390850E+02 -0.1027320E+00  0.1198946E+00 -0.1261051E+01 -0.3654577E-01  0.1141890E+00
 -0.7885340E+01 -0.1475240E+02 -0.1027320E+00  0.1250466E+00 -0.1338678E+01 -0.2876572E-01  0.1216930E+00
 -0.6401370E+01 -0.1545430E+02 -0.1027320E+00  0.1321349E+00 -0.1432870E+01 -0.1816716E-01  0.1308801E+00
 -0.4855760E+01 -0.1600730E+02 -0.1027320E+00  0.1434056E+00 -0.1553365E+01 -0.2499577E-02  0.1433839E+00
 -0.3263390E+01 -0.1640620E+02 -0.1027320E+00  0.1624030E+00 -0.1699097E+01  0.2077932E-01  0.1610682E+00
 -0.1639590E+01 -0.1664710E+02 -0.1027320E+00  0.1879617E+00 -0.1831349E+01  0.4842163E-01  0.1816176E+00
  0.1994750E-06 -0.1672760E+02 -0.1027320E+00  0.1985603E+00 -0.1873113E+01  0.5911782E-01  0.1895555E+00
  0.1639600E+01 -0.1664710E+02 -0.1027320E+00  0.1879616E+00 -0.1831348E+01  0.4842155E-01  0.1816175E+00
  0.3263390E+01 -0.1640620E+02 -0.1027320E+00  0.1624031E+00 -0.1699097E+01  0.2077929E-01  0.1610682E+00
  0.4855770E+01 -0.1600730E+02 -0.1027320E+00  0.1434058E+00 -0.1553365E+01 -0.2499676E-02  0.1433840E+00
  0.6401380E+01 -0.1545430E+02 -0.1027320E+00  0.1321350E+00 -0.1432869E+01 -0.1816726E-01  0.1308801E+00
  0.7885340E+01 -0.1475240E+02 -0.1027320E+00  0.1250466E+00 -0.1338678E+01 -0.2876570E-01  0.1216930E+00
  0.9293360E+01 -0.1390850E+02 -0.1027320E+00  0.1198946E+00 -0.1261051E+01 -0.3654584E-01  0.1141890E+00
  0.1061190E+02 -0.1293060E+02 -0.1027320E+00  0.1158792E+00 -0.1199063E+01 -0.4209095E-01  0.1079645E+00
  0.1182820E+02 -0.1182820E+02 -0.1027320E+00  0.1122823E+00 -0.1142837E+01 -0.4659887E-01  0.1021561E+00
  0.1293060E+02 -0.1061190E+02 -0.1027320E+00  0.1089777E+00 -0.1095737E+01 -0.4984545E-01  0.9691013E-01
  0.1390850E+02 -0.9293360E+01 -0.1027320E+00  0.1058639E+00 -0.1065446E+01 -0.5125016E-01  0.9263141E-01
