 VARIABLES="X" "Y" "Z" "abs(eta) (m)" "angle(phi) (rad)" "PRE1" "PRE2"
ZONE N=   3200 ,E =    3136 ,F=FEPOINT,ET=QUADRILATERAL
  0.1530690E+02  0.0000000E+00  0.0000000E+00  0.9083183E-01 -0.1484925E+01 -0.7790235E-02  0.9049715E-01
  0.1523320E+02  0.1500340E+01  0.0000000E+00  0.8790243E-01 -0.1490144E+01 -0.7081845E-02  0.8761670E-01
  0.1501280E+02  0.2986230E+01  0.0000000E+00  0.8476581E-01 -0.1499719E+01 -0.6019891E-02  0.8455178E-01
  0.1464780E+02  0.4443360E+01  0.0000000E+00  0.8148599E-01 -0.1513683E+01 -0.4651408E-02  0.8135312E-01
  0.1414170E+02  0.5857700E+01  0.0000000E+00  0.7863897E-01 -0.1529470E+01 -0.3248933E-02  0.7857183E-01
  0.1349950E+02  0.7215620E+01  0.0000000E+00  0.7606883E-01 -0.1547575E+01 -0.1766301E-02  0.7604831E-01
  0.1272720E+02  0.8504060E+01  0.0000000E+00  0.7298484E-01 -0.1571356E+01  0.4087425E-04  0.7298483E-01
  0.1183240E+02  0.9710600E+01  0.0000000E+00  0.6870767E-01 -0.1606683E+01  0.2465179E-02  0.6866343E-01
  0.1082360E+02  0.1082360E+02  0.0000000E+00  0.6412341E-01 -0.1650351E+01  0.5095919E-02  0.6392061E-01
  0.9710590E+01  0.1183240E+02  0.0000000E+00  0.5967762E-01 -0.1701631E+01  0.7785641E-02  0.5916757E-01
  0.8504060E+01  0.1272720E+02  0.0000000E+00  0.5401100E-01 -0.1781069E+01  0.1127355E-01  0.5282135E-01
  0.7215620E+01  0.1349950E+02  0.0000000E+00  0.4825387E-01 -0.1889203E+01  0.1510605E-01  0.4582841E-01
  0.5857700E+01  0.1414170E+02  0.0000000E+00  0.4163150E-01 -0.2076862E+01  0.2018046E-01  0.3641334E-01
  0.4443360E+01  0.1464780E+02  0.0000000E+00  0.3570256E-01 -0.2426273E+01  0.2695128E-01  0.2341584E-01
  0.2986230E+01  0.1501280E+02  0.0000000E+00  0.3953024E-01  0.3122170E+01  0.3952279E-01 -0.7677300E-03
  0.1500340E+01  0.1523320E+02  0.0000000E+00  0.9845722E-01  0.2413267E+01  0.7347762E-01 -0.6553520E-01
 -0.6690860E-06  0.1530690E+02  0.0000000E+00  0.1224825E+00  0.2335043E+01  0.8475705E-01 -0.8842057E-01
 -0.1500340E+01  0.1523320E+02  0.0000000E+00  0.1243948E+00  0.2315608E+01  0.8431894E-01 -0.9145700E-01
 -0.2986230E+01  0.1501280E+02  0.0000000E+00  0.9275660E-01  0.2348755E+01  0.6509906E-01 -0.6607495E-01
 -0.4443360E+01  0.1464780E+02  0.0000000E+00  0.7622047E-01  0.2383030E+01  0.5532278E-01 -0.5243043E-01
 -0.5857700E+01  0.1414170E+02  0.0000000E+00  0.6733674E-01  0.2407467E+01  0.4999193E-01 -0.4511146E-01
 -0.7215620E+01  0.1349950E+02  0.0000000E+00  0.6016465E-01  0.2435264E+01  0.4577024E-01 -0.3904959E-01
 -0.8504060E+01  0.1272720E+02  0.0000000E+00  0.5463971E-01  0.2461838E+01  0.4249478E-01 -0.3434663E-01
 -0.9710590E+01  0.1183240E+02  0.0000000E+00  0.5007023E-01  0.2487954E+01  0.3974957E-01 -0.3044667E-01
 -0.1082360E+02  0.1082360E+02  0.0000000E+00  0.4594574E-01  0.2519495E+01  0.3733815E-01 -0.2677448E-01
 -0.1183240E+02  0.9710590E+01  0.0000000E+00  0.4202989E-01  0.2554985E+01  0.3500347E-01 -0.2326519E-01
 -0.1272720E+02  0.8504060E+01  0.0000000E+00  0.3846889E-01  0.2590524E+01  0.3277416E-01 -0.2014224E-01
 -0.1349950E+02  0.7215620E+01  0.0000000E+00  0.3511741E-01  0.2632880E+01  0.3067056E-01 -0.1710406E-01
 -0.1414170E+02  0.5857690E+01  0.0000000E+00  0.3198525E-01  0.2682963E+01  0.2867990E-01 -0.1416049E-01
 -0.1464780E+02  0.4443360E+01  0.0000000E+00  0.2915359E-01  0.2737553E+01  0.2680615E-01 -0.1146134E-01
 -0.1501280E+02  0.2986230E+01  0.0000000E+00  0.2645078E-01  0.2804333E+01  0.2496068E-01 -0.8752632E-02
 -0.1523320E+02  0.1500340E+01  0.0000000E+00  0.2403137E-01  0.2887096E+01  0.2325732E-01 -0.6050092E-02
 -0.1530690E+02 -0.1338170E-05  0.0000000E+00  0.2195704E-01  0.2990295E+01  0.2170621E-01 -0.3309397E-02
 -0.1523320E+02 -0.1500340E+01  0.0000000E+00  0.2031174E-01  0.3119433E+01  0.2030676E-01 -0.4500649E-03
 -0.1501280E+02 -0.2986230E+01  0.0000000E+00  0.1925289E-01 -0.3006982E+01  0.1907872E-01  0.2583816E-02
 -0.1464780E+02 -0.4443360E+01  0.0000000E+00  0.1889567E-01 -0.2832748E+01  0.1800163E-01  0.5743488E-02
 -0.1414170E+02 -0.5857700E+01  0.0000000E+00  0.1889083E-01 -0.2675287E+01  0.1687396E-01  0.8493113E-02
 -0.1349950E+02 -0.7215620E+01  0.0000000E+00  0.1922215E-01 -0.2533044E+01  0.1577136E-01  0.1098887E-01
 -0.1272720E+02 -0.8504060E+01  0.0000000E+00  0.2043281E-01 -0.2385325E+01  0.1486287E-01  0.1402123E-01
 -0.1183240E+02 -0.9710600E+01  0.0000000E+00  0.2327545E-01 -0.2236983E+01  0.1438405E-01  0.1829879E-01
 -0.1082360E+02 -0.1082360E+02  0.0000000E+00  0.2696720E-01 -0.2120541E+01  0.1408954E-01  0.2299380E-01
 -0.9710600E+01 -0.1183240E+02  0.0000000E+00  0.3096746E-01 -0.2035210E+01  0.1387028E-01  0.2768752E-01
 -0.8504050E+01 -0.1272720E+02  0.0000000E+00  0.3682849E-01 -0.1969206E+01  0.1428773E-01  0.3394405E-01
 -0.7215620E+01 -0.1349950E+02  0.0000000E+00  0.4352147E-01 -0.1925057E+01  0.1509748E-01  0.4081892E-01
 -0.5857690E+01 -0.1414170E+02  0.0000000E+00  0.5287962E-01 -0.1898843E+01  0.1703754E-01  0.5005973E-01
 -0.4443360E+01 -0.1464780E+02  0.0000000E+00  0.6604912E-01 -0.1885214E+01  0.2042653E-01  0.6281117E-01
 -0.2986230E+01 -0.1501280E+02  0.0000000E+00  0.9123373E-01 -0.1892739E+01  0.2886729E-01  0.8654636E-01
 -0.1500340E+01 -0.1523320E+02  0.0000000E+00  0.1599434E+00 -0.1918323E+01  0.5447248E-01  0.1503816E+00
  0.1825330E-06 -0.1530690E+02  0.0000000E+00  0.1833204E+00 -0.1906588E+01  0.6040716E-01  0.1730819E+00
  0.1500340E+01 -0.1523320E+02  0.0000000E+00  0.1848921E+00 -0.1875985E+01  0.5555512E-01  0.1763482E+00
  0.2986230E+01 -0.1501280E+02  0.0000000E+00  0.1552664E+00 -0.1777866E+01  0.3192174E-01  0.1519495E+00
  0.4443360E+01 -0.1464780E+02  0.0000000E+00  0.1402601E+00 -0.1716328E+01  0.2034029E-01  0.1387774E+00
  0.5857700E+01 -0.1414170E+02  0.0000000E+00  0.1324286E+00 -0.1674114E+01  0.1365792E-01  0.1317224E+00
  0.7215620E+01 -0.1349950E+02  0.0000000E+00  0.1261349E+00 -0.1638201E+01  0.8495711E-02  0.1258485E+00
  0.8504060E+01 -0.1272720E+02  0.0000000E+00  0.1213592E+00 -0.1608556E+01  0.4581447E-02  0.1212727E+00
  0.9710600E+01 -0.1183240E+02  0.0000000E+00  0.1174730E+00 -0.1582717E+01  0.1400269E-02  0.1174646E+00
  0.1082360E+02 -0.1082360E+02  0.0000000E+00  0.1138536E+00 -0.1561372E+01 -0.1073004E-02  0.1138486E+00
  0.1183240E+02 -0.9710590E+01  0.0000000E+00  0.1104274E+00 -0.1541518E+01 -0.3232700E-02  0.1103801E+00
  0.1272720E+02 -0.8504060E+01  0.0000000E+00  0.1074098E+00 -0.1524053E+01 -0.5018894E-02  0.1072925E+00
  0.1349950E+02 -0.7215620E+01  0.0000000E+00  0.1044653E+00 -0.1510422E+01 -0.6303207E-02  0.1042750E+00
  0.1414170E+02 -0.5857700E+01  0.0000000E+00  0.1015976E+00 -0.1500049E+01 -0.7181727E-02  0.1013435E+00
  0.1464780E+02 -0.4443350E+01  0.0000000E+00  0.9895707E-01 -0.1492275E+01 -0.7762209E-02  0.9865216E-01
  0.1501280E+02 -0.2986230E+01  0.0000000E+00  0.9629673E-01 -0.1486225E+01 -0.8134274E-02  0.9595256E-01
  0.1523320E+02 -0.1500330E+01  0.0000000E+00  0.9360433E-01 -0.1483664E+01 -0.8145667E-02  0.9324922E-01
  0.1530690E+02  0.0000000E+00 -0.2568960E-01  0.9075240E-01 -0.1484953E+01 -0.7780922E-02  0.9041823E-01
  0.1523320E+02  0.1500340E+01 -0.2568960E-01  0.8782649E-01 -0.1490166E+01 -0.7073840E-02  0.8754115E-01
  0.1501280E+02  0.2986230E+01 -0.2568960E-01  0.8469386E-01 -0.1499737E+01 -0.6013225E-02  0.8448012E-01
  0.1464780E+02  0.4443360E+01 -0.2568960E-01  0.8141825E-01 -0.1513687E+01 -0.4647245E-02  0.8128551E-01
  0.1414170E+02  0.5857700E+01 -0.2568960E-01  0.7857175E-01 -0.1529480E+01 -0.3245396E-02  0.7850470E-01
  0.1349950E+02  0.7215620E+01 -0.2568960E-01  0.7599883E-01 -0.1547602E+01 -0.1762604E-02  0.7597838E-01
  0.1272720E+02  0.8504060E+01 -0.2568960E-01  0.7291546E-01 -0.1571397E+01  0.4383200E-04  0.7291545E-01
  0.1183240E+02  0.9710600E+01 -0.2568960E-01  0.6864662E-01 -0.1606698E+01  0.2463989E-02  0.6860239E-01
  0.1082360E+02  0.1082360E+02 -0.2568960E-01  0.6406892E-01 -0.1650355E+01  0.5091888E-02  0.6386626E-01
  0.9710590E+01  0.1183240E+02 -0.2568960E-01  0.5962332E-01 -0.1701681E+01  0.7781526E-02  0.5911335E-01
  0.8504060E+01  0.1272720E+02 -0.2568960E-01  0.5396745E-01 -0.1781063E+01  0.1126411E-01  0.5277884E-01
  0.7215620E+01  0.1349950E+02 -0.2568960E-01  0.4821362E-01 -0.1889232E+01  0.1509476E-01  0.4578975E-01
  0.5857700E+01  0.1414170E+02 -0.2568960E-01  0.4159769E-01 -0.2076876E+01  0.2016457E-01  0.3638349E-01
  0.4443360E+01  0.1464780E+02 -0.2568960E-01  0.3567448E-01 -0.2426307E+01  0.2693087E-01  0.2339651E-01
  0.2986230E+01  0.1501280E+02 -0.2568960E-01  0.3950315E-01  0.3122020E+01  0.3949558E-01 -0.7731249E-03
  0.1500340E+01  0.1523320E+02 -0.2568960E-01  0.9842000E-01  0.2413139E+01  0.7344145E-01 -0.6551985E-01
 -0.6690860E-06  0.1530690E+02 -0.2568960E-01  0.1223965E+00  0.2335028E+01  0.8469624E-01 -0.8835982E-01
 -0.1500340E+01  0.1523320E+02 -0.2568960E-01  0.1243390E+00  0.2315543E+01  0.8427519E-01 -0.9142138E-01
 -0.2986230E+01  0.1501280E+02 -0.2568960E-01  0.9269260E-01  0.2348736E+01  0.6505289E-01 -0.6603060E-01
 -0.4443360E+01  0.1464780E+02 -0.2568960E-01  0.7616342E-01  0.2383018E+01  0.5528069E-01 -0.5239190E-01
 -0.5857700E+01  0.1414170E+02 -0.2568960E-01  0.6727872E-01  0.2407495E+01  0.4995012E-01 -0.4507120E-01
 -0.7215620E+01  0.1349950E+02 -0.2568960E-01  0.6011630E-01  0.2435266E+01  0.4573354E-01 -0.3901811E-01
 -0.8504060E+01  0.1272720E+02 -0.2568960E-01  0.5459466E-01  0.2461845E+01  0.4245999E-01 -0.3431802E-01
 -0.9710590E+01  0.1183240E+02 -0.2568960E-01  0.5002728E-01  0.2487976E+01  0.3971614E-01 -0.3041968E-01
 -0.1082360E+02  0.1082360E+02 -0.2568960E-01  0.4590544E-01  0.2519509E+01  0.3730580E-01 -0.2675046E-01
 -0.1183240E+02  0.9710590E+01 -0.2568960E-01  0.4199351E-01  0.2554991E+01  0.3497330E-01 -0.2324484E-01
 -0.1272720E+02  0.8504060E+01 -0.2568960E-01  0.3843553E-01  0.2590554E+01  0.3274634E-01 -0.2012379E-01
 -0.1349950E+02  0.7215620E+01 -0.2568960E-01  0.3508735E-01  0.2632904E+01  0.3064473E-01 -0.1708868E-01
 -0.1414170E+02  0.5857690E+01 -0.2568960E-01  0.3195907E-01  0.2682951E+01  0.2865625E-01 -0.1414927E-01
 -0.1464780E+02  0.4443360E+01 -0.2568960E-01  0.2912976E-01  0.2737524E+01  0.2678391E-01 -0.1145275E-01
 -0.1501280E+02  0.2986230E+01 -0.2568960E-01  0.2643009E-01  0.2804279E+01  0.2494068E-01 -0.8747136E-02
 -0.1523320E+02  0.1500340E+01 -0.2568960E-01  0.2401316E-01  0.2887013E+01  0.2323920E-01 -0.6047434E-02
 -0.1530690E+02 -0.1338170E-05 -0.2568960E-01  0.2194032E-01  0.2990168E+01  0.2168926E-01 -0.3309634E-02
 -0.1523320E+02 -0.1500340E+01 -0.2568960E-01  0.2029548E-01  0.3119241E+01  0.2029041E-01 -0.4535911E-03
 -0.1501280E+02 -0.2986230E+01 -0.2568960E-01  0.1923627E-01 -0.3007258E+01  0.1906296E-01  0.2576324E-02
 -0.1464780E+02 -0.4443360E+01 -0.2568960E-01  0.1887742E-01 -0.2833079E+01  0.1798614E-01  0.5732000E-02
 -0.1414170E+02 -0.5857700E+01 -0.2568960E-01  0.1887287E-01 -0.2675509E+01  0.1685980E-01  0.8481290E-02
 -0.1349950E+02 -0.7215620E+01 -0.2568960E-01  0.1920679E-01 -0.2533070E+01  0.1575905E-01  0.1097968E-01
 -0.1272720E+02 -0.8504060E+01 -0.2568960E-01  0.2041836E-01 -0.2385297E+01  0.1485196E-01  0.1401173E-01
 -0.1183240E+02 -0.9710600E+01 -0.2568960E-01  0.2325418E-01 -0.2237067E+01  0.1437244E-01  0.1828086E-01
 -0.1082360E+02 -0.1082360E+02 -0.2568960E-01  0.2693993E-01 -0.2120647E+01  0.1407772E-01  0.2296905E-01
 -0.9710600E+01 -0.1183240E+02 -0.2568960E-01  0.3094105E-01 -0.2035290E+01  0.1386065E-01  0.2766281E-01
 -0.8504050E+01 -0.1272720E+02 -0.2568960E-01  0.3679075E-01 -0.1969308E+01  0.1427654E-01  0.3390782E-01
 -0.7215620E+01 -0.1349950E+02 -0.2568960E-01  0.4348012E-01 -0.1925152E+01  0.1508699E-01  0.4077872E-01
 -0.5857690E+01 -0.1414170E+02 -0.2568960E-01  0.5282928E-01 -0.1898914E+01  0.1702486E-01  0.5001087E-01
 -0.4443360E+01 -0.1464780E+02 -0.2568960E-01  0.6598908E-01 -0.1885300E+01  0.2041333E-01  0.6275232E-01
 -0.2986230E+01 -0.1501280E+02 -0.2568960E-01  0.9115943E-01 -0.1892820E+01  0.2885080E-01  0.8647353E-01
 -0.1500340E+01 -0.1523320E+02 -0.2568960E-01  0.1598485E+00 -0.1918404E+01  0.5445233E-01  0.1502880E+00
  0.1825330E-06 -0.1530690E+02 -0.2568960E-01  0.1831770E+00 -0.1906635E+01  0.6036792E-01  0.1729437E+00
  0.1500340E+01 -0.1523320E+02 -0.2568960E-01  0.1847775E+00 -0.1876070E+01  0.5553559E-01  0.1762343E+00
  0.2986230E+01 -0.1501280E+02 -0.2568960E-01  0.1551427E+00 -0.1777922E+01  0.3190472E-01  0.1518267E+00
  0.4443360E+01 -0.1464780E+02 -0.2568960E-01  0.1401425E+00 -0.1716370E+01  0.2032913E-01  0.1386601E+00
  0.5857700E+01 -0.1414170E+02 -0.2568960E-01  0.1323094E+00 -0.1674140E+01  0.1364908E-01  0.1316035E+00
  0.7215620E+01 -0.1349950E+02 -0.2568960E-01  0.1260245E+00 -0.1638234E+01  0.8492296E-02  0.1257380E+00
  0.8504060E+01 -0.1272720E+02 -0.2568960E-01  0.1212516E+00 -0.1608579E+01  0.4580085E-02  0.1211650E+00
  0.9710600E+01 -0.1183240E+02 -0.2568960E-01  0.1173670E+00 -0.1582743E+01  0.1402079E-02  0.1173586E+00
  0.1082360E+02 -0.1082360E+02 -0.2568960E-01  0.1137504E+00 -0.1561383E+01 -0.1070723E-02  0.1137453E+00
  0.1183240E+02 -0.9710590E+01 -0.2568960E-01  0.1103280E+00 -0.1541533E+01 -0.3228121E-02  0.1102807E+00
  0.1272720E+02 -0.8504060E+01 -0.2568960E-01  0.1073119E+00 -0.1524076E+01 -0.5011810E-02  0.1071948E+00
  0.1349950E+02 -0.7215620E+01 -0.2568960E-01  0.1043706E+00 -0.1510444E+01 -0.6295213E-02  0.1041805E+00
  0.1414170E+02 -0.5857700E+01 -0.2568960E-01  0.1015069E+00 -0.1500066E+01 -0.7173597E-02  0.1012531E+00
  0.1464780E+02 -0.4443350E+01 -0.2568960E-01  0.9886903E-01 -0.1492295E+01 -0.7753369E-02  0.9856454E-01
  0.1501280E+02 -0.2986230E+01 -0.2568960E-01  0.9621145E-01 -0.1486248E+01 -0.8124859E-02  0.9586777E-01
  0.1523320E+02 -0.1500330E+01 -0.2568960E-01  0.9352190E-01 -0.1483690E+01 -0.8136069E-02  0.9316733E-01
  0.1530690E+02  0.0000000E+00 -0.1027320E+00  0.9051865E-01 -0.1485016E+01 -0.7755232E-02  0.9018581E-01
  0.1523320E+02  0.1500340E+01 -0.1027320E+00  0.8760259E-01 -0.1490219E+01 -0.7051189E-02  0.8731835E-01
  0.1501280E+02  0.2986230E+01 -0.1027320E+00  0.8448208E-01 -0.1499762E+01 -0.5996050E-02  0.8426903E-01
  0.1464780E+02  0.4443360E+01 -0.1027320E+00  0.8121879E-01 -0.1513679E+01 -0.4636481E-02  0.8108634E-01
  0.1414170E+02  0.5857700E+01 -0.1027320E+00  0.7837276E-01 -0.1529485E+01 -0.3236746E-02  0.7830589E-01
  0.1349950E+02  0.7215620E+01 -0.1027320E+00  0.7579160E-01 -0.1547661E+01 -0.1753314E-02  0.7577132E-01
  0.1272720E+02  0.8504060E+01 -0.1027320E+00  0.7270872E-01 -0.1571505E+01  0.5153801E-04  0.7270870E-01
  0.1183240E+02  0.9710600E+01 -0.1027320E+00  0.6846473E-01 -0.1606724E+01  0.2459249E-02  0.6842055E-01
  0.1082360E+02  0.1082360E+02 -0.1027320E+00  0.6390607E-01 -0.1650337E+01  0.5077754E-02  0.6370402E-01
  0.9710590E+01  0.1183240E+02 -0.1027320E+00  0.5946054E-01 -0.1701813E+01  0.7768068E-02  0.5895093E-01
  0.8504060E+01  0.1272720E+02 -0.1027320E+00  0.5383574E-01 -0.1781027E+01  0.1123475E-01  0.5265042E-01
  0.7215620E+01  0.1349950E+02 -0.1027320E+00  0.4808604E-01 -0.1889435E+01  0.1506409E-01  0.4566552E-01
  0.5857700E+01  0.1414170E+02 -0.1027320E+00  0.4149467E-01 -0.2076921E+01  0.2011626E-01  0.3629247E-01
  0.4443360E+01  0.1464780E+02 -0.1027320E+00  0.3558900E-01 -0.2426347E+01  0.2686729E-01  0.2333936E-01
  0.2986230E+01  0.1501280E+02 -0.1027320E+00  0.3942129E-01  0.3121500E+01  0.3941334E-01 -0.7920097E-03
  0.1500340E+01  0.1523320E+02 -0.1027320E+00  0.9818116E-01  0.2413191E+01  0.7326666E-01 -0.6535698E-01
 -0.6690860E-06  0.1530690E+02 -0.1027320E+00  0.1221289E+00  0.2334991E+01  0.8450785E-01 -0.8816969E-01
 -0.1500340E+01  0.1523320E+02 -0.1027320E+00  0.1240728E+00  0.2315474E+01  0.8408841E-01 -0.9123154E-01
 -0.2986230E+01  0.1501280E+02 -0.1027320E+00  0.9249354E-01  0.2348688E+01  0.6491005E-01 -0.6589188E-01
 -0.4443360E+01  0.1464780E+02 -0.1027320E+00  0.7599167E-01  0.2382971E+01  0.5515359E-01 -0.5227633E-01
 -0.5857700E+01  0.1414170E+02 -0.1027320E+00  0.6710844E-01  0.2407536E+01  0.4982553E-01 -0.4495509E-01
 -0.7215620E+01  0.1349950E+02 -0.1027320E+00  0.5997192E-01  0.2435240E+01  0.4562271E-01 -0.3892556E-01
 -0.8504060E+01  0.1272720E+02 -0.1027320E+00  0.5446095E-01  0.2461802E+01  0.4235450E-01 -0.3423582E-01
 -0.9710590E+01  0.1183240E+02 -0.1027320E+00  0.4990095E-01  0.2487977E+01  0.3961590E-01 -0.3034280E-01
 -0.1082360E+02  0.1082360E+02 -0.1027320E+00  0.4578670E-01  0.2519473E+01  0.3720833E-01 -0.2668263E-01
 -0.1183240E+02  0.9710590E+01 -0.1027320E+00  0.4188597E-01  0.2554921E+01  0.3488212E-01 -0.2318776E-01
 -0.1272720E+02  0.8504060E+01 -0.1027320E+00  0.3833648E-01  0.2590526E+01  0.3266140E-01 -0.2007283E-01
 -0.1349950E+02  0.7215620E+01 -0.1027320E+00  0.3499852E-01  0.2632844E+01  0.3056613E-01 -0.1704725E-01
 -0.1414170E+02  0.5857690E+01 -0.1027320E+00  0.3188097E-01  0.2682769E+01  0.2858365E-01 -0.1411990E-01
 -0.1464780E+02  0.4443360E+01 -0.1027320E+00  0.2905953E-01  0.2737282E+01  0.2671657E-01 -0.1143158E-01
 -0.1501280E+02  0.2986230E+01 -0.1027320E+00  0.2636841E-01  0.2803964E+01  0.2487973E-01 -0.8734548E-02
 -0.1523320E+02  0.1500340E+01 -0.1027320E+00  0.2395798E-01  0.2886592E+01  0.2318325E-01 -0.6043298E-02
 -0.1530690E+02 -0.1338170E-05 -0.1027320E+00  0.2188967E-01  0.2989608E+01  0.2163734E-01 -0.3314096E-02
 -0.1523320E+02 -0.1500340E+01 -0.1027320E+00  0.2024680E-01  0.3118491E+01  0.2024140E-01 -0.4676935E-03
 -0.1501280E+02 -0.2986230E+01 -0.1027320E+00  0.1918560E-01 -0.3008240E+01  0.1901526E-01  0.2550876E-02
 -0.1464780E+02 -0.4443360E+01 -0.1027320E+00  0.1882111E-01 -0.2834190E+01  0.1793882E-01  0.5694971E-02
 -0.1414170E+02 -0.5857700E+01 -0.1027320E+00  0.1881702E-01 -0.2676252E+01  0.1681619E-01  0.8443704E-02
 -0.1349950E+02 -0.7215620E+01 -0.1027320E+00  0.1915895E-01 -0.2533188E+01  0.1572108E-01  0.1095048E-01
 -0.1272720E+02 -0.8504060E+01 -0.1027320E+00  0.2037354E-01 -0.2385221E+01  0.1481831E-01  0.1398209E-01
 -0.1183240E+02 -0.9710600E+01 -0.1027320E+00  0.2318928E-01 -0.2237306E+01  0.1433668E-01  0.1822642E-01
 -0.1082360E+02 -0.1082360E+02 -0.1027320E+00  0.2685785E-01 -0.2120924E+01  0.1404118E-01  0.2289518E-01
 -0.9710600E+01 -0.1183240E+02 -0.1027320E+00  0.3086191E-01 -0.2035503E+01  0.1383110E-01  0.2758909E-01
 -0.8504050E+01 -0.1272720E+02 -0.1027320E+00  0.3667835E-01 -0.1969586E+01  0.1424233E-01  0.3380026E-01
 -0.7215620E+01 -0.1349950E+02 -0.1027320E+00  0.4336544E-01 -0.1925420E+01  0.1505809E-01  0.4066713E-01
 -0.5857690E+01 -0.1414170E+02 -0.1027320E+00  0.5268035E-01 -0.1899121E+01  0.1698717E-01  0.4986637E-01
 -0.4443360E+01 -0.1464780E+02 -0.1027320E+00  0.6580660E-01 -0.1885538E+01  0.2037184E-01  0.6257393E-01
 -0.2986230E+01 -0.1501280E+02 -0.1027320E+00  0.9093852E-01 -0.1893035E+01  0.2879939E-01  0.8625782E-01
 -0.1500340E+01 -0.1523320E+02 -0.1027320E+00  0.1594367E+00 -0.1918548E+01  0.5433356E-01  0.1498930E+00
  0.1825330E-06 -0.1530690E+02 -0.1027320E+00  0.1827379E+00 -0.1906757E+01  0.6024434E-01  0.1725218E+00
  0.1500340E+01 -0.1523320E+02 -0.1027320E+00  0.1843405E+00 -0.1876168E+01  0.5542157E-01  0.1758120E+00
  0.2986230E+01 -0.1501280E+02 -0.1027320E+00  0.1547658E+00 -0.1778065E+01  0.3184895E-01  0.1514532E+00
  0.4443360E+01 -0.1464780E+02 -0.1027320E+00  0.1397901E+00 -0.1716481E+01  0.2029338E-01  0.1383093E+00
  0.5857700E+01 -0.1414170E+02 -0.1027320E+00  0.1319566E+00 -0.1674217E+01  0.1362268E-01  0.1312515E+00
  0.7215620E+01 -0.1349950E+02 -0.1027320E+00  0.1256956E+00 -0.1638327E+01  0.8481816E-02  0.1254091E+00
  0.8504060E+01 -0.1272720E+02 -0.1027320E+00  0.1209331E+00 -0.1608642E+01  0.4575720E-02  0.1208465E+00
  0.9710600E+01 -0.1183240E+02 -0.1027320E+00  0.1170536E+00 -0.1582811E+01  0.1406374E-02  0.1170451E+00
  0.1082360E+02 -0.1082360E+02 -0.1027320E+00  0.1134459E+00 -0.1561412E+01 -0.1064564E-02  0.1134410E+00
  0.1183240E+02 -0.9710590E+01 -0.1027320E+00  0.1100340E+00 -0.1541569E+01 -0.3215563E-02  0.1099870E+00
  0.1272720E+02 -0.8504060E+01 -0.1027320E+00  0.1070237E+00 -0.1524129E+01 -0.4992726E-02  0.1069072E+00
