 VARIABLES="X" "Y" "Z" "abs(eta) (m)" "angle(phi) (rad)" "PRE1" "PRE2"
ZONE N=   3200 ,E =    3136 ,F=FEPOINT,ET=QUADRILATERAL
  0.1530690E+02  0.0000000E+00  0.0000000E+00  0.4882168E+00  0.2406171E+01  0.3620363E+00 -0.3275444E+00
  0.1523320E+02  0.1500340E+01  0.0000000E+00  0.4920343E+00  0.2408692E+01  0.3656980E+00 -0.3291850E+00
  0.1501280E+02  0.2986230E+01  0.0000000E+00  0.4960231E+00  0.2407192E+01  0.3681643E+00 -0.3324063E+00
  0.1464780E+02  0.4443360E+01  0.0000000E+00  0.5000268E+00  0.2402006E+01  0.3693933E+00 -0.3370094E+00
  0.1414170E+02  0.5857700E+01  0.0000000E+00  0.5027032E+00  0.2394525E+01  0.3688254E+00 -0.3415820E+00
  0.1349950E+02  0.7215620E+01  0.0000000E+00  0.5004260E+00  0.2387852E+01  0.3648776E+00 -0.3424771E+00
  0.1272720E+02  0.8504060E+01  0.0000000E+00  0.4945450E+00  0.2380273E+01  0.3580142E+00 -0.3411754E+00
  0.1183240E+02  0.9710600E+01  0.0000000E+00  0.4874631E+00  0.2370354E+01  0.3495343E+00 -0.3397736E+00
  0.1082360E+02  0.1082360E+02  0.0000000E+00  0.4807170E+00  0.2357701E+01  0.3404298E+00 -0.3394059E+00
  0.9710590E+01  0.1183240E+02  0.0000000E+00  0.4713104E+00  0.2344194E+01  0.3292436E+00 -0.3372420E+00
  0.8504060E+01  0.1272720E+02  0.0000000E+00  0.4571081E+00  0.2330672E+01  0.3148703E+00 -0.3313676E+00
  0.7215620E+01  0.1349950E+02  0.0000000E+00  0.4460344E+00  0.2312612E+01  0.3013531E+00 -0.3288358E+00
  0.5857700E+01  0.1414170E+02  0.0000000E+00  0.4247253E+00  0.2298362E+01  0.2824651E+00 -0.3171830E+00
  0.4443360E+01  0.1464780E+02  0.0000000E+00  0.3967263E+00  0.2286213E+01  0.2602255E+00 -0.2994570E+00
  0.2986230E+01  0.1501280E+02  0.0000000E+00  0.3493865E+00  0.2280839E+01  0.2277532E+00 -0.2649516E+00
  0.1500340E+01  0.1523320E+02  0.0000000E+00  0.1777507E+00  0.2376349E+01  0.1281962E+00 -0.1231302E+00
 -0.6690860E-06  0.1530690E+02  0.0000000E+00  0.5161677E-01  0.2909021E+01  0.5022708E-01 -0.1189669E-01
 -0.1500340E+01  0.1523320E+02  0.0000000E+00  0.1192511E+00 -0.1317931E+01 -0.2983416E-01  0.1154588E+00
 -0.2986230E+01  0.1501280E+02  0.0000000E+00  0.3561963E+00 -0.1170643E+01 -0.1387596E+00  0.3280573E+00
 -0.4443360E+01  0.1464780E+02  0.0000000E+00  0.4308085E+00 -0.1136610E+01 -0.1812294E+00  0.3908348E+00
 -0.5857700E+01  0.1414170E+02  0.0000000E+00  0.4729193E+00 -0.1106323E+01 -0.2118452E+00  0.4228171E+00
 -0.7215620E+01  0.1349950E+02  0.0000000E+00  0.5046691E+00 -0.1079090E+01 -0.2382698E+00  0.4448803E+00
 -0.8504060E+01  0.1272720E+02  0.0000000E+00  0.5237110E+00 -0.1053935E+01 -0.2587937E+00  0.4553011E+00
 -0.9710590E+01  0.1183240E+02  0.0000000E+00  0.5452546E+00 -0.1032331E+01 -0.2796171E+00  0.4680992E+00
 -0.1082360E+02  0.1082360E+02  0.0000000E+00  0.5606230E+00 -0.1012249E+01 -0.2971047E+00  0.4754230E+00
 -0.1183240E+02  0.9710590E+01  0.0000000E+00  0.5728419E+00 -0.9946615E+00 -0.3120767E+00  0.4803706E+00
 -0.1272720E+02  0.8504060E+01  0.0000000E+00  0.5856239E+00 -0.9805401E+00 -0.3259430E+00  0.4865352E+00
 -0.1349950E+02  0.7215620E+01  0.0000000E+00  0.5967827E+00 -0.9693168E+00 -0.3376972E+00  0.4920470E+00
 -0.1414170E+02  0.5857690E+01  0.0000000E+00  0.6036961E+00 -0.9601350E+00 -0.3461650E+00  0.4945895E+00
 -0.1464780E+02  0.4443360E+01  0.0000000E+00  0.6051000E+00 -0.9520305E+00 -0.3509763E+00  0.4929114E+00
 -0.1501280E+02  0.2986230E+01  0.0000000E+00  0.6051508E+00 -0.9467379E+00 -0.3536098E+00  0.4910881E+00
 -0.1523320E+02  0.1500340E+01  0.0000000E+00  0.6054677E+00 -0.9452070E+00 -0.3545468E+00  0.4908031E+00
 -0.1530690E+02 -0.1338170E-05  0.0000000E+00  0.6062613E+00 -0.9476900E+00 -0.3537902E+00  0.4923264E+00
 -0.1523320E+02 -0.1500340E+01  0.0000000E+00  0.6062676E+00 -0.9535840E+00 -0.3508859E+00  0.4944082E+00
 -0.1501280E+02 -0.2986230E+01  0.0000000E+00  0.6063230E+00 -0.9637564E+00 -0.3458701E+00  0.4979974E+00
 -0.1464780E+02 -0.4443360E+01  0.0000000E+00  0.6062851E+00 -0.9781283E+00 -0.3386563E+00  0.5028852E+00
 -0.1414170E+02 -0.5857700E+01  0.0000000E+00  0.6049218E+00 -0.9958500E+00 -0.3289503E+00  0.5076633E+00
 -0.1349950E+02 -0.7215620E+01  0.0000000E+00  0.5988868E+00 -0.1014810E+01 -0.3160812E+00  0.5086827E+00
 -0.1272720E+02 -0.8504060E+01  0.0000000E+00  0.5897959E+00 -0.1035958E+01 -0.3006202E+00  0.5074314E+00
 -0.1183240E+02 -0.9710600E+01  0.0000000E+00  0.5797163E+00 -0.1060827E+01 -0.2829887E+00  0.5059529E+00
 -0.1082360E+02 -0.1082360E+02  0.0000000E+00  0.5698706E+00 -0.1090471E+01 -0.2633190E+00  0.5053866E+00
 -0.9710600E+01 -0.1183240E+02  0.0000000E+00  0.5577165E+00 -0.1123609E+01 -0.2411738E+00  0.5028747E+00
 -0.8504050E+01 -0.1272720E+02  0.0000000E+00  0.5414853E+00 -0.1160006E+01 -0.2162335E+00  0.4964367E+00
 -0.7215620E+01 -0.1349950E+02  0.0000000E+00  0.5283381E+00 -0.1203719E+01 -0.1896148E+00  0.4931403E+00
 -0.5857690E+01 -0.1414170E+02  0.0000000E+00  0.5061676E+00 -0.1250666E+01 -0.1592862E+00  0.4804514E+00
 -0.4443360E+01 -0.1464780E+02  0.0000000E+00  0.4780309E+00 -0.1305704E+01 -0.1252432E+00  0.4613325E+00
 -0.2986230E+01 -0.1501280E+02  0.0000000E+00  0.4328363E+00 -0.1374231E+01 -0.8453357E-01  0.4245013E+00
 -0.1500340E+01 -0.1523320E+02  0.0000000E+00  0.2791542E+00 -0.1477573E+01 -0.2598609E-01  0.2779420E+00
  0.1825330E-06 -0.1530690E+02  0.0000000E+00  0.1661515E+00 -0.1679485E+01  0.1802320E-01  0.1651711E+00
  0.1500340E+01 -0.1523320E+02  0.0000000E+00  0.7202893E-01 -0.2584607E+01  0.6114193E-01  0.3807666E-01
  0.2986230E+01 -0.1501280E+02  0.0000000E+00  0.2064036E+00  0.2163278E+01  0.1152602E+00 -0.1712237E+00
  0.4443360E+01 -0.1464780E+02  0.0000000E+00  0.2760084E+00  0.2140932E+01  0.1489745E+00 -0.2323516E+00
  0.5857700E+01 -0.1414170E+02  0.0000000E+00  0.3175665E+00  0.2163201E+01  0.1773156E+00 -0.2634534E+00
  0.7215620E+01 -0.1349950E+02  0.0000000E+00  0.3498122E+00  0.2189956E+01  0.2030139E+00 -0.2848753E+00
  0.8504060E+01 -0.1272720E+02  0.0000000E+00  0.3713457E+00  0.2224492E+01  0.2258242E+00 -0.2947898E+00
  0.9710600E+01 -0.1183240E+02  0.0000000E+00  0.3946762E+00  0.2249821E+01  0.2478703E+00 -0.3071312E+00
  0.1082360E+02 -0.1082360E+02  0.0000000E+00  0.4125545E+00  0.2276465E+01  0.2675594E+00 -0.3140274E+00
  0.1183240E+02 -0.9710590E+01  0.0000000E+00  0.4277655E+00  0.2301498E+01  0.2854876E+00 -0.3185596E+00
  0.1272720E+02 -0.8504060E+01  0.0000000E+00  0.4432163E+00  0.2320874E+01  0.3021387E+00 -0.3242729E+00
  0.1349950E+02 -0.7215620E+01  0.0000000E+00  0.4573603E+00  0.2337609E+01  0.3173364E+00 -0.3293570E+00
  0.1414170E+02 -0.5857700E+01  0.0000000E+00  0.4681891E+00  0.2354788E+01  0.3305936E+00 -0.3315251E+00
  0.1464780E+02 -0.4443350E+01  0.0000000E+00  0.4743038E+00  0.2373654E+01  0.3411878E+00 -0.3294769E+00
  0.1501280E+02 -0.2986230E+01  0.0000000E+00  0.4790199E+00  0.2389509E+01  0.3498125E+00 -0.3272481E+00
  0.1523320E+02 -0.1500330E+01  0.0000000E+00  0.4835984E+00  0.2400403E+01  0.3567339E+00 -0.3265092E+00
  0.1530690E+02  0.0000000E+00 -0.2568960E-01  0.4875847E+00  0.2406138E+01  0.3615567E+00 -0.3271324E+00
  0.1523320E+02  0.1500340E+01 -0.2568960E-01  0.4913935E+00  0.2408661E+01  0.3652117E+00 -0.3287674E+00
  0.1501280E+02  0.2986230E+01 -0.2568960E-01  0.4953674E+00  0.2407175E+01  0.3676722E+00 -0.3319729E+00
  0.1464780E+02  0.4443360E+01 -0.2568960E-01  0.4993472E+00  0.2402008E+01  0.3688921E+00 -0.3365505E+00
  0.1414170E+02  0.5857700E+01 -0.2568960E-01  0.5020028E+00  0.2394544E+01  0.3683182E+00 -0.3410990E+00
  0.1349950E+02  0.7215620E+01 -0.2568960E-01  0.4997342E+00  0.2387856E+01  0.3643746E+00 -0.3420020E+00
  0.1272720E+02  0.8504060E+01 -0.2568960E-01  0.4938893E+00  0.2380268E+01  0.3575377E+00 -0.3407249E+00
  0.1183240E+02  0.9710600E+01 -0.2568960E-01  0.4868302E+00  0.2370334E+01  0.3490739E+00 -0.3393391E+00
  0.1082360E+02  0.1082360E+02 -0.2568960E-01  0.4800864E+00  0.2357685E+01  0.3399779E+00 -0.3389660E+00
  0.9710590E+01  0.1183240E+02 -0.2568960E-01  0.4706896E+00  0.2344174E+01  0.3288031E+00 -0.3368044E+00
  0.8504060E+01  0.1272720E+02 -0.2568960E-01  0.4565452E+00  0.2330630E+01  0.3144689E+00 -0.3309726E+00
  0.7215620E+01  0.1349950E+02 -0.2568960E-01  0.4454506E+00  0.2312593E+01  0.3009526E+00 -0.3284111E+00
  0.5857700E+01  0.1414170E+02 -0.2568960E-01  0.4241978E+00  0.2298333E+01  0.2821051E+00 -0.3167972E+00
  0.4443360E+01  0.1464780E+02 -0.2568960E-01  0.3962432E+00  0.2286179E+01  0.2598984E+00 -0.2991011E+00
  0.2986230E+01  0.1501280E+02 -0.2568960E-01  0.3489649E+00  0.2280804E+01  0.2274690E+00 -0.2646400E+00
  0.1500340E+01  0.1523320E+02 -0.2568960E-01  0.1775602E+00  0.2376242E+01  0.1280456E+00 -0.1230120E+00
 -0.6690860E-06  0.1530690E+02 -0.2568960E-01  0.5154884E-01  0.2909050E+01  0.5016133E-01 -0.1187954E-01
 -0.1500340E+01  0.1523320E+02 -0.2568960E-01  0.1191163E+00 -0.1317888E+01 -0.2980540E-01  0.1153271E+00
 -0.2986230E+01  0.1501280E+02 -0.2568960E-01  0.3557369E+00 -0.1170634E+01 -0.1385837E+00  0.3276328E+00
 -0.4443360E+01  0.1464780E+02 -0.2568960E-01  0.4302552E+00 -0.1136607E+01 -0.1809976E+00  0.3903324E+00
 -0.5857700E+01  0.1414170E+02 -0.2568960E-01  0.4723170E+00 -0.1106329E+01 -0.2115728E+00  0.4222798E+00
 -0.7215620E+01  0.1349950E+02 -0.2568960E-01  0.5039993E+00 -0.1079100E+01 -0.2379489E+00  0.4442922E+00
 -0.8504060E+01  0.1272720E+02 -0.2568960E-01  0.5230563E+00 -0.1053949E+01 -0.2584641E+00  0.4547353E+00
 -0.9710590E+01  0.1183240E+02 -0.2568960E-01  0.5445267E+00 -0.1032337E+01 -0.2792407E+00  0.4674762E+00
 -0.1082360E+02  0.1082360E+02 -0.2568960E-01  0.5598792E+00 -0.1012260E+01 -0.2967055E+00  0.4747953E+00
 -0.1183240E+02  0.9710590E+01 -0.2568960E-01  0.5720916E+00 -0.9946758E+00 -0.3116611E+00  0.4797460E+00
 -0.1272720E+02  0.8504060E+01 -0.2568960E-01  0.5848370E+00 -0.9805472E+00 -0.3255016E+00  0.4858837E+00
 -0.1349950E+02  0.7215620E+01 -0.2568960E-01  0.5959569E+00 -0.9693124E+00 -0.3372321E+00  0.4913646E+00
 -0.1414170E+02  0.5857690E+01 -0.2568960E-01  0.6028497E+00 -0.9601274E+00 -0.3456835E+00  0.4938934E+00
 -0.1464780E+02  0.4443360E+01 -0.2568960E-01  0.6042733E+00 -0.9520317E+00 -0.3504962E+00  0.4922384E+00
 -0.1501280E+02  0.2986230E+01 -0.2568960E-01  0.6043447E+00 -0.9467493E+00 -0.3531332E+00  0.4904380E+00
 -0.1523320E+02  0.1500340E+01 -0.2568960E-01  0.6046722E+00 -0.9452235E+00 -0.3540729E+00  0.4901641E+00
 -0.1530690E+02 -0.1338170E-05 -0.2568960E-01  0.6054647E+00 -0.9477085E+00 -0.3533162E+00  0.4916860E+00
 -0.1523320E+02 -0.1500340E+01 -0.2568960E-01  0.6054704E+00 -0.9535974E+00 -0.3504179E+00  0.4937628E+00
 -0.1501280E+02 -0.2986230E+01 -0.2568960E-01  0.6055138E+00 -0.9637644E+00 -0.3454045E+00  0.4973356E+00
 -0.1464780E+02 -0.4443360E+01 -0.2568960E-01  0.6054557E+00 -0.9781289E+00 -0.3381928E+00  0.5021974E+00
 -0.1414170E+02 -0.5857700E+01 -0.2568960E-01  0.6040775E+00 -0.9958385E+00 -0.3284970E+00  0.5069510E+00
 -0.1349950E+02 -0.7215620E+01 -0.2568960E-01  0.5980601E+00 -0.1014808E+01 -0.3156462E+00  0.5079797E+00
 -0.1272720E+02 -0.8504060E+01 -0.2568960E-01  0.5890031E+00 -0.1035967E+01 -0.3002116E+00  0.5067521E+00
 -0.1183240E+02 -0.9710600E+01 -0.2568960E-01  0.5789493E+00 -0.1060846E+01 -0.2826048E+00  0.5052888E+00
 -0.1082360E+02 -0.1082360E+02 -0.2568960E-01  0.5691130E+00 -0.1090481E+01 -0.2629634E+00  0.5047175E+00
 -0.9710600E+01 -0.1183240E+02 -0.2568960E-01  0.5569740E+00 -0.1123624E+01 -0.2408451E+00  0.5022088E+00
 -0.8504050E+01 -0.1272720E+02 -0.2568960E-01  0.5408001E+00 -0.1160032E+01 -0.2159469E+00  0.4958142E+00
 -0.7215620E+01 -0.1349950E+02 -0.2568960E-01  0.5276375E+00 -0.1203734E+01 -0.1893561E+00  0.4924892E+00
 -0.5857690E+01 -0.1414170E+02 -0.2568960E-01  0.5055206E+00 -0.1250683E+01 -0.1590742E+00  0.4798401E+00
 -0.4443360E+01 -0.1464780E+02 -0.2568960E-01  0.4774273E+00 -0.1305726E+01 -0.1250749E+00  0.4607527E+00
 -0.2986230E+01 -0.1501280E+02 -0.2568960E-01  0.4322914E+00 -0.1374252E+01 -0.8441836E-01  0.4239687E+00
 -0.1500340E+01 -0.1523320E+02 -0.2568960E-01  0.2788193E+00 -0.1477578E+01 -0.2595358E-01  0.2776087E+00
  0.1825330E-06 -0.1530690E+02 -0.2568960E-01  0.1659219E+00 -0.1679498E+01  0.1800054E-01  0.1649425E+00
  0.1500340E+01 -0.1523320E+02 -0.2568960E-01  0.7192326E-01 -0.2585028E+01  0.6106825E-01  0.3799505E-01
  0.2986230E+01 -0.1501280E+02 -0.2568960E-01  0.2061509E+00  0.2163242E+01  0.1151129E+00 -0.1710182E+00
  0.4443360E+01 -0.1464780E+02 -0.2568960E-01  0.2756665E+00  0.2140895E+01  0.1487814E+00 -0.2320692E+00
  0.5857700E+01 -0.1414170E+02 -0.2568960E-01  0.3171741E+00  0.2163157E+01  0.1770849E+00 -0.2631356E+00
  0.7215620E+01 -0.1349950E+02 -0.2568960E-01  0.3493578E+00  0.2189944E+01  0.2027469E+00 -0.2845077E+00
  0.8504060E+01 -0.1272720E+02 -0.2568960E-01  0.3708943E+00  0.2224430E+01  0.2255317E+00 -0.2944453E+00
  0.9710600E+01 -0.1183240E+02 -0.2568960E-01  0.3941572E+00  0.2249809E+01  0.2475405E+00 -0.3067305E+00
  0.1082360E+02 -0.1082360E+02 -0.2568960E-01  0.4120143E+00  0.2276443E+01  0.2672021E+00 -0.3136221E+00
  0.1183240E+02 -0.9710590E+01 -0.2568960E-01  0.4272113E+00  0.2301464E+01  0.2851066E+00 -0.3181567E+00
  0.1272720E+02 -0.8504060E+01 -0.2568960E-01  0.4426301E+00  0.2320868E+01  0.3017371E+00 -0.3238459E+00
  0.1349950E+02 -0.7215620E+01 -0.2568960E-01  0.4567308E+00  0.2337625E+01  0.3169048E+00 -0.3288988E+00
  0.1414170E+02 -0.5857700E+01 -0.2568960E-01  0.4675359E+00  0.2354813E+01  0.3301408E+00 -0.3310542E+00
  0.1464780E+02 -0.4443350E+01 -0.2568960E-01  0.4736597E+00  0.2373655E+01  0.3407247E+00 -0.3290291E+00
  0.1501280E+02 -0.2986230E+01 -0.2568960E-01  0.4783840E+00  0.2389480E+01  0.3493387E+00 -0.3268237E+00
  0.1523320E+02 -0.1500330E+01 -0.2568960E-01  0.4829690E+00  0.2400368E+01  0.3562582E+00 -0.3260968E+00
  0.1530690E+02  0.0000000E+00 -0.1027320E+00  0.4857352E+00  0.2405980E+01  0.3601337E+00 -0.3259484E+00
  0.1523320E+02  0.1500340E+01 -0.1027320E+00  0.4895244E+00  0.2408520E+01  0.3637764E+00 -0.3275681E+00
  0.1501280E+02  0.2986230E+01 -0.1027320E+00  0.4934497E+00  0.2407074E+01  0.3662154E+00 -0.3307249E+00
  0.1464780E+02  0.4443360E+01 -0.1027320E+00  0.4973532E+00  0.2401962E+01  0.3674035E+00 -0.3352236E+00
  0.1414170E+02  0.5857700E+01 -0.1027320E+00  0.4999395E+00  0.2394544E+01  0.3668044E+00 -0.3396969E+00
  0.1349950E+02  0.7215620E+01 -0.1027320E+00  0.4977084E+00  0.2387838E+01  0.3628914E+00 -0.3406222E+00
  0.1272720E+02  0.8504060E+01 -0.1027320E+00  0.4919524E+00  0.2380203E+01  0.3561134E+00 -0.3394118E+00
  0.1183240E+02  0.9710600E+01 -0.1027320E+00  0.4849645E+00  0.2370247E+01  0.3477066E+00 -0.3380691E+00
  0.1082360E+02  0.1082360E+02 -0.1027320E+00  0.4782203E+00  0.2357610E+01  0.3386313E+00 -0.3376736E+00
  0.9710590E+01  0.1183240E+02 -0.1027320E+00  0.4688542E+00  0.2344101E+01  0.3274963E+00 -0.3355151E+00
  0.8504060E+01  0.1272720E+02 -0.1027320E+00  0.4548752E+00  0.2330498E+01  0.3132748E+00 -0.3298034E+00
  0.7215620E+01  0.1349950E+02 -0.1027320E+00  0.4436770E+00  0.2312558E+01  0.2997428E+00 -0.3271140E+00
  0.5857700E+01  0.1414170E+02 -0.1027320E+00  0.4226261E+00  0.2298233E+01  0.2810283E+00 -0.3156516E+00
  0.4443360E+01  0.1464780E+02 -0.1027320E+00  0.3947823E+00  0.2286052E+01  0.2589023E+00 -0.2980314E+00
  0.2986230E+01  0.1501280E+02 -0.1027320E+00  0.3476475E+00  0.2280704E+01  0.2265842E+00 -0.2636635E+00
  0.1500340E+01  0.1523320E+02 -0.1027320E+00  0.1770083E+00  0.2375931E+01  0.1276095E+00 -0.1226692E+00
 -0.6690860E-06  0.1530690E+02 -0.1027320E+00  0.5135729E-01  0.2908913E+01  0.4997332E-01 -0.1184225E-01
 -0.1500340E+01  0.1523320E+02 -0.1027320E+00  0.1188310E+00 -0.1317701E+01 -0.2975549E-01  0.1150453E+00
 -0.2986230E+01  0.1501280E+02 -0.1027320E+00  0.3543245E+00 -0.1170632E+01 -0.1380342E+00  0.3263317E+00
 -0.4443360E+01  0.1464780E+02 -0.1027320E+00  0.4285949E+00 -0.1136596E+01 -0.1803034E+00  0.3888243E+00
 -0.5857700E+01  0.1414170E+02 -0.1027320E+00  0.4705195E+00 -0.1106346E+01 -0.2107605E+00  0.4206764E+00
 -0.7215620E+01  0.1349950E+02 -0.1027320E+00  0.5019601E+00 -0.1079119E+01 -0.2369779E+00  0.4424990E+00
 -0.8504060E+01  0.1272720E+02 -0.1027320E+00  0.5211081E+00 -0.1053994E+01 -0.2574807E+00  0.4530533E+00
 -0.9710590E+01  0.1183240E+02 -0.1027320E+00  0.5423723E+00 -0.1032357E+01 -0.2781270E+00  0.4656320E+00
 -0.1082360E+02  0.1082360E+02 -0.1027320E+00  0.5576789E+00 -0.1012293E+01 -0.2955238E+00  0.4729391E+00
 -0.1183240E+02  0.9710590E+01 -0.1027320E+00  0.5698747E+00 -0.9947246E+00 -0.3104300E+00  0.4779021E+00
 -0.1272720E+02  0.8504060E+01 -0.1027320E+00  0.5825199E+00 -0.9805832E+00 -0.3241946E+00  0.4839704E+00
 -0.1349950E+02  0.7215620E+01 -0.1027320E+00  0.5935175E+00 -0.9693280E+00 -0.3358441E+00  0.4893586E+00
 -0.1414170E+02  0.5857690E+01 -0.1027320E+00  0.6003597E+00 -0.9601298E+00 -0.3442545E+00  0.4918543E+00
 -0.1464780E+02  0.4443360E+01 -0.1027320E+00  0.6018435E+00 -0.9520607E+00 -0.3490726E+00  0.4902692E+00
 -0.1501280E+02  0.2986230E+01 -0.1027320E+00  0.6019832E+00 -0.9468070E+00 -0.3517252E+00  0.4885419E+00
 -0.1523320E+02  0.1500340E+01 -0.1027320E+00  0.6023442E+00 -0.9453007E+00 -0.3526720E+00  0.4883042E+00
 -0.1530690E+02 -0.1338170E-05 -0.1027320E+00  0.6031388E+00 -0.9477883E+00 -0.3519199E+00  0.4898253E+00
 -0.1523320E+02 -0.1500340E+01 -0.1027320E+00  0.6031317E+00 -0.9536776E+00 -0.3490249E+00  0.4918836E+00
 -0.1501280E+02 -0.2986230E+01 -0.1027320E+00  0.6031397E+00 -0.9638267E+00 -0.3440194E+00  0.4954070E+00
 -0.1464780E+02 -0.4443360E+01 -0.1027320E+00  0.6030254E+00 -0.9781528E+00 -0.3368233E+00  0.5001897E+00
 -0.1414170E+02 -0.5857700E+01 -0.1027320E+00  0.6015949E+00 -0.9958289E+00 -0.3271518E+00  0.5048645E+00
 -0.1349950E+02 -0.7215620E+01 -0.1027320E+00  0.5956272E+00 -0.1014809E+01 -0.3143614E+00  0.5059137E+00
 -0.1272720E+02 -0.8504060E+01 -0.1027320E+00  0.5866654E+00 -0.1036009E+01 -0.2989986E+00  0.5047535E+00
 -0.1183240E+02 -0.9710600E+01 -0.1027320E+00  0.5766898E+00 -0.1060911E+01 -0.2814691E+00  0.5033352E+00
 -0.1082360E+02 -0.1082360E+02 -0.1027320E+00  0.5668715E+00 -0.1090528E+01 -0.2619042E+00  0.5027419E+00
 -0.9710600E+01 -0.1183240E+02 -0.1027320E+00  0.5547771E+00 -0.1123660E+01 -0.2398772E+00  0.5002365E+00
 -0.8504050E+01 -0.1272720E+02 -0.1027320E+00  0.5387648E+00 -0.1160113E+01 -0.2150943E+00  0.4939656E+00
 -0.7215620E+01 -0.1349950E+02 -0.1027320E+00  0.5255190E+00 -0.1203746E+01 -0.1885897E+00  0.4905142E+00
 -0.5857690E+01 -0.1414170E+02 -0.1027320E+00  0.5035945E+00 -0.1250736E+01 -0.1584429E+00  0.4780202E+00
 -0.4443360E+01 -0.1464780E+02 -0.1027320E+00  0.4756171E+00 -0.1305782E+01 -0.1245752E+00  0.4590127E+00
 -0.2986230E+01 -0.1501280E+02 -0.1027320E+00  0.4306177E+00 -0.1374284E+01 -0.8407802E-01  0.4223298E+00
 -0.1500340E+01 -0.1523320E+02 -0.1027320E+00  0.2778376E+00 -0.1477532E+01 -0.2587467E-01  0.2766302E+00
  0.1825330E-06 -0.1530690E+02 -0.1027320E+00  0.1652487E+00 -0.1679585E+01  0.1794176E-01  0.1642718E+00
  0.1500340E+01 -0.1523320E+02 -0.1027320E+00  0.7156742E-01 -0.2587685E+01  0.6086633E-01  0.3764552E-01
  0.2986230E+01 -0.1501280E+02 -0.1027320E+00  0.2053617E+00  0.2163220E+01  0.1146685E+00 -0.1703660E+00
  0.4443360E+01 -0.1464780E+02 -0.1027320E+00  0.2746392E+00  0.2140805E+01  0.1482062E+00 -0.2312177E+00
  0.5857700E+01 -0.1414170E+02 -0.1027320E+00  0.3160051E+00  0.2163017E+01  0.1763955E+00 -0.2621906E+00
  0.7215620E+01 -0.1349950E+02 -0.1027320E+00  0.3479632E+00  0.2189934E+01  0.2019346E+00 -0.2833739E+00
  0.8504060E+01 -0.1272720E+02 -0.1027320E+00  0.3695503E+00  0.2224223E+01  0.2246536E+00 -0.2934249E+00
  0.9710600E+01 -0.1183240E+02 -0.1027320E+00  0.3926179E+00  0.2249738E+01  0.2465522E+00 -0.3055500E+00
  0.1082360E+02 -0.1082360E+02 -0.1027320E+00  0.4104172E+00  0.2276354E+01  0.2661385E+00 -0.3124301E+00
  0.1183240E+02 -0.9710590E+01 -0.1027320E+00  0.4255812E+00  0.2301332E+01  0.2839771E+00 -0.3169801E+00
  0.1272720E+02 -0.8504060E+01 -0.1027320E+00  0.4408979E+00  0.2320796E+01  0.3005331E+00 -0.3226000E+00
