 VARIABLES="X" "Y" "Z" "abs(eta) (m)" "angle(phi) (rad)" "PRE1" "PRE2"
ZONE N=   3200 ,E =    3136 ,F=FEPOINT,ET=QUADRILATERAL
  0.1530690E+02  0.0000000E+00  0.0000000E+00  0.6475823E+00 -0.9468418E+00 -0.3783494E+00  0.5255612E+00
  0.1523320E+02  0.1500340E+01  0.0000000E+00  0.6473803E+00 -0.9513698E+00 -0.3758485E+00  0.5271045E+00
  0.1501280E+02  0.2986230E+01  0.0000000E+00  0.6473215E+00 -0.9601392E+00 -0.3711780E+00  0.5303320E+00
  0.1464780E+02  0.4443360E+01  0.0000000E+00  0.6472378E+00 -0.9730561E+00 -0.3642499E+00  0.5350129E+00
  0.1414170E+02  0.5857700E+01  0.0000000E+00  0.6457455E+00 -0.9892259E+00 -0.3547318E+00  0.5395855E+00
  0.1349950E+02  0.7215620E+01  0.0000000E+00  0.6391180E+00 -0.1006540E+01 -0.3417925E+00  0.5400460E+00
  0.1272720E+02  0.8504060E+01  0.0000000E+00  0.6290206E+00 -0.1025904E+01 -0.3260377E+00  0.5379278E+00
  0.1183240E+02  0.9710600E+01  0.0000000E+00  0.6177723E+00 -0.1048777E+01 -0.3080406E+00  0.5354937E+00
  0.1082360E+02  0.1082360E+02  0.0000000E+00  0.6068279E+00 -0.1076272E+01 -0.2880082E+00  0.5341267E+00
  0.9710590E+01  0.1183240E+02  0.0000000E+00  0.5932687E+00 -0.1107045E+01 -0.2653727E+00  0.5306082E+00
  0.8504060E+01  0.1272720E+02  0.0000000E+00  0.5750107E+00 -0.1140525E+01 -0.2398472E+00  0.5225999E+00
  0.7215620E+01  0.1349950E+02  0.0000000E+00  0.5599782E+00 -0.1180680E+01 -0.2129575E+00  0.5179041E+00
  0.5857700E+01  0.1414170E+02  0.0000000E+00  0.5346074E+00 -0.1223457E+01 -0.1819789E+00  0.5026816E+00
  0.4443360E+01  0.1464780E+02  0.0000000E+00  0.5020733E+00 -0.1272972E+01 -0.1473291E+00  0.4799706E+00
  0.2986230E+01  0.1501280E+02  0.0000000E+00  0.4485698E+00 -0.1331911E+01 -0.1061405E+00  0.4358315E+00
  0.1500340E+01  0.1523320E+02  0.0000000E+00  0.2684544E+00 -0.1413271E+01 -0.4211365E-01  0.2651305E+00
 -0.6690860E-06  0.1530690E+02  0.0000000E+00  0.1403980E+00 -0.1640074E+01  0.9718681E-02  0.1400612E+00
 -0.1500340E+01  0.1523320E+02  0.0000000E+00  0.6413570E-01 -0.3061470E+01  0.6392995E-01  0.5133256E-02
 -0.2986230E+01  0.1501280E+02  0.0000000E+00  0.2501235E+00  0.2154594E+01  0.1378673E+00 -0.2086969E+00
 -0.4443360E+01  0.1464780E+02  0.0000000E+00  0.3221858E+00  0.2152391E+01  0.1769951E+00 -0.2692145E+00
 -0.5857700E+01  0.1414170E+02  0.0000000E+00  0.3648970E+00  0.2177100E+01  0.2079307E+00 -0.2998578E+00
 -0.7215620E+01  0.1349950E+02  0.0000000E+00  0.3979535E+00  0.2203958E+01  0.2354678E+00 -0.3208145E+00
 -0.8504060E+01  0.1272720E+02  0.0000000E+00  0.4194651E+00  0.2236824E+01  0.2591739E+00 -0.3298179E+00
 -0.9710590E+01  0.1183240E+02  0.0000000E+00  0.4431646E+00  0.2261201E+01  0.2822289E+00 -0.3416748E+00
 -0.1082360E+02  0.1082360E+02  0.0000000E+00  0.4610253E+00  0.2286178E+01  0.3023889E+00 -0.3480017E+00
 -0.1183240E+02  0.9710590E+01  0.0000000E+00  0.4759970E+00  0.2309535E+01  0.3205153E+00 -0.3519135E+00
 -0.1272720E+02  0.8504060E+01  0.0000000E+00  0.4912795E+00  0.2327801E+01  0.3373850E+00 -0.3571091E+00
 -0.1349950E+02  0.7215620E+01  0.0000000E+00  0.5051293E+00  0.2343369E+01  0.3525699E+00 -0.3617320E+00
 -0.1414170E+02  0.5857690E+01  0.0000000E+00  0.5153114E+00  0.2359010E+01  0.3654047E+00 -0.3633527E+00
 -0.1464780E+02  0.4443360E+01  0.0000000E+00  0.5203394E+00  0.2376044E+01  0.3751658E+00 -0.3605603E+00
 -0.1501280E+02  0.2986230E+01  0.0000000E+00  0.5238625E+00  0.2390166E+01  0.3827946E+00 -0.3576314E+00
 -0.1523320E+02  0.1500340E+01  0.0000000E+00  0.5272593E+00  0.2399568E+01  0.3886437E+00 -0.3563124E+00
 -0.1530690E+02 -0.1338170E-05  0.0000000E+00  0.5307086E+00  0.2404048E+01  0.3927892E+00 -0.3568869E+00
 -0.1523320E+02 -0.1500340E+01  0.0000000E+00  0.5332351E+00  0.2405245E+01  0.3950878E+00 -0.3581136E+00
 -0.1501280E+02 -0.2986230E+01  0.0000000E+00  0.5359098E+00  0.2402256E+01  0.3959922E+00 -0.3610948E+00
 -0.1464780E+02 -0.4443360E+01  0.0000000E+00  0.5385693E+00  0.2395393E+01  0.3954576E+00 -0.3656094E+00
 -0.1414170E+02 -0.5857700E+01  0.0000000E+00  0.5397754E+00  0.2386100E+01  0.3929208E+00 -0.3700955E+00
 -0.1349950E+02 -0.7215620E+01  0.0000000E+00  0.5356449E+00  0.2377642E+01  0.3867937E+00 -0.3705484E+00
 -0.1272720E+02 -0.8504060E+01  0.0000000E+00  0.5276201E+00  0.2368393E+01  0.3776068E+00 -0.3685051E+00
 -0.1183240E+02 -0.9710600E+01  0.0000000E+00  0.5182289E+00  0.2356692E+01  0.3666255E+00 -0.3662607E+00
 -0.1082360E+02 -0.1082360E+02  0.0000000E+00  0.5092055E+00  0.2341859E+01  0.3548641E+00 -0.3651872E+00
 -0.9710600E+01 -0.1183240E+02  0.0000000E+00  0.4972821E+00  0.2325975E+01  0.3408465E+00 -0.3620956E+00
 -0.8504050E+01 -0.1272720E+02  0.0000000E+00  0.4799628E+00  0.2309966E+01  0.3233386E+00 -0.3547061E+00
 -0.7215620E+01 -0.1349950E+02  0.0000000E+00  0.4657556E+00  0.2288687E+01  0.3063730E+00 -0.3508047E+00
 -0.5857690E+01 -0.1414170E+02  0.0000000E+00  0.4402838E+00  0.2271199E+01  0.2837742E+00 -0.3366333E+00
 -0.4443360E+01 -0.1464780E+02  0.0000000E+00  0.4069558E+00  0.2255179E+01  0.2572753E+00 -0.3153133E+00
 -0.2986230E+01 -0.1501280E+02  0.0000000E+00  0.3504048E+00  0.2246090E+01  0.2190474E+00 -0.2734991E+00
 -0.1500340E+01 -0.1523320E+02  0.0000000E+00  0.1551005E+00  0.2375774E+01  0.1117987E+00 -0.1075044E+00
  0.1825330E-06 -0.1530690E+02  0.0000000E+00  0.3584962E-01 -0.2673915E+01  0.3200000E-01  0.1616153E-01
  0.1500340E+01 -0.1523320E+02  0.0000000E+00  0.1584640E+00 -0.1274535E+01 -0.4626305E-01  0.1515605E+00
  0.2986230E+01 -0.1501280E+02  0.0000000E+00  0.3972495E+00 -0.1191694E+01 -0.1470168E+00  0.3690436E+00
  0.4443360E+01 -0.1464780E+02  0.0000000E+00  0.4711319E+00 -0.1157125E+01 -0.1893827E+00  0.4313925E+00
  0.5857700E+01 -0.1414170E+02  0.0000000E+00  0.5132793E+00 -0.1124718E+01 -0.2214444E+00  0.4630528E+00
  0.7215620E+01 -0.1349950E+02  0.0000000E+00  0.5452092E+00 -0.1095477E+01 -0.2494997E+00  0.4847710E+00
  0.8504060E+01 -0.1272720E+02  0.0000000E+00  0.5641974E+00 -0.1068035E+01 -0.2718569E+00  0.4943809E+00
  0.9710600E+01 -0.1183240E+02  0.0000000E+00  0.5860325E+00 -0.1044667E+01 -0.2942994E+00  0.5067760E+00
  0.1082360E+02 -0.1082360E+02  0.0000000E+00  0.6016864E+00 -0.1022828E+01 -0.3134508E+00  0.5135905E+00
  0.1183240E+02 -0.9710590E+01  0.0000000E+00  0.6141314E+00 -0.1003571E+01 -0.3299692E+00  0.5179553E+00
  0.1272720E+02 -0.8504060E+01  0.0000000E+00  0.6271250E+00 -0.9880284E+00 -0.3451301E+00  0.5236133E+00
  0.1349950E+02 -0.7215620E+01  0.0000000E+00  0.6385201E+00 -0.9754394E+00 -0.3580848E+00  0.5286617E+00
  0.1414170E+02 -0.5857700E+01  0.0000000E+00  0.6455911E+00 -0.9648139E+00 -0.3677092E+00  0.5306391E+00
  0.1464780E+02 -0.4443350E+01  0.0000000E+00  0.6469280E+00 -0.9552208E+00 -0.3735546E+00  0.5281787E+00
  0.1501280E+02 -0.2986230E+01  0.0000000E+00  0.6468374E+00 -0.9485161E+00 -0.3770347E+00  0.5255886E+00
  0.1523320E+02 -0.1500330E+01  0.0000000E+00  0.6469821E+00 -0.9456542E+00 -0.3786220E+00  0.5246248E+00
  0.1530690E+02  0.0000000E+00 -0.2568960E-01  0.6467336E+00 -0.9468587E+00 -0.3778447E+00  0.5248788E+00
  0.1523320E+02  0.1500340E+01 -0.2568960E-01  0.6465286E+00 -0.9513861E+00 -0.3753454E+00  0.5264171E+00
  0.1501280E+02  0.2986230E+01 -0.2568960E-01  0.6464561E+00 -0.9601510E+00 -0.3706755E+00  0.5296273E+00
  0.1464780E+02  0.4443360E+01 -0.2568960E-01  0.6463526E+00 -0.9730587E+00 -0.3637503E+00  0.5342821E+00
  0.1414170E+02  0.5857700E+01 -0.2568960E-01  0.6448421E+00 -0.9892197E+00 -0.3542389E+00  0.5388285E+00
  0.1349950E+02  0.7215620E+01 -0.2568960E-01  0.6382357E+00 -0.1006535E+01 -0.3413232E+00  0.5392989E+00
  0.1272720E+02  0.8504060E+01 -0.2568960E-01  0.6281751E+00 -0.1025914E+01 -0.3255942E+00  0.5372080E+00
  0.1183240E+02  0.9710600E+01 -0.2568960E-01  0.6169572E+00 -0.1048796E+01 -0.3076242E+00  0.5347930E+00
  0.1082360E+02  0.1082360E+02 -0.2568960E-01  0.6060206E+00 -0.1076286E+01 -0.2876176E+00  0.5334201E+00
  0.9710590E+01  0.1183240E+02 -0.2568960E-01  0.5924801E+00 -0.1107051E+01 -0.2650169E+00  0.5299044E+00
  0.8504060E+01  0.1272720E+02 -0.2568960E-01  0.5742842E+00 -0.1140553E+01 -0.2395294E+00  0.5219464E+00
  0.7215620E+01  0.1349950E+02 -0.2568960E-01  0.5592365E+00 -0.1180688E+01 -0.2126713E+00  0.5172198E+00
  0.5857700E+01  0.1414170E+02 -0.2568960E-01  0.5339249E+00 -0.1223473E+01 -0.1817385E+00  0.5020428E+00
  0.4443360E+01  0.1464780E+02 -0.2568960E-01  0.5014390E+00 -0.1272984E+01 -0.1471369E+00  0.4793660E+00
  0.2986230E+01  0.1501280E+02 -0.2568960E-01  0.4480039E+00 -0.1331921E+01 -0.1060023E+00  0.4352827E+00
  0.1500340E+01  0.1523320E+02 -0.2568960E-01  0.2681348E+00 -0.1413278E+01 -0.4206174E-01  0.2648152E+00
 -0.6690860E-06  0.1530690E+02 -0.2568960E-01  0.1402043E+00 -0.1640112E+01  0.9710548E-02  0.1398677E+00
 -0.1500340E+01  0.1523320E+02 -0.2568960E-01  0.6405500E-01 -0.3062038E+01  0.6385240E-01  0.5090511E-02
 -0.2986230E+01  0.1501280E+02 -0.2568960E-01  0.2498182E+00  0.2154562E+01  0.1376923E+00 -0.2084466E+00
 -0.4443360E+01  0.1464780E+02 -0.2568960E-01  0.3217866E+00  0.2152350E+01  0.1767649E+00 -0.2688881E+00
 -0.5857700E+01  0.1414170E+02 -0.2568960E-01  0.3644440E+00  0.2177055E+01  0.2076592E+00 -0.2994948E+00
 -0.7215620E+01  0.1349950E+02 -0.2568960E-01  0.3974346E+00  0.2203941E+01  0.2351552E+00 -0.3204002E+00
 -0.8504060E+01  0.1272720E+02 -0.2568960E-01  0.4189541E+00  0.2236773E+01  0.2588412E+00 -0.3294294E+00
 -0.9710590E+01  0.1183240E+02 -0.2568960E-01  0.4425818E+00  0.2261186E+01  0.2818529E+00 -0.3412296E+00
 -0.1082360E+02  0.1082360E+02 -0.2568960E-01  0.4604204E+00  0.2286160E+01  0.3019859E+00 -0.3475507E+00
 -0.1183240E+02  0.9710590E+01 -0.2568960E-01  0.4753821E+00  0.2309509E+01  0.3200922E+00 -0.3514670E+00
 -0.1272720E+02  0.8504060E+01 -0.2568960E-01  0.4906248E+00  0.2327787E+01  0.3369302E+00 -0.3566381E+00
 -0.1349950E+02  0.7215620E+01 -0.2568960E-01  0.5044352E+00  0.2343381E+01  0.3520902E+00 -0.3612304E+00
 -0.1414170E+02  0.5857690E+01 -0.2568960E-01  0.5145949E+00  0.2359035E+01  0.3649054E+00 -0.3628387E+00
 -0.1464780E+02  0.4443360E+01 -0.2568960E-01  0.5196332E+00  0.2376045E+01  0.3746572E+00 -0.3600702E+00
 -0.1501280E+02  0.2986230E+01 -0.2568960E-01  0.5231693E+00  0.2390144E+01  0.3822803E+00 -0.3571665E+00
 -0.1523320E+02  0.1500340E+01 -0.2568960E-01  0.5265752E+00  0.2399533E+01  0.3881272E+00 -0.3558634E+00
 -0.1530690E+02 -0.1338170E-05 -0.2568960E-01  0.5300201E+00  0.2404016E+01  0.3922679E+00 -0.3564368E+00
 -0.1523320E+02 -0.1500340E+01 -0.2568960E-01  0.5325417E+00  0.2405215E+01  0.3945633E+00 -0.3576597E+00
 -0.1501280E+02 -0.2986230E+01 -0.2568960E-01  0.5352002E+00  0.2402236E+01  0.3954608E+00 -0.3606245E+00
 -0.1464780E+02 -0.4443360E+01 -0.2568960E-01  0.5378383E+00  0.2395394E+01  0.3949212E+00 -0.3651127E+00
 -0.1414170E+02 -0.5857700E+01 -0.2568960E-01  0.5390223E+00  0.2386117E+01  0.3923787E+00 -0.3695726E+00
 -0.1349950E+02 -0.7215620E+01 -0.2568960E-01  0.5349050E+00  0.2377649E+01  0.3862621E+00 -0.3700336E+00
 -0.1272720E+02 -0.8504060E+01 -0.2568960E-01  0.5269169E+00  0.2368382E+01  0.3770996E+00 -0.3680181E+00
 -0.1183240E+02 -0.9710600E+01 -0.2568960E-01  0.5175537E+00  0.2356666E+01  0.3661384E+00 -0.3657930E+00
 -0.1082360E+02 -0.1082360E+02 -0.2568960E-01  0.5085363E+00  0.2341841E+01  0.3543911E+00 -0.3647137E+00
 -0.9710600E+01 -0.1183240E+02 -0.2568960E-01  0.4966289E+00  0.2325960E+01  0.3403935E+00 -0.3616248E+00
 -0.8504050E+01 -0.1272720E+02 -0.2568960E-01  0.4793741E+00  0.2309928E+01  0.3229285E+00 -0.3542833E+00
 -0.7215620E+01 -0.1349950E+02 -0.2568960E-01  0.4651482E+00  0.2288671E+01  0.3059677E+00 -0.3503521E+00
 -0.5857690E+01 -0.1414170E+02 -0.2568960E-01  0.4397362E+00  0.2271171E+01  0.2834117E+00 -0.3362226E+00
 -0.4443360E+01 -0.1464780E+02 -0.2568960E-01  0.4064572E+00  0.2255140E+01  0.2569480E+00 -0.3149368E+00
 -0.2986230E+01 -0.1501280E+02 -0.2568960E-01  0.3499802E+00  0.2246055E+01  0.2187725E+00 -0.2731753E+00
 -0.1500340E+01 -0.1523320E+02 -0.2568960E-01  0.1549393E+00  0.2375644E+01  0.1116687E+00 -0.1074072E+00
  0.1825330E-06 -0.1530690E+02 -0.2568960E-01  0.3580284E-01 -0.2673928E+01  0.3195845E-01  0.1614003E-01
  0.1500340E+01 -0.1523320E+02 -0.2568960E-01  0.1582821E+00 -0.1274512E+01 -0.4621335E-01  0.1513855E+00
  0.2986230E+01 -0.1501280E+02 -0.2568960E-01  0.3967413E+00 -0.1191684E+01 -0.1468325E+00  0.3685701E+00
  0.4443360E+01 -0.1464780E+02 -0.2568960E-01  0.4705310E+00 -0.1157117E+01 -0.1891445E+00  0.4308408E+00
  0.5857700E+01 -0.1414170E+02 -0.2568960E-01  0.5126266E+00 -0.1124725E+01 -0.2211599E+00  0.4624655E+00
  0.7215620E+01 -0.1349950E+02 -0.2568960E-01  0.5444860E+00 -0.1095488E+01 -0.2491636E+00  0.4841306E+00
  0.8504060E+01 -0.1272720E+02 -0.2568960E-01  0.5634907E+00 -0.1068051E+01 -0.2715084E+00  0.4937661E+00
  0.9710600E+01 -0.1183240E+02 -0.2568960E-01  0.5852520E+00 -0.1044676E+01 -0.2939030E+00  0.5061038E+00
  0.1082360E+02 -0.1082360E+02 -0.2568960E-01  0.6008875E+00 -0.1022839E+01 -0.3130291E+00  0.5129119E+00
  0.1183240E+02 -0.9710590E+01 -0.2568960E-01  0.6133239E+00 -0.1003588E+01 -0.3295262E+00  0.5172801E+00
  0.1272720E+02 -0.8504060E+01 -0.2568960E-01  0.6262820E+00 -0.9880374E+00 -0.3446615E+00  0.5229126E+00
  0.1349950E+02 -0.7215620E+01 -0.2568960E-01  0.6376343E+00 -0.9754391E+00 -0.3575882E+00  0.5279282E+00
  0.1414170E+02 -0.5857700E+01 -0.2568960E-01  0.6446865E+00 -0.9648069E+00 -0.3671977E+00  0.5298930E+00
  0.1464780E+02 -0.4443350E+01 -0.2568960E-01  0.6460423E+00 -0.9552243E+00 -0.3730414E+00  0.5274569E+00
  0.1501280E+02 -0.2986230E+01 -0.2568960E-01  0.6459741E+00 -0.9485298E+00 -0.3765243E+00  0.5248923E+00
  0.1523320E+02 -0.1500330E+01 -0.2568960E-01  0.6461337E+00 -0.9456695E+00 -0.3781175E+00  0.5239426E+00
  0.1530690E+02  0.0000000E+00 -0.1027320E+00  0.6442481E+00 -0.9469430E+00 -0.3763484E+00  0.5228934E+00
  0.1523320E+02  0.1500340E+01 -0.1027320E+00  0.6440347E+00 -0.9514679E+00 -0.3738547E+00  0.5244172E+00
  0.1501280E+02  0.2986230E+01 -0.1027320E+00  0.6439264E+00 -0.9602090E+00 -0.3691944E+00  0.5275763E+00
  0.1464780E+02  0.4443360E+01 -0.1027320E+00  0.6437579E+00 -0.9730802E+00 -0.3622787E+00  0.5321451E+00
  0.1414170E+02  0.5857700E+01 -0.1027320E+00  0.6421915E+00 -0.9892095E+00 -0.3527883E+00  0.5366100E+00
  0.1349950E+02  0.7215620E+01 -0.1027320E+00  0.6356369E+00 -0.1006540E+01 -0.3399307E+00  0.5371045E+00
  0.1272720E+02  0.8504060E+01 -0.1027320E+00  0.6256846E+00 -0.1025952E+01 -0.3242826E+00  0.5350906E+00
  0.1183240E+02  0.9710600E+01 -0.1027320E+00  0.6145524E+00 -0.1048859E+01 -0.3063915E+00  0.5327277E+00
  0.1082360E+02  0.1082360E+02 -0.1027320E+00  0.6036359E+00 -0.1076330E+01 -0.2864628E+00  0.5313336E+00
  0.9710590E+01  0.1183240E+02 -0.1027320E+00  0.5901414E+00 -0.1107091E+01 -0.2639497E+00  0.5278233E+00
  0.8504060E+01  0.1272720E+02 -0.1027320E+00  0.5721286E+00 -0.1140628E+01 -0.2385911E+00  0.5200052E+00
  0.7215620E+01  0.1349950E+02 -0.1027320E+00  0.5569894E+00 -0.1180699E+01 -0.2118109E+00  0.5151440E+00
  0.5857700E+01  0.1414170E+02 -0.1027320E+00  0.5318923E+00 -0.1223528E+01 -0.1810193E+00  0.5001414E+00
  0.4443360E+01  0.1464780E+02 -0.1027320E+00  0.4995356E+00 -0.1273023E+01 -0.1465601E+00  0.4775521E+00
  0.2986230E+01  0.1501280E+02 -0.1027320E+00  0.4462644E+00 -0.1331947E+01 -0.1055793E+00  0.4335953E+00
  0.1500340E+01  0.1523320E+02 -0.1027320E+00  0.2672160E+00 -0.1413251E+01 -0.4192473E-01  0.2639066E+00
 -0.6690860E-06  0.1530690E+02 -0.1027320E+00  0.1396327E+00 -0.1640195E+01  0.9682577E-02  0.1392966E+00
 -0.1500340E+01  0.1523320E+02 -0.1027320E+00  0.6383871E-01 -0.3065284E+01  0.6365293E-01  0.4866683E-02
 -0.2986230E+01  0.1501280E+02 -0.1027320E+00  0.2488611E+00  0.2154506E+01  0.1371532E+00 -0.2076556E+00
 -0.4443360E+01  0.1464780E+02 -0.1027320E+00  0.3205876E+00  0.2152245E+01  0.1760779E+00 -0.2679048E+00
 -0.5857700E+01  0.1414170E+02 -0.1027320E+00  0.3630991E+00  0.2176928E+01  0.2068549E+00 -0.2984158E+00
 -0.7215620E+01  0.1349950E+02 -0.1027320E+00  0.3958490E+00  0.2203929E+01  0.2342132E+00 -0.3191248E+00
 -0.8504060E+01  0.1272720E+02 -0.1027320E+00  0.4174320E+00  0.2236586E+01  0.2578396E+00 -0.3282807E+00
 -0.9710590E+01  0.1183240E+02 -0.1027320E+00  0.4408510E+00  0.2261115E+01  0.2807263E+00 -0.3399152E+00
 -0.1082360E+02  0.1082360E+02 -0.1027320E+00  0.4586326E+00  0.2286069E+01  0.3007819E+00 -0.3462285E+00
 -0.1183240E+02  0.9710590E+01 -0.1027320E+00  0.4735646E+00  0.2309388E+01  0.3188260E+00 -0.3501620E+00
 -0.1272720E+02  0.8504060E+01 -0.1027320E+00  0.4887043E+00  0.2327721E+01  0.3355880E+00 -0.3552641E+00
 -0.1349950E+02  0.7215620E+01 -0.1027320E+00  0.5023921E+00  0.2343391E+01  0.3506674E+00 -0.3597640E+00
 -0.1414170E+02  0.5857690E+01 -0.1027320E+00  0.5124844E+00  0.2359065E+01  0.3634199E+00 -0.3613396E+00
 -0.1464780E+02  0.4443360E+01 -0.1027320E+00  0.5175628E+00  0.2376005E+01  0.3731501E+00 -0.3586507E+00
 -0.1501280E+02  0.2986230E+01 -0.1027320E+00  0.5211435E+00  0.2390028E+01  0.3807588E+00 -0.3558276E+00
 -0.1523320E+02  0.1500340E+01 -0.1027320E+00  0.5245710E+00  0.2399381E+01  0.3865961E+00 -0.3545677E+00
 -0.1530690E+02 -0.1338170E-05 -0.1027320E+00  0.5280085E+00  0.2403861E+01  0.3907241E+00 -0.3551445E+00
 -0.1523320E+02 -0.1500340E+01 -0.1027320E+00  0.5305128E+00  0.2405069E+01  0.3930082E+00 -0.3563543E+00
 -0.1501280E+02 -0.2986230E+01 -0.1027320E+00  0.5331284E+00  0.2402133E+01  0.3938928E+00 -0.3592692E+00
 -0.1464780E+02 -0.4443360E+01 -0.1027320E+00  0.5356900E+00  0.2395349E+01  0.3933272E+00 -0.3636723E+00
 -0.1414170E+02 -0.5857700E+01 -0.1027320E+00  0.5368088E+00  0.2386128E+01  0.3907717E+00 -0.3680505E+00
 -0.1349950E+02 -0.7215620E+01 -0.1027320E+00  0.5327347E+00  0.2377633E+01  0.3846889E+00 -0.3685386E+00
 -0.1272720E+02 -0.8504060E+01 -0.1027320E+00  0.5248502E+00  0.2368318E+01  0.3755970E+00 -0.3665987E+00
 -0.1183240E+02 -0.9710600E+01 -0.1027320E+00  0.5155724E+00  0.2356579E+01  0.3647049E+00 -0.3644244E+00
 -0.1082360E+02 -0.1082360E+02 -0.1027320E+00  0.5065602E+00  0.2341767E+01  0.3529872E+00 -0.3633225E+00
 -0.9710600E+01 -0.1183240E+02 -0.1027320E+00  0.4946902E+00  0.2325888E+01  0.3390387E+00 -0.3602376E+00
 -0.8504050E+01 -0.1272720E+02 -0.1027320E+00  0.4776224E+00  0.2309789E+01  0.3216996E+00 -0.3530334E+00
 -0.7215620E+01 -0.1349950E+02 -0.1027320E+00  0.4632941E+00  0.2288641E+01  0.3047376E+00 -0.3489648E+00
 -0.5857690E+01 -0.1414170E+02 -0.1027320E+00  0.4381058E+00  0.2271062E+01  0.2823245E+00 -0.3350068E+00
 -0.4443360E+01 -0.1464780E+02 -0.1027320E+00  0.4049557E+00  0.2255021E+01  0.2559611E+00 -0.3138040E+00
 -0.2986230E+01 -0.1501280E+02 -0.1027320E+00  0.3486541E+00  0.2245959E+01  0.2179174E+00 -0.2721611E+00
 -0.1500340E+01 -0.1523320E+02 -0.1027320E+00  0.1544959E+00  0.2375225E+01  0.1113042E+00 -0.1071465E+00
  0.1825330E-06 -0.1530690E+02 -0.1027320E+00  0.3566236E-01 -0.2674291E+01  0.3183889E-01  0.1606515E-01
  0.1500340E+01 -0.1523320E+02 -0.1027320E+00  0.1578436E+00 -0.1274486E+01 -0.4608932E-01  0.1509649E+00
  0.2986230E+01 -0.1501280E+02 -0.1027320E+00  0.3951743E+00 -0.1191689E+01 -0.1462504E+00  0.3671152E+00
  0.4443360E+01 -0.1464780E+02 -0.1027320E+00  0.4687225E+00 -0.1157117E+01 -0.1884175E+00  0.4291848E+00
  0.5857700E+01 -0.1414170E+02 -0.1027320E+00  0.5106778E+00 -0.1124746E+01 -0.2203095E+00  0.4607120E+00
  0.7215620E+01 -0.1349950E+02 -0.1027320E+00  0.5422865E+00 -0.1095504E+01 -0.2481495E+00  0.4821788E+00
  0.8504060E+01 -0.1272720E+02 -0.1027320E+00  0.5613917E+00 -0.1068095E+01 -0.2704754E+00  0.4919387E+00
  0.9710600E+01 -0.1183240E+02 -0.1027320E+00  0.5829387E+00 -0.1044698E+01 -0.2927305E+00  0.5041095E+00
  0.1082360E+02 -0.1082360E+02 -0.1027320E+00  0.5985255E+00 -0.1022874E+01 -0.3117807E+00  0.5109067E+00
  0.1183240E+02 -0.9710590E+01 -0.1027320E+00  0.6109464E+00 -0.1003639E+01 -0.3282226E+00  0.5152916E+00
  0.1272720E+02 -0.8504060E+01 -0.1027320E+00  0.6237988E+00 -0.9880779E+00 -0.3432739E+00  0.5208532E+00
