 VARIABLES="X" "Y" "Z" "abs(eta) (m)" "angle(phi) (rad)" "PRE1" "PRE2"
ZONE N=   3200 ,E =    3136 ,F=FEPOINT,ET=QUADRILATERAL
  0.1010000E+02  0.0000000E+00  0.0000000E+00  0.4615671E+00 -0.1512154E+01 -0.2705192E-01  0.4607737E+00
  0.1005140E+02  0.9899730E+00  0.0000000E+00  0.4587882E+00 -0.1512116E+01 -0.2690626E-01  0.4579986E+00
  0.9905930E+01  0.1970410E+01  0.0000000E+00  0.4523600E+00 -0.1512130E+01 -0.2652290E-01  0.4515818E+00
  0.9665100E+01  0.2931880E+01  0.0000000E+00  0.4410917E+00 -0.1512112E+01 -0.2587033E-01  0.4403324E+00
  0.9331180E+01  0.3865100E+01  0.0000000E+00  0.4264315E+00 -0.1512154E+01 -0.2499267E-01  0.4256985E+00
  0.8907400E+01  0.4761110E+01  0.0000000E+00  0.4066443E+00 -0.1512121E+01 -0.2384616E-01  0.4059445E+00
  0.8397840E+01  0.5611260E+01  0.0000000E+00  0.3834898E+00 -0.1512130E+01 -0.2248490E-01  0.3828300E+00
  0.7807410E+01  0.6407370E+01  0.0000000E+00  0.3562405E+00 -0.1512106E+01 -0.2089595E-01  0.3556271E+00
  0.7141780E+01  0.7141780E+01  0.0000000E+00  0.3263788E+00 -0.1512154E+01 -0.1912865E-01  0.3258178E+00
  0.6407370E+01  0.7807410E+01  0.0000000E+00  0.2925874E+00 -0.1512129E+01 -0.1715545E-01  0.2920840E+00
  0.5611260E+01  0.8397840E+01  0.0000000E+00  0.2562431E+00 -0.1512131E+01 -0.1502402E-01  0.2558022E+00
  0.4761110E+01  0.8907410E+01  0.0000000E+00  0.2171535E+00 -0.1512093E+01 -0.1274026E-01  0.2167795E+00
  0.3865100E+01  0.9331180E+01  0.0000000E+00  0.1766336E+00 -0.1512153E+01 -0.1035237E-01  0.1763300E+00
  0.2931870E+01  0.9665100E+01  0.0000000E+00  0.1339897E+00 -0.1512154E+01 -0.7852959E-02  0.1337593E+00
  0.1970410E+01  0.9905930E+01  0.0000000E+00  0.8997600E-01 -0.1512128E+01 -0.5275675E-02  0.8982120E-01
  0.9899730E+00  0.1005140E+02  0.0000000E+00  0.4500772E-01 -0.1511994E+01 -0.2645027E-02  0.4492993E-01
 -0.4414850E-06  0.1010000E+02  0.0000000E+00  0.3327145E-06 -0.1141279E+01 -0.1385531E-06  0.3024930E-06
 -0.9899740E+00  0.1005140E+02  0.0000000E+00  0.4500713E-01  0.1629595E+01  0.2644854E-02 -0.4492935E-01
 -0.1970410E+01  0.9905930E+01  0.0000000E+00  0.8997548E-01  0.1629462E+01  0.5275436E-02 -0.8982069E-01
 -0.2931880E+01  0.9665100E+01  0.0000000E+00  0.1339896E+00  0.1629438E+01  0.7852860E-02 -0.1337593E+00
 -0.3865100E+01  0.9331180E+01  0.0000000E+00  0.1766332E+00  0.1629438E+01  0.1035205E-01 -0.1763296E+00
 -0.4761110E+01  0.8907400E+01  0.0000000E+00  0.2171532E+00  0.1629498E+01  0.1274004E-01 -0.2167792E+00
 -0.5611260E+01  0.8397840E+01  0.0000000E+00  0.2562426E+00  0.1629462E+01  0.1502389E-01 -0.2558018E+00
 -0.6407370E+01  0.7807410E+01  0.0000000E+00  0.2925866E+00  0.1629462E+01  0.1715504E-01 -0.2920833E+00
 -0.7141780E+01  0.7141780E+01  0.0000000E+00  0.3263780E+00  0.1629438E+01  0.1912827E-01 -0.3258170E+00
 -0.7807410E+01  0.6407370E+01  0.0000000E+00  0.3562405E+00  0.1629487E+01  0.2089586E-01 -0.3556271E+00
 -0.8397840E+01  0.5611260E+01  0.0000000E+00  0.3834897E+00  0.1629462E+01  0.2248467E-01 -0.3828300E+00
 -0.8907410E+01  0.4761110E+01  0.0000000E+00  0.4066449E+00  0.1629470E+01  0.2384585E-01 -0.4059451E+00
 -0.9331180E+01  0.3865100E+01  0.0000000E+00  0.4264319E+00  0.1629438E+01  0.2499239E-01 -0.4256989E+00
 -0.9665100E+01  0.2931880E+01  0.0000000E+00  0.4410917E+00  0.1629480E+01  0.2587020E-01 -0.4403324E+00
 -0.9905930E+01  0.1970410E+01  0.0000000E+00  0.4523591E+00  0.1629462E+01  0.2652269E-01 -0.4515809E+00
 -0.1005140E+02  0.9899730E+00  0.0000000E+00  0.4587883E+00  0.1629476E+01  0.2690626E-01 -0.4579986E+00
 -0.1010000E+02 -0.8829700E-06  0.0000000E+00  0.4615667E+00  0.1629438E+01  0.2705153E-01 -0.4607733E+00
 -0.1005140E+02 -0.9899740E+00  0.0000000E+00  0.4587885E+00  0.1629476E+01  0.2690607E-01 -0.4579989E+00
 -0.9905930E+01 -0.1970410E+01  0.0000000E+00  0.4523591E+00  0.1629462E+01  0.2652249E-01 -0.4515809E+00
 -0.9665100E+01 -0.2931880E+01  0.0000000E+00  0.4410911E+00  0.1629480E+01  0.2587016E-01 -0.4403318E+00
 -0.9331180E+01 -0.3865100E+01  0.0000000E+00  0.4264307E+00  0.1629438E+01  0.2499244E-01 -0.4256977E+00
 -0.8907400E+01 -0.4761110E+01  0.0000000E+00  0.4066442E+00  0.1629470E+01  0.2384583E-01 -0.4059444E+00
 -0.8397840E+01 -0.5611260E+01  0.0000000E+00  0.3834888E+00  0.1629462E+01  0.2248472E-01 -0.3828291E+00
 -0.7807400E+01 -0.6407370E+01  0.0000000E+00  0.3562394E+00  0.1629486E+01  0.2089573E-01 -0.3556261E+00
 -0.7141780E+01 -0.7141780E+01  0.0000000E+00  0.3263775E+00  0.1629438E+01  0.1912847E-01 -0.3258164E+00
 -0.6407370E+01 -0.7807410E+01  0.0000000E+00  0.2925863E+00  0.1629463E+01  0.1715517E-01 -0.2920829E+00
 -0.5611260E+01 -0.8397850E+01  0.0000000E+00  0.2562414E+00  0.1629461E+01  0.1502377E-01 -0.2558005E+00
 -0.4761110E+01 -0.8907410E+01  0.0000000E+00  0.2171525E+00  0.1629498E+01  0.1273999E-01 -0.2167785E+00
 -0.3865100E+01 -0.9331190E+01  0.0000000E+00  0.1766324E+00  0.1629438E+01  0.1035211E-01 -0.1763288E+00
 -0.2931870E+01 -0.9665100E+01  0.0000000E+00  0.1339888E+00  0.1629438E+01  0.7852813E-02 -0.1337585E+00
 -0.1970410E+01 -0.9905930E+01  0.0000000E+00  0.8997554E-01  0.1629462E+01  0.5275438E-02 -0.8982076E-01
 -0.9899710E+00 -0.1005140E+02  0.0000000E+00  0.4500705E-01  0.1629596E+01  0.2644862E-02 -0.4492927E-01
  0.1204410E-06 -0.1010000E+02  0.0000000E+00  0.1593145E-06 -0.1154110E+01 -0.6447970E-07  0.1456828E-06
  0.9899760E+00 -0.1005140E+02  0.0000000E+00  0.4500747E-01 -0.1511993E+01 -0.2645083E-02  0.4492968E-01
  0.1970410E+01 -0.9905930E+01  0.0000000E+00  0.8997557E-01 -0.1512128E+01 -0.5275692E-02  0.8982077E-01
  0.2931880E+01 -0.9665100E+01  0.0000000E+00  0.1339895E+00 -0.1512153E+01 -0.7853095E-02  0.1337591E+00
  0.3865100E+01 -0.9331180E+01  0.0000000E+00  0.1766331E+00 -0.1512154E+01 -0.1035228E-01  0.1763294E+00
  0.4761110E+01 -0.8907410E+01  0.0000000E+00  0.2171527E+00 -0.1512093E+01 -0.1274034E-01  0.2167787E+00
  0.5611260E+01 -0.8397840E+01  0.0000000E+00  0.2562423E+00 -0.1512130E+01 -0.1502404E-01  0.2558014E+00
  0.6407370E+01 -0.7807410E+01  0.0000000E+00  0.2925860E+00 -0.1512129E+01 -0.1715543E-01  0.2920826E+00
  0.7141780E+01 -0.7141780E+01  0.0000000E+00  0.3263772E+00 -0.1512154E+01 -0.1912856E-01  0.3258162E+00
  0.7807410E+01 -0.6407370E+01  0.0000000E+00  0.3562398E+00 -0.1512105E+01 -0.2089609E-01  0.3556264E+00
  0.8397840E+01 -0.5611260E+01  0.0000000E+00  0.3834893E+00 -0.1512130E+01 -0.2248500E-01  0.3828296E+00
  0.8907410E+01 -0.4761110E+01  0.0000000E+00  0.4066437E+00 -0.1512121E+01 -0.2384608E-01  0.4059439E+00
  0.9331180E+01 -0.3865100E+01  0.0000000E+00  0.4264312E+00 -0.1512154E+01 -0.2499264E-01  0.4256982E+00
  0.9665100E+01 -0.2931870E+01  0.0000000E+00  0.4410915E+00 -0.1512111E+01 -0.2587059E-01  0.4403322E+00
  0.9905930E+01 -0.1970410E+01  0.0000000E+00  0.4523592E+00 -0.1512130E+01 -0.2652287E-01  0.4515810E+00
  0.1005140E+02 -0.9899690E+00  0.0000000E+00  0.4587883E+00 -0.1512116E+01 -0.2690630E-01  0.4579986E+00
  0.1010000E+02  0.0000000E+00 -0.2568960E-01  0.4613343E+00 -0.1512161E+01 -0.2703502E-01  0.4605415E+00
  0.1005140E+02  0.9899730E+00 -0.2568960E-01  0.4585256E+00 -0.1512120E+01 -0.2688893E-01  0.4577365E+00
  0.9905930E+01  0.1970410E+01 -0.2568960E-01  0.4518398E+00 -0.1512117E+01 -0.2649848E-01  0.4510621E+00
  0.9665100E+01  0.2931880E+01 -0.2568960E-01  0.4408376E+00 -0.1512116E+01 -0.2585363E-01  0.4400789E+00
  0.9331180E+01  0.3865100E+01 -0.2568960E-01  0.4262173E+00 -0.1512161E+01 -0.2497729E-01  0.4254849E+00
  0.8907400E+01  0.4761110E+01 -0.2568960E-01  0.4064127E+00 -0.1512126E+01 -0.2383066E-01  0.4057134E+00
  0.8397840E+01  0.5611260E+01 -0.2568960E-01  0.3830500E+00 -0.1512117E+01 -0.2246419E-01  0.3823907E+00
  0.7807410E+01  0.6407370E+01 -0.2568960E-01  0.3560349E+00 -0.1512110E+01 -0.2088230E-01  0.3554220E+00
  0.7141780E+01  0.7141780E+01 -0.2568960E-01  0.3262137E+00 -0.1512161E+01 -0.1911684E-01  0.3256531E+00
  0.6407370E+01  0.7807410E+01 -0.2568960E-01  0.2924213E+00 -0.1512134E+01 -0.1714432E-01  0.2919183E+00
  0.5611260E+01  0.8397840E+01 -0.2568960E-01  0.2559485E+00 -0.1512117E+01 -0.1501023E-01  0.2555079E+00
  0.4761110E+01  0.8907410E+01 -0.2568960E-01  0.2170273E+00 -0.1512097E+01 -0.1273197E-01  0.2166535E+00
  0.3865100E+01  0.9331180E+01 -0.2568960E-01  0.1765447E+00 -0.1512160E+01 -0.1034604E-01  0.1762413E+00
  0.2931870E+01  0.9665100E+01 -0.2568960E-01  0.1339146E+00 -0.1512159E+01 -0.7847963E-02  0.1336845E+00
  0.1970410E+01  0.9905930E+01 -0.2568960E-01  0.8987245E-01 -0.1512114E+01 -0.5270880E-02  0.8971775E-01
  0.9899730E+00  0.1005140E+02 -0.2568960E-01  0.4497956E-01 -0.1511996E+01 -0.2643280E-02  0.4490183E-01
 -0.4414850E-06  0.1010000E+02 -0.2568960E-01  0.3509535E-06 -0.1072705E+01 -0.1676680E-06  0.3083112E-06
 -0.9899740E+00  0.1005140E+02 -0.2568960E-01  0.4497905E-01  0.1629592E+01  0.2643052E-02 -0.4490133E-01
 -0.1970410E+01  0.9905930E+01 -0.2568960E-01  0.8987178E-01  0.1629476E+01  0.5270585E-02 -0.8971710E-01
 -0.2931880E+01  0.9665100E+01 -0.2568960E-01  0.1339149E+00  0.1629433E+01  0.7847819E-02 -0.1336847E+00
 -0.3865100E+01  0.9331180E+01 -0.2568960E-01  0.1765442E+00  0.1629431E+01  0.1034576E-01 -0.1762408E+00
 -0.4761110E+01  0.8907400E+01 -0.2568960E-01  0.2170266E+00  0.1629494E+01  0.1273170E-01 -0.2166528E+00
 -0.5611260E+01  0.8397840E+01 -0.2568960E-01  0.2559482E+00  0.1629475E+01  0.1501002E-01 -0.2555076E+00
 -0.6407370E+01  0.7807410E+01 -0.2568960E-01  0.2924203E+00  0.1629458E+01  0.1714408E-01 -0.2919173E+00
 -0.7141780E+01  0.7141780E+01 -0.2568960E-01  0.3262134E+00  0.1629431E+01  0.1911658E-01 -0.3256527E+00
 -0.7807410E+01  0.6407370E+01 -0.2568960E-01  0.3560345E+00  0.1629482E+01  0.2088211E-01 -0.3554216E+00
 -0.8397840E+01  0.5611260E+01 -0.2568960E-01  0.3830493E+00  0.1629475E+01  0.2246412E-01 -0.3823900E+00
 -0.8907410E+01  0.4761110E+01 -0.2568960E-01  0.4064117E+00  0.1629466E+01  0.2383038E-01 -0.4057125E+00
 -0.9331180E+01  0.3865100E+01 -0.2568960E-01  0.4262168E+00  0.1629431E+01  0.2497694E-01 -0.4254843E+00
 -0.9665100E+01  0.2931880E+01 -0.2568960E-01  0.4408383E+00  0.1629476E+01  0.2585330E-01 -0.4400796E+00
 -0.9905930E+01  0.1970410E+01 -0.2568960E-01  0.4518388E+00  0.1629475E+01  0.2649814E-01 -0.4510612E+00
 -0.1005140E+02  0.9899730E+00 -0.2568960E-01  0.4585244E+00  0.1629472E+01  0.2688860E-01 -0.4577353E+00
 -0.1010000E+02 -0.8829700E-06 -0.2568960E-01  0.4613343E+00  0.1629431E+01  0.2703476E-01 -0.4605415E+00
 -0.1005140E+02 -0.9899740E+00 -0.2568960E-01  0.4585242E+00  0.1629472E+01  0.2688863E-01 -0.4577352E+00
 -0.9905930E+01 -0.1970410E+01 -0.2568960E-01  0.4518393E+00  0.1629475E+01  0.2649825E-01 -0.4510617E+00
 -0.9665100E+01 -0.2931880E+01 -0.2568960E-01  0.4408370E+00  0.1629476E+01  0.2585326E-01 -0.4400783E+00
 -0.9331180E+01 -0.3865100E+01 -0.2568960E-01  0.4262165E+00  0.1629431E+01  0.2497698E-01 -0.4254841E+00
 -0.8907400E+01 -0.4761110E+01 -0.2568960E-01  0.4064116E+00  0.1629466E+01  0.2383031E-01 -0.4057123E+00
 -0.8397840E+01 -0.5611260E+01 -0.2568960E-01  0.3830489E+00  0.1629475E+01  0.2246387E-01 -0.3823896E+00
 -0.7807400E+01 -0.6407370E+01 -0.2568960E-01  0.3560337E+00  0.1629482E+01  0.2088206E-01 -0.3554208E+00
 -0.7141780E+01 -0.7141780E+01 -0.2568960E-01  0.3262125E+00  0.1629431E+01  0.1911653E-01 -0.3256519E+00
 -0.6407370E+01 -0.7807410E+01 -0.2568960E-01  0.2924200E+00  0.1629458E+01  0.1714396E-01 -0.2919170E+00
 -0.5611260E+01 -0.8397850E+01 -0.2568960E-01  0.2559468E+00  0.1629475E+01  0.1500993E-01 -0.2555063E+00
 -0.4761110E+01 -0.8907410E+01 -0.2568960E-01  0.2170259E+00  0.1629495E+01  0.1273171E-01 -0.2166521E+00
 -0.3865100E+01 -0.9331190E+01 -0.2568960E-01  0.1765434E+00  0.1629431E+01  0.1034566E-01 -0.1762400E+00
 -0.2931870E+01 -0.9665100E+01 -0.2568960E-01  0.1339139E+00  0.1629434E+01  0.7847899E-02 -0.1336838E+00
 -0.1970410E+01 -0.9905930E+01 -0.2568960E-01  0.8987175E-01  0.1629475E+01  0.5270564E-02 -0.8971707E-01
 -0.9899710E+00 -0.1005140E+02 -0.2568960E-01  0.4497890E-01  0.1629593E+01  0.2643093E-02 -0.4490117E-01
  0.1204410E-06 -0.1010000E+02 -0.2568960E-01  0.2361760E-06 -0.9938285E+00 -0.1288305E-06  0.1979439E-06
  0.9899760E+00 -0.1005140E+02 -0.2568960E-01  0.4497943E-01 -0.1511994E+01 -0.2643382E-02  0.4490170E-01
  0.1970410E+01 -0.9905930E+01 -0.2568960E-01  0.8987212E-01 -0.1512115E+01 -0.5270757E-02  0.8971743E-01
  0.2931880E+01 -0.9665100E+01 -0.2568960E-01  0.1339147E+00 -0.1512158E+01 -0.7848012E-02  0.1336845E+00
  0.3865100E+01 -0.9331180E+01 -0.2568960E-01  0.1765440E+00 -0.1512161E+01 -0.1034586E-01  0.1762406E+00
  0.4761110E+01 -0.8907410E+01 -0.2568960E-01  0.2170260E+00 -0.1512097E+01 -0.1273196E-01  0.2166522E+00
  0.5611260E+01 -0.8397840E+01 -0.2568960E-01  0.2559478E+00 -0.1512117E+01 -0.1501034E-01  0.2555072E+00
  0.6407370E+01 -0.7807410E+01 -0.2568960E-01  0.2924197E+00 -0.1512134E+01 -0.1714430E-01  0.2919167E+00
  0.7141780E+01 -0.7141780E+01 -0.2568960E-01  0.3262128E+00 -0.1512160E+01 -0.1911682E-01  0.3256522E+00
  0.7807410E+01 -0.6407370E+01 -0.2568960E-01  0.3560338E+00 -0.1512110E+01 -0.2088227E-01  0.3554209E+00
  0.8397840E+01 -0.5611260E+01 -0.2568960E-01  0.3830485E+00 -0.1512117E+01 -0.2246418E-01  0.3823892E+00
  0.8907410E+01 -0.4761110E+01 -0.2568960E-01  0.4064113E+00 -0.1512126E+01 -0.2383072E-01  0.4057120E+00
  0.9331180E+01 -0.3865100E+01 -0.2568960E-01  0.4262162E+00 -0.1512161E+01 -0.2497723E-01  0.4254838E+00
  0.9665100E+01 -0.2931870E+01 -0.2568960E-01  0.4408379E+00 -0.1512116E+01 -0.2585361E-01  0.4400791E+00
  0.9905930E+01 -0.1970410E+01 -0.2568960E-01  0.4518394E+00 -0.1512117E+01 -0.2649841E-01  0.4510617E+00
  0.1005140E+02 -0.9899690E+00 -0.2568960E-01  0.4585248E+00 -0.1512121E+01 -0.2688882E-01  0.4577357E+00
  0.1010000E+02  0.0000000E+00 -0.1027320E+00  0.4605355E+00 -0.1512174E+01 -0.2698212E-01  0.4597444E+00
  0.1005140E+02  0.9899730E+00 -0.1027320E+00  0.4576326E+00 -0.1512128E+01 -0.2683337E-01  0.4568452E+00
  0.9905930E+01  0.1970410E+01 -0.1027320E+00  0.4508078E+00 -0.1512113E+01 -0.2643953E-01  0.4500318E+00
  0.9665100E+01  0.2931880E+01 -0.1027320E+00  0.4399774E+00 -0.1512123E+01 -0.2580013E-01  0.4392203E+00
  0.9331180E+01  0.3865100E+01 -0.1027320E+00  0.4254792E+00 -0.1512174E+01 -0.2492824E-01  0.4247483E+00
  0.8907400E+01  0.4761110E+01 -0.1027320E+00  0.4056241E+00 -0.1512133E+01 -0.2378145E-01  0.4049264E+00
  0.8397840E+01  0.5611260E+01 -0.1027320E+00  0.3821739E+00 -0.1512113E+01 -0.2241427E-01  0.3815160E+00
  0.7807410E+01  0.6407370E+01 -0.1027320E+00  0.3553377E+00 -0.1512117E+01 -0.2083915E-01  0.3547261E+00
  0.7141780E+01  0.7141780E+01 -0.1027320E+00  0.3256490E+00 -0.1512174E+01 -0.1907940E-01  0.3250896E+00
  0.6407370E+01  0.7807410E+01 -0.1027320E+00  0.2918565E+00 -0.1512141E+01 -0.1710902E-01  0.2913546E+00
  0.5611260E+01  0.8397840E+01 -0.1027320E+00  0.2553641E+00 -0.1512114E+01 -0.1497685E-01  0.2549246E+00
  0.4761110E+01  0.8907410E+01 -0.1027320E+00  0.2165986E+00 -0.1512103E+01 -0.1270551E-01  0.2162257E+00
  0.3865100E+01  0.9331180E+01 -0.1027320E+00  0.1762393E+00 -0.1512174E+01 -0.1032570E-01  0.1759365E+00
  0.2931870E+01  0.9665100E+01 -0.1027320E+00  0.1336602E+00 -0.1512167E+01 -0.7831903E-02  0.1334306E+00
  0.1970410E+01  0.9905930E+01 -0.1027320E+00  0.8966739E-01 -0.1512111E+01 -0.5259099E-02  0.8951303E-01
  0.9899730E+00  0.1005140E+02 -0.1027320E+00  0.4488575E-01 -0.1511997E+01 -0.2637743E-02  0.4480818E-01
 -0.4414850E-06  0.1010000E+02 -0.1027320E+00  0.3678417E-06 -0.1105634E+01 -0.1650019E-06  0.3287581E-06
 -0.9899740E+00  0.1005140E+02 -0.1027320E+00  0.4488511E-01  0.1629588E+01  0.2637344E-02 -0.4480756E-01
 -0.1970410E+01  0.9905930E+01 -0.1027320E+00  0.8966684E-01  0.1629478E+01  0.5258761E-02 -0.8951250E-01
 -0.2931880E+01  0.9665100E+01 -0.1027320E+00  0.1336602E+00  0.1629424E+01  0.7831664E-02 -0.1334305E+00
 -0.3865100E+01  0.9331180E+01 -0.1027320E+00  0.1762389E+00  0.1629418E+01  0.1032545E-01 -0.1759362E+00
 -0.4761110E+01  0.8907400E+01 -0.1027320E+00  0.2165984E+00  0.1629488E+01  0.1270525E-01 -0.2162255E+00
 -0.5611260E+01  0.8397840E+01 -0.1027320E+00  0.2553634E+00  0.1629478E+01  0.1497658E-01 -0.2549239E+00
 -0.6407370E+01  0.7807410E+01 -0.1027320E+00  0.2918561E+00  0.1629450E+01  0.1710864E-01 -0.2913542E+00
 -0.7141780E+01  0.7141780E+01 -0.1027320E+00  0.3256489E+00  0.1629418E+01  0.1907914E-01 -0.3250895E+00
 -0.7807410E+01  0.6407370E+01 -0.1027320E+00  0.3553375E+00  0.1629475E+01  0.2083886E-01 -0.3547259E+00
 -0.8397840E+01  0.5611260E+01 -0.1027320E+00  0.3821741E+00  0.1629479E+01  0.2241407E-01 -0.3815162E+00
 -0.8907410E+01  0.4761110E+01 -0.1027320E+00  0.4056233E+00  0.1629459E+01  0.2378128E-01 -0.4049256E+00
 -0.9331180E+01  0.3865100E+01 -0.1027320E+00  0.4254782E+00  0.1629418E+01  0.2492781E-01 -0.4247473E+00
 -0.9665100E+01  0.2931880E+01 -0.1027320E+00  0.4399777E+00  0.1629469E+01  0.2579994E-01 -0.4392206E+00
 -0.9905930E+01  0.1970410E+01 -0.1027320E+00  0.4508072E+00  0.1629478E+01  0.2643912E-01 -0.4500313E+00
 -0.1005140E+02  0.9899730E+00 -0.1027320E+00  0.4576327E+00  0.1629464E+01  0.2683304E-01 -0.4568453E+00
 -0.1010000E+02 -0.8829700E-06 -0.1027320E+00  0.4605353E+00  0.1629418E+01  0.2698185E-01 -0.4597442E+00
 -0.1005140E+02 -0.9899740E+00 -0.1027320E+00  0.4576325E+00  0.1629464E+01  0.2683301E-01 -0.4568451E+00
 -0.9905930E+01 -0.1970410E+01 -0.1027320E+00  0.4508081E+00  0.1629478E+01  0.2643908E-01 -0.4500322E+00
 -0.9665100E+01 -0.2931880E+01 -0.1027320E+00  0.4399773E+00  0.1629469E+01  0.2579994E-01 -0.4392202E+00
 -0.9331180E+01 -0.3865100E+01 -0.1027320E+00  0.4254775E+00  0.1629418E+01  0.2492790E-01 -0.4247466E+00
 -0.8907400E+01 -0.4761110E+01 -0.1027320E+00  0.4056230E+00  0.1629459E+01  0.2378129E-01 -0.4049253E+00
 -0.8397840E+01 -0.5611260E+01 -0.1027320E+00  0.3821729E+00  0.1629479E+01  0.2241404E-01 -0.3815150E+00
 -0.7807400E+01 -0.6407370E+01 -0.1027320E+00  0.3553367E+00  0.1629475E+01  0.2083870E-01 -0.3547251E+00
 -0.7141780E+01 -0.7141780E+01 -0.1027320E+00  0.3256476E+00  0.1629418E+01  0.1907902E-01 -0.3250882E+00
 -0.6407370E+01 -0.7807410E+01 -0.1027320E+00  0.2918552E+00  0.1629451E+01  0.1710874E-01 -0.2913533E+00
 -0.5611260E+01 -0.8397850E+01 -0.1027320E+00  0.2553621E+00  0.1629478E+01  0.1497646E-01 -0.2549225E+00
 -0.4761110E+01 -0.8907410E+01 -0.1027320E+00  0.2165974E+00  0.1629489E+01  0.1270536E-01 -0.2162245E+00
 -0.3865100E+01 -0.9331190E+01 -0.1027320E+00  0.1762379E+00  0.1629418E+01  0.1032539E-01 -0.1759352E+00
 -0.2931870E+01 -0.9665100E+01 -0.1027320E+00  0.1336596E+00  0.1629424E+01  0.7831668E-02 -0.1334300E+00
 -0.1970410E+01 -0.9905930E+01 -0.1027320E+00  0.8966672E-01  0.1629480E+01  0.5258989E-02 -0.8951237E-01
 -0.9899710E+00 -0.1005140E+02 -0.1027320E+00  0.4488492E-01  0.1629590E+01  0.2637442E-02 -0.4480736E-01
  0.1204410E-06 -0.1010000E+02 -0.1027320E+00  0.1533659E-06 -0.6955063E+00 -0.1177435E-06  0.9827294E-07
  0.9899760E+00 -0.1005140E+02 -0.1027320E+00  0.4488549E-01 -0.1511999E+01 -0.2637639E-02  0.4480792E-01
  0.1970410E+01 -0.9905930E+01 -0.1027320E+00  0.8966683E-01 -0.1512111E+01 -0.5259129E-02  0.8951247E-01
  0.2931880E+01 -0.9665100E+01 -0.1027320E+00  0.1336602E+00 -0.1512166E+01 -0.7832035E-02  0.1334306E+00
  0.3865100E+01 -0.9331180E+01 -0.1027320E+00  0.1762385E+00 -0.1512173E+01 -0.1032575E-01  0.1759357E+00
  0.4761110E+01 -0.8907410E+01 -0.1027320E+00  0.2165978E+00 -0.1512103E+01 -0.1270551E-01  0.2162248E+00
  0.5611260E+01 -0.8397840E+01 -0.1027320E+00  0.2553628E+00 -0.1512114E+01 -0.1497677E-01  0.2549233E+00
  0.6407370E+01 -0.7807410E+01 -0.1027320E+00  0.2918554E+00 -0.1512141E+01 -0.1710901E-01  0.2913535E+00
  0.7141780E+01 -0.7141780E+01 -0.1027320E+00  0.3256479E+00 -0.1512174E+01 -0.1907934E-01  0.3250885E+00
  0.7807410E+01 -0.6407370E+01 -0.1027320E+00  0.3553368E+00 -0.1512116E+01 -0.2083920E-01  0.3547252E+00
  0.8397840E+01 -0.5611260E+01 -0.1027320E+00  0.3821736E+00 -0.1512113E+01 -0.2241436E-01  0.3815157E+00
