 VARIABLES="X" "Y" "Z" "abs(eta) (m)" "angle(phi) (rad)" "PRE1" "PRE2"
ZONE N=   3200 ,E =    3136 ,F=FEPOINT,ET=QUADRILATERAL
  0.1100000E+02  0.0000000E+00  0.0000000E+00  0.1533083E+00 -0.1999307E+01  0.6370214E-01  0.1394470E+00
  0.1094700E+02  0.1078190E+01  0.0000000E+00  0.1887481E+00 -0.1804097E+01  0.4363662E-01  0.1836347E+00
  0.1078860E+02  0.2145990E+01  0.0000000E+00  0.2296017E+00 -0.1687573E+01  0.2675114E-01  0.2280380E+00
  0.1052630E+02  0.3193130E+01  0.0000000E+00  0.2725875E+00 -0.1619545E+01  0.1328311E-01  0.2722636E+00
  0.1016270E+02  0.4209520E+01  0.0000000E+00  0.3159404E+00 -0.1580809E+01  0.3163343E-02  0.3159246E+00
  0.9701130E+01  0.5185360E+01  0.0000000E+00  0.3584787E+00 -0.1559663E+01 -0.3990925E-02  0.3584565E+00
  0.9146170E+01  0.6111270E+01  0.0000000E+00  0.3989472E+00 -0.1550355E+01 -0.8154256E-02  0.3988638E+00
  0.8503110E+01  0.6978330E+01  0.0000000E+00  0.4367462E+00 -0.1549022E+01 -0.9509016E-02  0.4366426E+00
  0.7778170E+01  0.7778170E+01  0.0000000E+00  0.4718799E+00 -0.1552897E+01 -0.8446023E-02  0.4718043E+00
  0.6978330E+01  0.8503110E+01  0.0000000E+00  0.5044914E+00 -0.1559623E+01 -0.5636665E-02  0.5044600E+00
  0.6111270E+01  0.9146170E+01  0.0000000E+00  0.5335993E+00 -0.1567872E+01 -0.1560277E-02  0.5335970E+00
  0.5185360E+01  0.9701130E+01  0.0000000E+00  0.5588017E+00 -0.1576818E+01  0.3364876E-02  0.5587915E+00
  0.4209520E+01  0.1016270E+02  0.0000000E+00  0.5805013E+00 -0.1585896E+01  0.8765220E-02  0.5804351E+00
  0.3193130E+01  0.1052630E+02  0.0000000E+00  0.5993739E+00 -0.1594467E+01  0.1418646E-01  0.5992060E+00
  0.2145990E+01  0.1078860E+02  0.0000000E+00  0.6144658E+00 -0.1601729E+01  0.1900409E-01  0.6141718E+00
  0.1078190E+01  0.1094700E+02  0.0000000E+00  0.6253561E+00 -0.1607334E+01  0.2284380E-01  0.6249388E+00
 -0.4808250E-06  0.1100000E+02  0.0000000E+00  0.6325572E+00 -0.1611270E+01  0.2559504E-01  0.6320392E+00
 -0.1078190E+01  0.1094700E+02  0.0000000E+00  0.6369649E+00 -0.1613645E+01  0.2728474E-01  0.6363802E+00
 -0.2145990E+01  0.1078860E+02  0.0000000E+00  0.6376347E+00 -0.1613974E+01  0.2752297E-01  0.6370404E+00
 -0.3193130E+01  0.1052630E+02  0.0000000E+00  0.6340795E+00 -0.1612081E+01  0.2617055E-01  0.6335391E+00
 -0.4209520E+01  0.1016270E+02  0.0000000E+00  0.6267710E+00 -0.1608175E+01  0.2342234E-01  0.6263332E+00
 -0.5185370E+01  0.9701130E+01  0.0000000E+00  0.6166606E+00 -0.1602815E+01  0.1974127E-01  0.6163445E+00
 -0.6111270E+01  0.9146160E+01  0.0000000E+00  0.6028772E+00 -0.1596014E+01  0.1520155E-01  0.6026855E+00
 -0.6978330E+01  0.8503120E+01  0.0000000E+00  0.5849158E+00 -0.1587852E+01  0.9975578E-02  0.5848307E+00
 -0.7778170E+01  0.7778170E+01  0.0000000E+00  0.5631893E+00 -0.1578730E+01  0.4467908E-02  0.5631716E+00
 -0.8503120E+01  0.6978330E+01  0.0000000E+00  0.5386454E+00 -0.1569500E+01 -0.6981778E-03  0.5386450E+00
 -0.9146170E+01  0.6111270E+01  0.0000000E+00  0.5106921E+00 -0.1561027E+01 -0.4988989E-02  0.5106677E+00
 -0.9701130E+01  0.5185360E+01  0.0000000E+00  0.4789728E+00 -0.1554086E+01 -0.8003212E-02  0.4789059E+00
 -0.1016270E+02  0.4209520E+01  0.0000000E+00  0.4439009E+00 -0.1549739E+01 -0.9346620E-02  0.4438025E+00
 -0.1052630E+02  0.3193130E+01  0.0000000E+00  0.4064794E+00 -0.1549599E+01 -0.8615504E-02  0.4063881E+00
 -0.1078860E+02  0.2145990E+01  0.0000000E+00  0.3667188E+00 -0.1556738E+01 -0.5155146E-02  0.3666825E+00
 -0.1094700E+02  0.1078190E+01  0.0000000E+00  0.3247740E+00 -0.1575068E+01  0.1387479E-02  0.3247711E+00
 -0.1100000E+02 -0.9616510E-06  0.0000000E+00  0.2813740E+00 -0.1610316E+01  0.1111694E-01  0.2811543E+00
 -0.1094700E+02 -0.1078190E+01  0.0000000E+00  0.2379866E+00 -0.1671326E+01  0.2388452E-01  0.2367850E+00
 -0.1078860E+02 -0.2146000E+01  0.0000000E+00  0.1964510E+00 -0.1775625E+01  0.3995803E-01  0.1923444E+00
 -0.1052630E+02 -0.3193130E+01  0.0000000E+00  0.1596936E+00 -0.1951340E+01  0.5931430E-01  0.1482696E+00
 -0.1016270E+02 -0.4209520E+01  0.0000000E+00  0.1329221E+00 -0.2232115E+01  0.8163511E-01  0.1048999E+00
 -0.9701130E+01 -0.5185360E+01  0.0000000E+00  0.1233738E+00 -0.2608120E+01  0.1062306E+00  0.6273881E-01
 -0.9146160E+01 -0.6111270E+01  0.0000000E+00  0.1346264E+00 -0.2971295E+01  0.1326789E+00  0.2281589E-01
 -0.8503110E+01 -0.6978330E+01  0.0000000E+00  0.1611331E+00  0.3052459E+01  0.1604934E+00 -0.1434335E-01
 -0.7778170E+01 -0.7778180E+01  0.0000000E+00  0.1953238E+00  0.2889009E+01  0.1891262E+00 -0.4881261E-01
 -0.6978330E+01 -0.8503110E+01  0.0000000E+00  0.2322619E+00  0.2786400E+01  0.2177639E+00 -0.8077396E-01
 -0.6111270E+01 -0.9146170E+01  0.0000000E+00  0.2686383E+00  0.2722981E+01  0.2454425E+00 -0.1091994E+00
 -0.5185360E+01 -0.9701130E+01  0.0000000E+00  0.3025628E+00  0.2684044E+01  0.2714406E+00 -0.1336573E+00
 -0.4209510E+01 -0.1016270E+02  0.0000000E+00  0.3333591E+00  0.2659355E+01  0.2953425E+00 -0.1545997E+00
 -0.3193130E+01 -0.1052630E+02  0.0000000E+00  0.3607991E+00  0.2642236E+01  0.3167422E+00 -0.1727726E+00
 -0.2145990E+01 -0.1078860E+02  0.0000000E+00  0.3833873E+00  0.2631398E+01  0.3345628E+00 -0.1872259E+00
 -0.1078190E+01 -0.1094700E+02  0.0000000E+00  0.4003201E+00  0.2625475E+01  0.3481750E+00 -0.1975609E+00
  0.1311740E-06 -0.1100000E+02  0.0000000E+00  0.4118246E+00  0.2622367E+01  0.3575476E+00 -0.2043508E+00
  0.1078190E+01 -0.1094700E+02  0.0000000E+00  0.4185902E+00  0.2620043E+01  0.3629380E+00 -0.2085517E+00
  0.2145990E+01 -0.1078860E+02  0.0000000E+00  0.4194966E+00  0.2619471E+01  0.3636042E+00 -0.2092114E+00
  0.3193140E+01 -0.1052630E+02  0.0000000E+00  0.4140255E+00  0.2621305E+01  0.3592399E+00 -0.2058245E+00
  0.4209520E+01 -0.1016270E+02  0.0000000E+00  0.4027510E+00  0.2625167E+01  0.3502281E+00 -0.1988685E+00
  0.5185360E+01 -0.9701130E+01  0.0000000E+00  0.3868795E+00  0.2630329E+01  0.3374082E+00 -0.1892921E+00
  0.6111270E+01 -0.9146160E+01  0.0000000E+00  0.3658566E+00  0.2639244E+01  0.3206565E+00 -0.1761545E+00
  0.6978330E+01 -0.8503110E+01  0.0000000E+00  0.3395579E+00  0.2654662E+01  0.3000922E+00 -0.1588843E+00
  0.7778180E+01 -0.7778170E+01  0.0000000E+00  0.3088672E+00  0.2678862E+01  0.2763858E+00 -0.1378762E+00
  0.8503120E+01 -0.6978320E+01  0.0000000E+00  0.2753724E+00  0.2714427E+01  0.2506284E+00 -0.1140849E+00
  0.9146170E+01 -0.6111270E+01  0.0000000E+00  0.2396357E+00  0.2770697E+01  0.2233412E+00 -0.8685614E-01
  0.9701130E+01 -0.5185360E+01  0.0000000E+00  0.2028174E+00  0.2862903E+01  0.1949920E+00 -0.5579428E-01
  0.1016270E+02 -0.4209520E+01  0.0000000E+00  0.1676478E+00  0.3013891E+01  0.1662826E+00 -0.2135081E-01
  0.1052630E+02 -0.3193130E+01  0.0000000E+00  0.1389591E+00 -0.3030359E+01  0.1381003E+00  0.1542507E-01
  0.1078860E+02 -0.2145990E+01  0.0000000E+00  0.1239424E+00 -0.2685564E+01  0.1112765E+00  0.5458255E-01
  0.1094700E+02 -0.1078180E+01  0.0000000E+00  0.1291899E+00 -0.2302762E+01  0.8634186E-01  0.9609949E-01
  0.1100000E+02  0.0000000E+00 -0.2568960E-01  0.1530450E+00 -0.1999392E+01  0.6360452E-01  0.1392022E+00
  0.1094700E+02  0.1078190E+01 -0.2568960E-01  0.1884326E+00 -0.1804175E+01  0.4357809E-01  0.1833243E+00
  0.1078860E+02  0.2145990E+01 -0.2568960E-01  0.2292256E+00 -0.1687662E+01  0.2672759E-01  0.2276621E+00
  0.1052630E+02  0.3193130E+01 -0.2568960E-01  0.2721472E+00 -0.1619584E+01  0.1327227E-01  0.2718234E+00
  0.1016270E+02  0.4209520E+01 -0.2568960E-01  0.3154370E+00 -0.1580818E+01  0.3161274E-02  0.3154212E+00
  0.9701130E+01  0.5185360E+01 -0.2568960E-01  0.3578982E+00 -0.1559693E+01 -0.3973852E-02  0.3578762E+00
  0.9146170E+01  0.6111270E+01 -0.2568960E-01  0.3982920E+00 -0.1550402E+01 -0.8122466E-02  0.3982092E+00
  0.8503110E+01  0.6978330E+01 -0.2568960E-01  0.4360501E+00 -0.1549055E+01 -0.9479490E-02  0.4359470E+00
  0.7778170E+01  0.7778170E+01 -0.2568960E-01  0.4711451E+00 -0.1552919E+01 -0.8422163E-02  0.4710698E+00
  0.6978330E+01  0.8503110E+01 -0.2568960E-01  0.5036845E+00 -0.1559650E+01 -0.5614302E-02  0.5036532E+00
  0.6111270E+01  0.9146170E+01 -0.2568960E-01  0.5327258E+00 -0.1567901E+01 -0.1542247E-02  0.5327235E+00
  0.5185360E+01  0.9701130E+01 -0.2568960E-01  0.5579143E+00 -0.1576851E+01  0.3377835E-02  0.5579040E+00
  0.4209520E+01  0.1016270E+02 -0.2568960E-01  0.5796024E+00 -0.1585932E+01  0.8772422E-02  0.5795360E+00
  0.3193130E+01  0.1052630E+02 -0.2568960E-01  0.5984201E+00 -0.1594495E+01  0.1418065E-01  0.5982521E+00
  0.2145990E+01  0.1078860E+02 -0.2568960E-01  0.6134586E+00 -0.1601750E+01  0.1898597E-01  0.6131648E+00
  0.1078190E+01  0.1094700E+02 -0.2568960E-01  0.6243634E+00 -0.1607366E+01  0.2282760E-01  0.6239460E+00
 -0.4808250E-06  0.1100000E+02 -0.2568960E-01  0.6315790E+00 -0.1611312E+01  0.2558186E-01  0.6310607E+00
 -0.1078190E+01  0.1094700E+02 -0.2568960E-01  0.6359528E+00 -0.1613676E+01  0.2726094E-01  0.6353683E+00
 -0.2145990E+01  0.1078860E+02 -0.2568960E-01  0.6365913E+00 -0.1613992E+01  0.2748973E-01  0.6359974E+00
 -0.3193130E+01  0.1052630E+02 -0.2568960E-01  0.6330715E+00 -0.1612112E+01  0.2614809E-01  0.6325313E+00
 -0.4209520E+01  0.1016270E+02 -0.2568960E-01  0.6258020E+00 -0.1608216E+01  0.2341177E-01  0.6253639E+00
 -0.5185370E+01  0.9701130E+01 -0.2568960E-01  0.6156805E+00 -0.1602847E+01  0.1972989E-01  0.6153643E+00
 -0.6111270E+01  0.9146160E+01 -0.2568960E-01  0.6018900E+00 -0.1596036E+01  0.1518981E-01  0.6016983E+00
 -0.6978330E+01  0.8503120E+01 -0.2568960E-01  0.5839846E+00 -0.1587880E+01  0.9975977E-02  0.5838994E+00
 -0.7778170E+01  0.7778170E+01 -0.2568960E-01  0.5623170E+00 -0.1578763E+01  0.4479600E-02  0.5622992E+00
 -0.8503120E+01  0.6978330E+01 -0.2568960E-01  0.5377895E+00 -0.1569533E+01 -0.6794123E-03  0.5377890E+00
 -0.9146170E+01  0.6111270E+01 -0.2568960E-01  0.5098556E+00 -0.1561058E+01 -0.4964925E-02  0.5098314E+00
 -0.9701130E+01  0.5185360E+01 -0.2568960E-01  0.4782058E+00 -0.1554113E+01 -0.7977760E-02  0.4781392E+00
 -0.1016270E+02  0.4209520E+01 -0.2568960E-01  0.4432074E+00 -0.1549759E+01 -0.9323176E-02  0.4431093E+00
 -0.1052630E+02  0.3193130E+01 -0.2568960E-01  0.4058304E+00 -0.1549633E+01 -0.8588160E-02  0.4057395E+00
 -0.1078860E+02  0.2145990E+01 -0.2568960E-01  0.3661174E+00 -0.1556790E+01 -0.5127602E-02  0.3660814E+00
 -0.1094700E+02  0.1078190E+01 -0.2568960E-01  0.3242460E+00 -0.1575101E+01  0.1395639E-02  0.3242429E+00
 -0.1100000E+02 -0.9616510E-06 -0.2568960E-01  0.2809207E+00 -0.1610325E+01  0.1110138E-01  0.2807013E+00
 -0.1094700E+02 -0.1078190E+01 -0.2568960E-01  0.2376001E+00 -0.1671372E+01  0.2385647E-01  0.2363994E+00
 -0.1078860E+02 -0.2146000E+01 -0.2568960E-01  0.1961311E+00 -0.1775729E+01  0.3991293E-01  0.1920270E+00
 -0.1052630E+02 -0.3193130E+01 -0.2568960E-01  0.1594256E+00 -0.1951449E+01  0.5923081E-01  0.1480144E+00
 -0.1016270E+02 -0.4209520E+01 -0.2568960E-01  0.1326922E+00 -0.2232265E+01  0.8150972E-01  0.1047062E+00
 -0.9701130E+01 -0.5185360E+01 -0.2568960E-01  0.1231773E+00 -0.2608279E+01  0.1060714E+00  0.6262204E-01
 -0.9146160E+01 -0.6111270E+01 -0.2568960E-01  0.1344254E+00 -0.2971351E+01  0.1324821E+00  0.2277443E-01
 -0.8503110E+01 -0.6978330E+01 -0.2568960E-01  0.1608937E+00  0.3052310E+01  0.1602528E+00 -0.1434592E-01
 -0.7778170E+01 -0.7778180E+01 -0.2568960E-01  0.1950388E+00  0.2888812E+01  0.1888406E+00 -0.4877869E-01
 -0.6978330E+01 -0.8503110E+01 -0.2568960E-01  0.2319118E+00  0.2786325E+01  0.2174297E+00 -0.8066858E-01
 -0.6111270E+01 -0.9146170E+01 -0.2568960E-01  0.2682177E+00  0.2722994E+01  0.2450596E+00 -0.1090253E+00
 -0.5185360E+01 -0.9701130E+01 -0.2568960E-01  0.3021097E+00  0.2683988E+01  0.2710267E+00 -0.1334721E+00
 -0.4209510E+01 -0.1016270E+02 -0.2568960E-01  0.3328782E+00  0.2659254E+01  0.2949010E+00 -0.1544063E+00
 -0.3193130E+01 -0.1052630E+02 -0.2568960E-01  0.3602512E+00  0.2642194E+01  0.3162539E+00 -0.1725235E+00
 -0.2145990E+01 -0.1078860E+02 -0.2568960E-01  0.3827771E+00  0.2631410E+01  0.3340324E+00 -0.1869241E+00
 -0.1078190E+01 -0.1094700E+02 -0.2568960E-01  0.3997135E+00  0.2625440E+01  0.3476406E+00 -0.1972736E+00
  0.1311740E-06 -0.1100000E+02 -0.2568960E-01  0.4112282E+00  0.2622293E+01  0.3570147E+00 -0.2040812E+00
  0.1078190E+01 -0.1094700E+02 -0.2568960E-01  0.4179536E+00  0.2620010E+01  0.3623790E+00 -0.2082465E+00
  0.2145990E+01 -0.1078860E+02 -0.2568960E-01  0.4188266E+00  0.2619482E+01  0.3630256E+00 -0.2088734E+00
  0.3193140E+01 -0.1052630E+02 -0.2568960E-01  0.4133957E+00  0.2621271E+01  0.3586866E+00 -0.2055235E+00
  0.4209520E+01 -0.1016270E+02 -0.2568960E-01  0.4021680E+00  0.2625091E+01  0.3497061E+00 -0.1986070E+00
  0.5185360E+01 -0.9701130E+01 -0.2568960E-01  0.3862942E+00  0.2630292E+01  0.3368905E+00 -0.1890184E+00
  0.6111270E+01 -0.9146160E+01 -0.2568960E-01  0.3652749E+00  0.2639255E+01  0.3201486E+00 -0.1758710E+00
  0.6978330E+01 -0.8503110E+01 -0.2568960E-01  0.3390430E+00  0.2654617E+01  0.2996299E+00 -0.1586570E+00
  0.7778180E+01 -0.7778170E+01 -0.2568960E-01  0.3084219E+00  0.2678751E+01  0.2759720E+00 -0.1377082E+00
  0.8503120E+01 -0.6978320E+01 -0.2568960E-01  0.2749614E+00  0.2714362E+01  0.2502469E+00 -0.1139308E+00
  0.9146170E+01 -0.6111270E+01 -0.2568960E-01  0.2392630E+00  0.2770706E+01  0.2229946E+00 -0.8671885E-01
  0.9701130E+01 -0.5185360E+01 -0.2568960E-01  0.2025120E+00  0.2862814E+01  0.1946934E+00 -0.5572765E-01
  0.1016270E+02 -0.4209520E+01 -0.2568960E-01  0.1673991E+00  0.3013659E+01  0.1660311E+00 -0.2135762E-01
  0.1052630E+02 -0.3193130E+01 -0.2568960E-01  0.1387491E+00 -0.3030545E+01  0.1378945E+00  0.1537608E-01
  0.1078860E+02 -0.2145990E+01 -0.2568960E-01  0.1237557E+00 -0.2685664E+01  0.1111144E+00  0.5448915E-01
  0.1094700E+02 -0.1078180E+01 -0.2568960E-01  0.1289792E+00 -0.2302898E+01  0.8621407E-01  0.9593100E-01
  0.1100000E+02  0.0000000E+00 -0.1027320E+00  0.1522443E+00 -0.1999441E+01  0.6327853E-01  0.1384707E+00
  0.1094700E+02  0.1078190E+01 -0.1027320E+00  0.1874822E+00 -0.1804216E+01  0.4336577E-01  0.1823978E+00
  0.1078860E+02  0.2145990E+01 -0.1027320E+00  0.2281019E+00 -0.1687750E+01  0.2661660E-01  0.2265436E+00
  0.1052630E+02  0.3193130E+01 -0.1027320E+00  0.2708390E+00 -0.1619564E+01  0.1320288E-01  0.2705171E+00
  0.1016270E+02  0.4209520E+01 -0.1027320E+00  0.3139398E+00 -0.1580737E+01  0.3120620E-02  0.3139243E+00
  0.9701130E+01  0.5185360E+01 -0.1027320E+00  0.3561800E+00 -0.1559683E+01 -0.3958171E-02  0.3561580E+00
  0.9146170E+01  0.6111270E+01 -0.1027320E+00  0.3963621E+00 -0.1550457E+01 -0.8061248E-02  0.3962801E+00
  0.8503110E+01  0.6978330E+01 -0.1027320E+00  0.4339938E+00 -0.1549092E+01 -0.9418818E-02  0.4338916E+00
  0.7778170E+01  0.7778170E+01 -0.1027320E+00  0.4689669E+00 -0.1552942E+01 -0.8372737E-02  0.4688922E+00
  0.6978330E+01  0.8503110E+01 -0.1027320E+00  0.5013034E+00 -0.1559688E+01 -0.5568393E-02  0.5012725E+00
  0.6111270E+01  0.9146170E+01 -0.1027320E+00  0.5301548E+00 -0.1567960E+01 -0.1503558E-02  0.5301526E+00
  0.5185360E+01  0.9701130E+01 -0.1027320E+00  0.5552950E+00 -0.1576931E+01  0.3406654E-02  0.5552846E+00
  0.4209520E+01  0.1016270E+02 -0.1027320E+00  0.5769436E+00 -0.1586026E+01  0.8786133E-02  0.5768767E+00
  0.3193130E+01  0.1052630E+02 -0.1027320E+00  0.5956068E+00 -0.1594574E+01  0.1416065E-01  0.5954384E+00
  0.2145990E+01  0.1078860E+02 -0.1027320E+00  0.6105058E+00 -0.1601816E+01  0.1893471E-01  0.6102121E+00
  0.1078190E+01  0.1094700E+02 -0.1027320E+00  0.6214346E+00 -0.1607466E+01  0.2278300E-01  0.6210169E+00
 -0.4808250E-06  0.1100000E+02 -0.1027320E+00  0.6286870E+00 -0.1611440E+01  0.2554518E-01  0.6281677E+00
 -0.1078190E+01  0.1094700E+02 -0.1027320E+00  0.6329690E+00 -0.1613775E+01  0.2719609E-01  0.6323845E+00
 -0.2145990E+01  0.1078860E+02 -0.1027320E+00  0.6335269E+00 -0.1614060E+01  0.2740035E-01  0.6329340E+00
 -0.3193130E+01  0.1052630E+02 -0.1027320E+00  0.6301007E+00 -0.1612209E+01  0.2608658E-01  0.6295605E+00
 -0.4209520E+01  0.1016270E+02 -0.1027320E+00  0.6229357E+00 -0.1608340E+01  0.2338186E-01  0.6224967E+00
 -0.5185370E+01  0.9701130E+01 -0.1027320E+00  0.6127929E+00 -0.1602945E+01  0.1969738E-01  0.6124762E+00
 -0.6111270E+01  0.9146160E+01 -0.1027320E+00  0.5989906E+00 -0.1596101E+01  0.1515540E-01  0.5987989E+00
 -0.6978330E+01  0.8503120E+01 -0.1027320E+00  0.5812374E+00 -0.1587952E+01  0.9970756E-02  0.5811518E+00
 -0.7778170E+01  0.7778170E+01 -0.1027320E+00  0.5597345E+00 -0.1578845E+01  0.4505046E-02  0.5597163E+00
 -0.8503120E+01  0.6978330E+01 -0.1027320E+00  0.5352642E+00 -0.1569606E+01 -0.6372284E-03  0.5352638E+00
 -0.9146170E+01  0.6111270E+01 -0.1027320E+00  0.5073939E+00 -0.1561116E+01 -0.4911417E-02  0.5073701E+00
 -0.9701130E+01  0.5185360E+01 -0.1027320E+00  0.4759410E+00 -0.1554142E+01 -0.7926348E-02  0.4758750E+00
 -0.1016270E+02  0.4209520E+01 -0.1027320E+00  0.4411528E+00 -0.1549763E+01 -0.9278343E-02  0.4410553E+00
 -0.1052630E+02  0.3193130E+01 -0.1027320E+00  0.4039128E+00 -0.1549658E+01 -0.8537352E-02  0.4038225E+00
 -0.1078860E+02  0.2145990E+01 -0.1027320E+00  0.3643404E+00 -0.1556846E+01 -0.5082333E-02  0.3643050E+00
 -0.1094700E+02  0.1078190E+01 -0.1027320E+00  0.3226800E+00 -0.1575084E+01  0.1383431E-02  0.3226770E+00
 -0.1100000E+02 -0.9616510E-06 -0.1027320E+00  0.2795730E+00 -0.1610225E+01  0.1102039E-01  0.2793557E+00
 -0.1094700E+02 -0.1078190E+01 -0.1027320E+00  0.2364485E+00 -0.1671345E+01  0.2373451E-01  0.2352543E+00
 -0.1078860E+02 -0.2146000E+01 -0.1027320E+00  0.1951663E+00 -0.1775843E+01  0.3973839E-01  0.1910779E+00
 -0.1052630E+02 -0.3193130E+01 -0.1027320E+00  0.1586085E+00 -0.1951581E+01  0.5894668E-01  0.1472479E+00
 -0.1016270E+02 -0.4209520E+01 -0.1027320E+00  0.1319842E+00 -0.2232548E+01  0.8110420E-01  0.1041246E+00
 -0.9701130E+01 -0.5185360E+01 -0.1027320E+00  0.1225579E+00 -0.2608684E+01  0.1055632E+00  0.6226440E-01
 -0.9146160E+01 -0.6111270E+01 -0.1027320E+00  0.1337946E+00 -0.2971637E+01  0.1318669E+00  0.2262990E-01
 -0.8503110E+01 -0.6978330E+01 -0.1027320E+00  0.1601584E+00  0.3051740E+01  0.1595123E+00 -0.1437122E-01
 -0.7778170E+01 -0.7778180E+01 -0.1027320E+00  0.1941733E+00  0.2888137E+01  0.1879698E+00 -0.4868902E-01
 -0.6978330E+01 -0.8503110E+01 -0.1027320E+00  0.2308608E+00  0.2785990E+01  0.2164174E+00 -0.8037538E-01
 -0.6111270E+01 -0.9146170E+01 -0.1027320E+00  0.2669725E+00  0.2722900E+01  0.2439118E+00 -0.1085421E+00
 -0.5185360E+01 -0.9701130E+01 -0.1027320E+00  0.3007686E+00  0.2683738E+01  0.2697903E+00 -0.1329472E+00
 -0.4209510E+01 -0.1016270E+02 -0.1027320E+00  0.3314486E+00  0.2658900E+01  0.2935801E+00 -0.1538470E+00
 -0.3193130E+01 -0.1052630E+02 -0.1027320E+00  0.3586354E+00  0.2642002E+01  0.3148026E+00 -0.1718100E+00
 -0.2145990E+01 -0.1078860E+02 -0.1027320E+00  0.3809915E+00  0.2631360E+01  0.3324650E+00 -0.1860687E+00
 -0.1078190E+01 -0.1094700E+02 -0.1027320E+00  0.3979313E+00  0.2625281E+01  0.3460593E+00 -0.1964493E+00
  0.1311740E-06 -0.1100000E+02 -0.1027320E+00  0.4094647E+00  0.2622038E+01  0.3554320E+00 -0.2032965E+00
  0.1078190E+01 -0.1094700E+02 -0.1027320E+00  0.4160844E+00  0.2619860E+01  0.3607273E+00 -0.2073693E+00
  0.2145990E+01 -0.1078860E+02 -0.1027320E+00  0.4168708E+00  0.2619440E+01  0.3613217E+00 -0.2079130E+00
  0.3193140E+01 -0.1052630E+02 -0.1027320E+00  0.4115460E+00  0.2621118E+01  0.3570504E+00 -0.2046585E+00
  0.4209520E+01 -0.1016270E+02 -0.1027320E+00  0.4004432E+00  0.2624826E+01  0.3481539E+00 -0.1978475E+00
  0.5185360E+01 -0.9701130E+01 -0.1027320E+00  0.3845727E+00  0.2630122E+01  0.3353573E+00 -0.1882330E+00
  0.6111270E+01 -0.9146160E+01 -0.1027320E+00  0.3635727E+00  0.2639202E+01  0.3186474E+00 -0.1750683E+00
  0.6978330E+01 -0.8503110E+01 -0.1027320E+00  0.3375213E+00  0.2654408E+01  0.2982522E+00 -0.1580072E+00
  0.7778180E+01 -0.7778170E+01 -0.1027320E+00  0.3070954E+00  0.2678359E+01  0.2747314E+00 -0.1372235E+00
  0.8503120E+01 -0.6978320E+01 -0.1027320E+00  0.2737408E+00  0.2714075E+01  0.2491035E+00 -0.1134966E+00
  0.9146170E+01 -0.6111270E+01 -0.1027320E+00  0.2381538E+00  0.2770594E+01  0.2219512E+00 -0.8634182E-01
