 VARIABLES="X" "Y" "Z" "abs(eta) (m)" "angle(phi) (rad)" "PRE1" "PRE2"
ZONE N=   3200 ,E =    3136 ,F=FEPOINT,ET=QUADRILATERAL
  0.1100000E+02  0.0000000E+00  0.0000000E+00  0.3611018E+00 -0.1805507E+01  0.8397855E-01  0.3512009E+00
  0.1094700E+02  0.1078190E+01  0.0000000E+00  0.3602280E+00 -0.1805185E+01  0.8366223E-01  0.3503782E+00
  0.1078860E+02  0.2145990E+01  0.0000000E+00  0.3570157E+00 -0.1804361E+01  0.8263030E-01  0.3473218E+00
  0.1052630E+02  0.3193130E+01  0.0000000E+00  0.3503981E+00 -0.1803456E+01  0.8078989E-01  0.3409572E+00
  0.1016270E+02  0.4209520E+01  0.0000000E+00  0.3416040E+00 -0.1802383E+01  0.7840581E-01  0.3324843E+00
  0.9701130E+01  0.5185360E+01  0.0000000E+00  0.3311741E+00 -0.1801174E+01  0.7562206E-01  0.3224245E+00
  0.9146170E+01  0.6111270E+01  0.0000000E+00  0.3185568E+00 -0.1800290E+01  0.7246681E-01  0.3102048E+00
  0.8503110E+01  0.6978330E+01  0.0000000E+00  0.3030321E+00 -0.1800782E+01  0.6908031E-01  0.2950532E+00
  0.7778170E+01  0.7778170E+01  0.0000000E+00  0.2858183E+00 -0.1802885E+01  0.6574132E-01  0.2781550E+00
  0.6978330E+01  0.8503110E+01  0.0000000E+00  0.2673391E+00 -0.1807033E+01  0.6256951E-01  0.2599139E+00
  0.6111270E+01  0.9146170E+01  0.0000000E+00  0.2472139E+00 -0.1814670E+01  0.5969309E-01  0.2398988E+00
  0.5185360E+01  0.9701130E+01  0.0000000E+00  0.2252391E+00 -0.1828492E+01  0.5740289E-01  0.2178017E+00
  0.4209520E+01  0.1016270E+02  0.0000000E+00  0.2025010E+00 -0.1850065E+01  0.5581988E-01  0.1946556E+00
  0.3193130E+01  0.1052630E+02  0.0000000E+00  0.1793467E+00 -0.1882294E+01  0.5496707E-01  0.1707157E+00
  0.2145990E+01  0.1078860E+02  0.0000000E+00  0.1558054E+00 -0.1931510E+01  0.5499033E-01  0.1457785E+00
  0.1078190E+01  0.1094700E+02  0.0000000E+00  0.1325601E+00 -0.2008137E+01  0.5614340E-01  0.1200838E+00
 -0.4808250E-06  0.1100000E+02  0.0000000E+00  0.1109046E+00 -0.2124352E+01  0.5830422E-01  0.9434216E-01
 -0.1078190E+01  0.1094700E+02  0.0000000E+00  0.9205040E-01 -0.2300676E+01  0.6137737E-01  0.6860099E-01
 -0.2145990E+01  0.1078860E+02  0.0000000E+00  0.7824250E-01 -0.2561105E+01  0.6542604E-01  0.4291064E-01
 -0.3193130E+01  0.1052630E+02  0.0000000E+00  0.7274715E-01 -0.2891748E+01  0.7048841E-01  0.1798699E-01
 -0.4209520E+01  0.1016270E+02  0.0000000E+00  0.7649484E-01  0.3063909E+01  0.7626415E-01 -0.5936401E-02
 -0.5185370E+01  0.9701130E+01  0.0000000E+00  0.8756073E-01  0.2803217E+01  0.8259562E-01 -0.2906622E-01
 -0.6111270E+01  0.9146160E+01  0.0000000E+00  0.1030065E+00  0.2622004E+01  0.8941203E-01 -0.5114515E-01
 -0.6978330E+01  0.8503120E+01  0.0000000E+00  0.1198718E+00  0.2506283E+01  0.9648336E-01 -0.7113514E-01
 -0.7778170E+01  0.7778170E+01  0.0000000E+00  0.1367468E+00  0.2429513E+01  0.1035179E+00 -0.8935168E-01
 -0.8503120E+01  0.6978330E+01  0.0000000E+00  0.1532051E+00  0.2375435E+01  0.1103966E+00 -0.1062280E+00
 -0.9146170E+01  0.6111270E+01  0.0000000E+00  0.1685359E+00  0.2337669E+01  0.1169448E+00 -0.1213600E+00
 -0.9701130E+01  0.5185360E+01  0.0000000E+00  0.1814078E+00  0.2314123E+01  0.1227660E+00 -0.1335563E+00
 -0.1016270E+02  0.4209520E+01  0.0000000E+00  0.1922071E+00  0.2297918E+01  0.1277643E+00 -0.1435962E+00
 -0.1052630E+02  0.3193130E+01  0.0000000E+00  0.2013192E+00  0.2285480E+01  0.1319402E+00 -0.1520566E+00
 -0.1078860E+02  0.2145990E+01  0.0000000E+00  0.2081957E+00  0.2276922E+01  0.1350962E+00 -0.1584123E+00
 -0.1094700E+02  0.1078190E+01  0.0000000E+00  0.2116593E+00  0.2273916E+01  0.1368590E+00 -0.1614598E+00
 -0.1100000E+02 -0.9616510E-06  0.0000000E+00  0.2126356E+00  0.2273382E+01  0.1374038E+00 -0.1622779E+00
 -0.1094700E+02 -0.1078190E+01  0.0000000E+00  0.2116593E+00  0.2273917E+01  0.1368591E+00 -0.1614597E+00
 -0.1078860E+02 -0.2146000E+01  0.0000000E+00  0.2081954E+00  0.2276922E+01  0.1350960E+00 -0.1584122E+00
 -0.1052630E+02 -0.3193130E+01  0.0000000E+00  0.2013190E+00  0.2285480E+01  0.1319402E+00 -0.1520562E+00
 -0.1016270E+02 -0.4209520E+01  0.0000000E+00  0.1922070E+00  0.2297917E+01  0.1277640E+00 -0.1435963E+00
 -0.9701130E+01 -0.5185360E+01  0.0000000E+00  0.1814080E+00  0.2314123E+01  0.1227662E+00 -0.1335565E+00
 -0.9146160E+01 -0.6111270E+01  0.0000000E+00  0.1685359E+00  0.2337668E+01  0.1169447E+00 -0.1213601E+00
 -0.8503110E+01 -0.6978330E+01  0.0000000E+00  0.1532053E+00  0.2375437E+01  0.1103969E+00 -0.1062280E+00
 -0.7778170E+01 -0.7778180E+01  0.0000000E+00  0.1367465E+00  0.2429514E+01  0.1035178E+00 -0.8935134E-01
 -0.6978330E+01 -0.8503110E+01  0.0000000E+00  0.1198722E+00  0.2506281E+01  0.9648359E-01 -0.7113557E-01
 -0.6111270E+01 -0.9146170E+01  0.0000000E+00  0.1030065E+00  0.2622006E+01  0.8941217E-01 -0.5114494E-01
 -0.5185360E+01 -0.9701130E+01  0.0000000E+00  0.8756066E-01  0.2803219E+01  0.8259559E-01 -0.2906608E-01
 -0.4209510E+01 -0.1016270E+02  0.0000000E+00  0.7649481E-01  0.3063910E+01  0.7626411E-01 -0.5936377E-02
 -0.3193130E+01 -0.1052630E+02  0.0000000E+00  0.7274717E-01 -0.2891748E+01  0.7048844E-01  0.1798698E-01
 -0.2145990E+01 -0.1078860E+02  0.0000000E+00  0.7824267E-01 -0.2561108E+01  0.6542627E-01  0.4291061E-01
 -0.1078190E+01 -0.1094700E+02  0.0000000E+00  0.9205044E-01 -0.2300677E+01  0.6137745E-01  0.6860096E-01
  0.1311740E-06 -0.1100000E+02  0.0000000E+00  0.1109045E+00 -0.2124352E+01  0.5830420E-01  0.9434204E-01
  0.1078190E+01 -0.1094700E+02  0.0000000E+00  0.1325600E+00 -0.2008137E+01  0.5614334E-01  0.1200836E+00
  0.2145990E+01 -0.1078860E+02  0.0000000E+00  0.1558052E+00 -0.1931512E+01  0.5499046E-01  0.1457783E+00
  0.3193140E+01 -0.1052630E+02  0.0000000E+00  0.1793466E+00 -0.1882295E+01  0.5496719E-01  0.1707156E+00
  0.4209520E+01 -0.1016270E+02  0.0000000E+00  0.2025009E+00 -0.1850066E+01  0.5582003E-01  0.1946554E+00
  0.5185360E+01 -0.9701130E+01  0.0000000E+00  0.2252390E+00 -0.1828493E+01  0.5740316E-01  0.2178015E+00
  0.6111270E+01 -0.9146160E+01  0.0000000E+00  0.2472137E+00 -0.1814671E+01  0.5969326E-01  0.2398986E+00
  0.6978330E+01 -0.8503110E+01  0.0000000E+00  0.2673389E+00 -0.1807033E+01  0.6256954E-01  0.2599137E+00
  0.7778180E+01 -0.7778170E+01  0.0000000E+00  0.2858185E+00 -0.1802885E+01  0.6574138E-01  0.2781552E+00
  0.8503120E+01 -0.6978320E+01  0.0000000E+00  0.3030318E+00 -0.1800782E+01  0.6908032E-01  0.2950529E+00
  0.9146170E+01 -0.6111270E+01  0.0000000E+00  0.3185569E+00 -0.1800290E+01  0.7246685E-01  0.3102049E+00
  0.9701130E+01 -0.5185360E+01  0.0000000E+00  0.3311738E+00 -0.1801175E+01  0.7562218E-01  0.3224242E+00
  0.1016270E+02 -0.4209520E+01  0.0000000E+00  0.3416036E+00 -0.1802384E+01  0.7840595E-01  0.3324839E+00
  0.1052630E+02 -0.3193130E+01  0.0000000E+00  0.3503981E+00 -0.1803456E+01  0.8078994E-01  0.3409572E+00
  0.1078860E+02 -0.2145990E+01  0.0000000E+00  0.3570157E+00 -0.1804362E+01  0.8263045E-01  0.3473217E+00
  0.1094700E+02 -0.1078180E+01  0.0000000E+00  0.3602280E+00 -0.1805185E+01  0.8366235E-01  0.3503782E+00
  0.1100000E+02  0.0000000E+00 -0.2568960E-01  0.3607875E+00 -0.1805512E+01  0.8390694E-01  0.3508949E+00
  0.1094700E+02  0.1078190E+01 -0.2568960E-01  0.3599004E+00 -0.1805191E+01  0.8358842E-01  0.3500589E+00
  0.1078860E+02  0.2145990E+01 -0.2568960E-01  0.3566748E+00 -0.1804373E+01  0.8255549E-01  0.3469892E+00
  0.1052630E+02  0.3193130E+01 -0.2568960E-01  0.3500799E+00 -0.1803463E+01  0.8071892E-01  0.3406470E+00
  0.1016270E+02  0.4209520E+01 -0.2568960E-01  0.3413063E+00 -0.1802385E+01  0.7833811E-01  0.3321944E+00
  0.9701130E+01  0.5185360E+01 -0.2568960E-01  0.3308713E+00 -0.1801180E+01  0.7555468E-01  0.3221293E+00
  0.9146170E+01  0.6111270E+01 -0.2568960E-01  0.3182529E+00 -0.1800304E+01  0.7240191E-01  0.3099078E+00
  0.8503110E+01  0.6978330E+01 -0.2568960E-01  0.3027572E+00 -0.1800788E+01  0.6901945E-01  0.2947851E+00
  0.7778170E+01  0.7778170E+01 -0.2568960E-01  0.2855680E+00 -0.1802881E+01  0.6568252E-01  0.2779117E+00
  0.6978330E+01  0.8503110E+01 -0.2568960E-01  0.2670937E+00 -0.1807037E+01  0.6251310E-01  0.2596751E+00
  0.6111270E+01  0.9146170E+01 -0.2568960E-01  0.2469790E+00 -0.1814689E+01  0.5964084E-01  0.2396697E+00
  0.5185360E+01  0.9701130E+01 -0.2568960E-01  0.2250350E+00 -0.1828496E+01  0.5735175E-01  0.2176041E+00
  0.4209520E+01  0.1016270E+02 -0.2568960E-01  0.2023207E+00 -0.1850051E+01  0.5576752E-01  0.1944830E+00
  0.3193130E+01  0.1052630E+02 -0.2568960E-01  0.1791803E+00 -0.1882300E+01  0.5491711E-01  0.1705570E+00
  0.2145990E+01  0.1078860E+02 -0.2568960E-01  0.1556598E+00 -0.1931537E+01  0.5494285E-01  0.1456408E+00
  0.1078190E+01  0.1094700E+02 -0.2568960E-01  0.1324393E+00 -0.2008137E+01  0.5609228E-01  0.1199743E+00
 -0.4808250E-06  0.1100000E+02 -0.2568960E-01  0.1108004E+00 -0.2124343E+01  0.5824860E-01  0.9425408E-01
 -0.1078190E+01  0.1094700E+02 -0.2568960E-01  0.9196359E-01 -0.2300709E+01  0.6132175E-01  0.6853426E-01
 -0.2145990E+01  0.1078860E+02 -0.2568960E-01  0.7817364E-01 -0.2561114E+01  0.6536881E-01  0.4287232E-01
 -0.3193130E+01  0.1052630E+02 -0.2568960E-01  0.7268044E-01 -0.2891763E+01  0.7042404E-01  0.1796944E-01
 -0.4209520E+01  0.1016270E+02 -0.2568960E-01  0.7642482E-01  0.3063789E+01  0.7619362E-01 -0.5940162E-02
 -0.5185370E+01  0.9701130E+01 -0.2568960E-01  0.8748373E-01  0.2803168E+01  0.8252155E-01 -0.2904476E-01
 -0.6111270E+01  0.9146160E+01 -0.2568960E-01  0.1029109E+00  0.2622061E+01  0.8933197E-01 -0.5109251E-01
 -0.6978330E+01  0.8503120E+01 -0.2568960E-01  0.1197645E+00  0.2506268E+01  0.9639592E-01 -0.7107287E-01
 -0.7778170E+01  0.7778170E+01 -0.2568960E-01  0.1366332E+00  0.2429443E+01  0.1034257E+00 -0.8928471E-01
 -0.8503120E+01  0.6978330E+01 -0.2568960E-01  0.1530707E+00  0.2375423E+01  0.1102984E+00 -0.1061362E+00
 -0.9146170E+01  0.6111270E+01 -0.2568960E-01  0.1683751E+00  0.2337710E+01  0.1168382E+00 -0.1212395E+00
 -0.9701130E+01  0.5185360E+01 -0.2568960E-01  0.1812458E+00  0.2314115E+01  0.1226554E+00 -0.1334379E+00
 -0.1016270E+02  0.4209520E+01 -0.2568960E-01  0.1920481E+00  0.2297873E+01  0.1276522E+00 -0.1434831E+00
 -0.1052630E+02  0.3193130E+01 -0.2568960E-01  0.2011407E+00  0.2285475E+01  0.1318226E+00 -0.1519222E+00
 -0.1078860E+02  0.2145990E+01 -0.2568960E-01  0.2079958E+00  0.2276956E+01  0.1349720E+00 -0.1582556E+00
 -0.1094700E+02  0.1078190E+01 -0.2568960E-01  0.2114711E+00  0.2273912E+01  0.1367367E+00 -0.1613167E+00
 -0.1100000E+02 -0.9616510E-06 -0.2568960E-01  0.2124600E+00  0.2273347E+01  0.1372845E+00 -0.1621487E+00
 -0.1094700E+02 -0.1078190E+01 -0.2568960E-01  0.2114708E+00  0.2273913E+01  0.1367366E+00 -0.1613165E+00
 -0.1078860E+02 -0.2146000E+01 -0.2568960E-01  0.2079961E+00  0.2276956E+01  0.1349722E+00 -0.1582558E+00
 -0.1052630E+02 -0.3193130E+01 -0.2568960E-01  0.2011409E+00  0.2285477E+01  0.1318229E+00 -0.1519223E+00
 -0.1016270E+02 -0.4209520E+01 -0.2568960E-01  0.1920482E+00  0.2297874E+01  0.1276523E+00 -0.1434830E+00
 -0.9701130E+01 -0.5185360E+01 -0.2568960E-01  0.1812458E+00  0.2314118E+01  0.1226557E+00 -0.1334377E+00
 -0.9146160E+01 -0.6111270E+01 -0.2568960E-01  0.1683751E+00  0.2337709E+01  0.1168381E+00 -0.1212396E+00
 -0.8503110E+01 -0.6978330E+01 -0.2568960E-01  0.1530706E+00  0.2375423E+01  0.1102984E+00 -0.1061361E+00
 -0.7778170E+01 -0.7778180E+01 -0.2568960E-01  0.1366327E+00  0.2429443E+01  0.1034254E+00 -0.8928432E-01
 -0.6978330E+01 -0.8503110E+01 -0.2568960E-01  0.1197646E+00  0.2506269E+01  0.9639608E-01 -0.7107291E-01
 -0.6111270E+01 -0.9146170E+01 -0.2568960E-01  0.1029106E+00  0.2622063E+01  0.8933187E-01 -0.5109222E-01
 -0.5185360E+01 -0.9701130E+01 -0.2568960E-01  0.8748372E-01  0.2803169E+01  0.8252158E-01 -0.2904463E-01
 -0.4209510E+01 -0.1016270E+02 -0.2568960E-01  0.7642496E-01  0.3063790E+01  0.7619376E-01 -0.5940063E-02
 -0.3193130E+01 -0.1052630E+02 -0.2568960E-01  0.7268054E-01 -0.2891764E+01  0.7042415E-01  0.1796941E-01
 -0.2145990E+01 -0.1078860E+02 -0.2568960E-01  0.7817370E-01 -0.2561116E+01  0.6536894E-01  0.4287225E-01
 -0.1078190E+01 -0.1094700E+02 -0.2568960E-01  0.9196358E-01 -0.2300710E+01  0.6132180E-01  0.6853421E-01
  0.1311740E-06 -0.1100000E+02 -0.2568960E-01  0.1108003E+00 -0.2124344E+01  0.5824869E-01  0.9425390E-01
  0.1078190E+01 -0.1094700E+02 -0.2568960E-01  0.1324392E+00 -0.2008138E+01  0.5609237E-01  0.1199741E+00
  0.2145990E+01 -0.1078860E+02 -0.2568960E-01  0.1556594E+00 -0.1931538E+01  0.5494283E-01  0.1456404E+00
  0.3193140E+01 -0.1052630E+02 -0.2568960E-01  0.1791802E+00 -0.1882301E+01  0.5491713E-01  0.1705569E+00
  0.4209520E+01 -0.1016270E+02 -0.2568960E-01  0.2023206E+00 -0.1850052E+01  0.5576772E-01  0.1944829E+00
  0.5185360E+01 -0.9701130E+01 -0.2568960E-01  0.2250346E+00 -0.1828497E+01  0.5735186E-01  0.2176036E+00
  0.6111270E+01 -0.9146160E+01 -0.2568960E-01  0.2469791E+00 -0.1814689E+01  0.5964091E-01  0.2396698E+00
  0.6978330E+01 -0.8503110E+01 -0.2568960E-01  0.2670937E+00 -0.1807037E+01  0.6251322E-01  0.2596751E+00
  0.7778180E+01 -0.7778170E+01 -0.2568960E-01  0.2855680E+00 -0.1802881E+01  0.6568256E-01  0.2779117E+00
  0.8503120E+01 -0.6978320E+01 -0.2568960E-01  0.3027571E+00 -0.1800789E+01  0.6901958E-01  0.2947849E+00
  0.9146170E+01 -0.6111270E+01 -0.2568960E-01  0.3182530E+00 -0.1800304E+01  0.7240193E-01  0.3099079E+00
  0.9701130E+01 -0.5185360E+01 -0.2568960E-01  0.3308714E+00 -0.1801180E+01  0.7555478E-01  0.3221294E+00
  0.1016270E+02 -0.4209520E+01 -0.2568960E-01  0.3413062E+00 -0.1802386E+01  0.7833818E-01  0.3321943E+00
  0.1052630E+02 -0.3193130E+01 -0.2568960E-01  0.3500796E+00 -0.1803463E+01  0.8071896E-01  0.3406467E+00
  0.1078860E+02 -0.2145990E+01 -0.2568960E-01  0.3566746E+00 -0.1804373E+01  0.8255538E-01  0.3469891E+00
  0.1094700E+02 -0.1078180E+01 -0.2568960E-01  0.3599003E+00 -0.1805191E+01  0.8358851E-01  0.3500588E+00
  0.1100000E+02  0.0000000E+00 -0.1027320E+00  0.3598258E+00 -0.1805559E+01  0.8369990E-01  0.3499556E+00
  0.1094700E+02  0.1078190E+01 -0.1027320E+00  0.3589039E+00 -0.1805245E+01  0.8337592E-01  0.3490852E+00
  0.1078860E+02  0.2145990E+01 -0.1027320E+00  0.3556445E+00 -0.1804438E+01  0.8233959E-01  0.3459815E+00
  0.1052630E+02  0.3193130E+01 -0.1027320E+00  0.3491121E+00 -0.1803515E+01  0.8051363E-01  0.3397010E+00
  0.1016270E+02  0.4209520E+01 -0.1027320E+00  0.3403952E+00 -0.1802422E+01  0.7814106E-01  0.3313048E+00
  0.9701130E+01  0.5185360E+01 -0.1027320E+00  0.3299528E+00 -0.1801221E+01  0.7535829E-01  0.3212320E+00
  0.9146170E+01  0.6111270E+01 -0.1027320E+00  0.3173352E+00 -0.1800362E+01  0.7221104E-01  0.3090100E+00
  0.8503110E+01  0.6978330E+01 -0.1027320E+00  0.3019211E+00 -0.1800823E+01  0.6883916E-01  0.2939686E+00
  0.7778170E+01  0.7778170E+01 -0.1027320E+00  0.2848028E+00 -0.1802883E+01  0.6550711E-01  0.2771668E+00
  0.6978330E+01  0.8503110E+01 -0.1027320E+00  0.2663496E+00 -0.1807053E+01  0.6234315E-01  0.2589507E+00
  0.6111270E+01  0.9146170E+01 -0.1027320E+00  0.2462703E+00 -0.1814736E+01  0.5948106E-01  0.2389792E+00
  0.5185360E+01  0.9701130E+01 -0.1027320E+00  0.2244139E+00 -0.1828498E+01  0.5719377E-01  0.2170034E+00
  0.4209520E+01  0.1016270E+02 -0.1027320E+00  0.2017704E+00 -0.1850002E+01  0.5560629E-01  0.1939568E+00
  0.3193130E+01  0.1052630E+02 -0.1027320E+00  0.1786767E+00 -0.1882288E+01  0.5476071E-01  0.1700783E+00
  0.2145990E+01  0.1078860E+02 -0.1027320E+00  0.1552188E+00 -0.1931573E+01  0.5479244E-01  0.1452262E+00
  0.1078190E+01  0.1094700E+02 -0.1027320E+00  0.1320722E+00 -0.2008094E+01  0.5593159E-01  0.1196442E+00
 -0.4808250E-06  0.1100000E+02 -0.1027320E+00  0.1104849E+00 -0.2124265E+01  0.5807543E-01  0.9399017E-01
 -0.1078190E+01  0.1094700E+02 -0.1027320E+00  0.9170005E-01 -0.2300722E+01  0.6114689E-01  0.6833709E-01
 -0.2145990E+01  0.1078860E+02 -0.1027320E+00  0.7796144E-01 -0.2561059E+01  0.6518900E-01  0.4275956E-01
 -0.3193130E+01  0.1052630E+02 -0.1027320E+00  0.7247508E-01 -0.2891731E+01  0.7022448E-01  0.1792091E-01
 -0.4209520E+01  0.1016270E+02 -0.1027320E+00  0.7620911E-01  0.3063545E+01  0.7597712E-01 -0.5941871E-02
 -0.5185370E+01  0.9701130E+01 -0.1027320E+00  0.8724532E-01  0.2803095E+01  0.8229455E-01 -0.2897162E-01
 -0.6111270E+01  0.9146160E+01 -0.1027320E+00  0.1026181E+00  0.2622262E+01  0.8908807E-01 -0.5092926E-01
 -0.6978330E+01  0.8503120E+01 -0.1027320E+00  0.1194352E+00  0.2506285E+01  0.9613211E-01 -0.7087582E-01
 -0.7778170E+01  0.7778170E+01 -0.1027320E+00  0.1362809E+00  0.2429318E+01  0.1031480E+00 -0.8906732E-01
 -0.8503120E+01  0.6978330E+01 -0.1027320E+00  0.1526586E+00  0.2375448E+01  0.1100041E+00 -0.1058478E+00
 -0.9146170E+01  0.6111270E+01 -0.1027320E+00  0.1678888E+00  0.2337885E+01  0.1165219E+00 -0.1208689E+00
 -0.9701130E+01  0.5185360E+01 -0.1027320E+00  0.1807529E+00  0.2314169E+01  0.1223290E+00 -0.1330685E+00
 -0.1016270E+02  0.4209520E+01 -0.1027320E+00  0.1915587E+00  0.2297839E+01  0.1273220E+00 -0.1431218E+00
 -0.1052630E+02  0.3193130E+01 -0.1027320E+00  0.2005980E+00  0.2285538E+01  0.1314763E+00 -0.1515042E+00
 -0.1078860E+02  0.2145990E+01 -0.1027320E+00  0.2073944E+00  0.2277122E+01  0.1346079E+00 -0.1577757E+00
 -0.1094700E+02  0.1078190E+01 -0.1027320E+00  0.2108984E+00  0.2273980E+01  0.1363774E+00 -0.1608706E+00
 -0.1100000E+02 -0.9616510E-06 -0.1027320E+00  0.2119194E+00  0.2273336E+01  0.1369334E+00 -0.1617377E+00
 -0.1094700E+02 -0.1078190E+01 -0.1027320E+00  0.2108985E+00  0.2273981E+01  0.1363776E+00 -0.1608705E+00
 -0.1078860E+02 -0.2146000E+01 -0.1027320E+00  0.2073945E+00  0.2277122E+01  0.1346079E+00 -0.1577758E+00
 -0.1052630E+02 -0.3193130E+01 -0.1027320E+00  0.2005980E+00  0.2285538E+01  0.1314764E+00 -0.1515042E+00
 -0.1016270E+02 -0.4209520E+01 -0.1027320E+00  0.1915587E+00  0.2297839E+01  0.1273220E+00 -0.1431218E+00
 -0.9701130E+01 -0.5185360E+01 -0.1027320E+00  0.1807530E+00  0.2314169E+01  0.1223290E+00 -0.1330686E+00
 -0.9146160E+01 -0.6111270E+01 -0.1027320E+00  0.1678891E+00  0.2337883E+01  0.1165219E+00 -0.1208693E+00
 -0.8503110E+01 -0.6978330E+01 -0.1027320E+00  0.1526586E+00  0.2375449E+01  0.1100042E+00 -0.1058476E+00
 -0.7778170E+01 -0.7778180E+01 -0.1027320E+00  0.1362808E+00  0.2429320E+01  0.1031481E+00 -0.8906710E-01
 -0.6978330E+01 -0.8503110E+01 -0.1027320E+00  0.1194354E+00  0.2506285E+01  0.9613224E-01 -0.7087596E-01
 -0.6111270E+01 -0.9146170E+01 -0.1027320E+00  0.1026180E+00  0.2622264E+01  0.8908810E-01 -0.5092902E-01
 -0.5185360E+01 -0.9701130E+01 -0.1027320E+00  0.8724520E-01  0.2803096E+01  0.8229446E-01 -0.2897147E-01
 -0.4209510E+01 -0.1016270E+02 -0.1027320E+00  0.7620928E-01  0.3063547E+01  0.7597730E-01 -0.5941790E-02
 -0.3193130E+01 -0.1052630E+02 -0.1027320E+00  0.7247520E-01 -0.2891733E+01  0.7022464E-01  0.1792080E-01
 -0.2145990E+01 -0.1078860E+02 -0.1027320E+00  0.7796142E-01 -0.2561061E+01  0.6518910E-01  0.4275937E-01
 -0.1078190E+01 -0.1094700E+02 -0.1027320E+00  0.9169998E-01 -0.2300724E+01  0.6114698E-01  0.6833691E-01
  0.1311740E-06 -0.1100000E+02 -0.1027320E+00  0.1104849E+00 -0.2124265E+01  0.5807540E-01  0.9399018E-01
  0.1078190E+01 -0.1094700E+02 -0.1027320E+00  0.1320722E+00 -0.2008094E+01  0.5593161E-01  0.1196441E+00
  0.2145990E+01 -0.1078860E+02 -0.1027320E+00  0.1552187E+00 -0.1931574E+01  0.5479254E-01  0.1452261E+00
  0.3193140E+01 -0.1052630E+02 -0.1027320E+00  0.1786767E+00 -0.1882289E+01  0.5476080E-01  0.1700783E+00
  0.4209520E+01 -0.1016270E+02 -0.1027320E+00  0.2017708E+00 -0.1850002E+01  0.5560649E-01  0.1939571E+00
  0.5185360E+01 -0.9701130E+01 -0.1027320E+00  0.2244136E+00 -0.1828499E+01  0.5719403E-01  0.2170030E+00
  0.6111270E+01 -0.9146160E+01 -0.1027320E+00  0.2462703E+00 -0.1814736E+01  0.5948099E-01  0.2389792E+00
  0.6978330E+01 -0.8503110E+01 -0.1027320E+00  0.2663494E+00 -0.1807053E+01  0.6234314E-01  0.2589505E+00
  0.7778180E+01 -0.7778170E+01 -0.1027320E+00  0.2848024E+00 -0.1802884E+01  0.6550732E-01  0.2771664E+00
  0.8503120E+01 -0.6978320E+01 -0.1027320E+00  0.3019214E+00 -0.1800823E+01  0.6883912E-01  0.2939689E+00
  0.9146170E+01 -0.6111270E+01 -0.1027320E+00  0.3173352E+00 -0.1800362E+01  0.7221106E-01  0.3090100E+00
