 VARIABLES="X" "Y" "Z" "abs(eta) (m)" "angle(phi) (rad)" "PRE1" "PRE2"
ZONE N=   3200 ,E =    3136 ,F=FEPOINT,ET=QUADRILATERAL
  0.1010000E+02  0.0000000E+00  0.0000000E+00  0.3662221E+00 -0.1576159E+01  0.1963865E-02  0.3662168E+00
  0.1005140E+02  0.9899730E+00  0.0000000E+00  0.3193733E+00 -0.1596170E+01  0.8102857E-02  0.3192705E+00
  0.9905930E+01  0.1970410E+01  0.0000000E+00  0.2707062E+00 -0.1637445E+01  0.1802883E-01  0.2701052E+00
  0.9665100E+01  0.2931880E+01  0.0000000E+00  0.2224404E+00 -0.1713999E+01  0.3174531E-01  0.2201635E+00
  0.9331180E+01  0.3865100E+01  0.0000000E+00  0.1778739E+00 -0.1851875E+01  0.4934080E-01  0.1708936E+00
  0.8907400E+01  0.4761110E+01  0.0000000E+00  0.1410023E+00 -0.2093411E+01  0.7038099E-01  0.1221808E+00
  0.8397840E+01  0.5611260E+01  0.0000000E+00  0.1205575E+00 -0.2479229E+01  0.9506454E-01  0.7414072E-01
  0.7807410E+01  0.6407370E+01  0.0000000E+00  0.1255961E+00 -0.2916190E+01  0.1224190E+00  0.2807057E-01
  0.7141780E+01  0.7141780E+01  0.0000000E+00  0.1522661E+00  0.3044677E+01  0.1515515E+00 -0.1473394E-01
  0.6407370E+01  0.7807410E+01  0.0000000E+00  0.1901377E+00  0.2848717E+01  0.1820412E+00 -0.5489400E-01
  0.5611260E+01  0.8397840E+01  0.0000000E+00  0.2326240E+00  0.2734926E+01  0.2136522E+00 -0.9201436E-01
  0.4761110E+01  0.8907410E+01  0.0000000E+00  0.2752450E+00  0.2668208E+01  0.2449763E+00 -0.1254845E+00
  0.3865100E+01  0.9331180E+01  0.0000000E+00  0.3151215E+00  0.2629045E+01  0.2746278E+00 -0.1545353E+00
  0.2931870E+01  0.9665100E+01  0.0000000E+00  0.3521201E+00  0.2604482E+01  0.3025384E+00 -0.1801641E+00
  0.1970410E+01  0.9905930E+01  0.0000000E+00  0.3852529E+00  0.2590099E+01  0.3281364E+00 -0.2018571E+00
  0.9899730E+00  0.1005140E+02  0.0000000E+00  0.4134758E+00  0.2581711E+01  0.3503455E+00 -0.2195912E+00
 -0.4414850E-06  0.1010000E+02  0.0000000E+00  0.4356426E+00  0.2577098E+01  0.3680565E+00 -0.2330641E+00
 -0.9899740E+00  0.1005140E+02  0.0000000E+00  0.4525682E+00  0.2574066E+01  0.3816205E+00 -0.2432771E+00
 -0.1970410E+01  0.9905930E+01  0.0000000E+00  0.4633218E+00  0.2572748E+01  0.3903598E+00 -0.2495723E+00
 -0.2931880E+01  0.9665100E+01  0.0000000E+00  0.4678137E+00  0.2572376E+01  0.3940505E+00 -0.2521384E+00
 -0.3865100E+01  0.9331180E+01  0.0000000E+00  0.4656413E+00  0.2572873E+01  0.3923453E+00 -0.2507727E+00
 -0.4761110E+01  0.8907400E+01  0.0000000E+00  0.4577793E+00  0.2573533E+01  0.3858834E+00 -0.2462841E+00
 -0.5611260E+01  0.8397840E+01  0.0000000E+00  0.4432707E+00  0.2575434E+01  0.3741063E+00 -0.2377676E+00
 -0.6407370E+01  0.7807410E+01  0.0000000E+00  0.4228294E+00  0.2579241E+01  0.3577152E+00 -0.2254429E+00
 -0.7141780E+01  0.7141780E+01  0.0000000E+00  0.3968822E+00  0.2586532E+01  0.3372977E+00 -0.2091548E+00
 -0.7807410E+01  0.6407370E+01  0.0000000E+00  0.3663387E+00  0.2597947E+01  0.3135232E+00 -0.1894921E+00
 -0.8397840E+01  0.5611260E+01  0.0000000E+00  0.3305660E+00  0.2617510E+01  0.2861986E+00 -0.1654214E+00
 -0.8907410E+01  0.4761110E+01  0.0000000E+00  0.2910816E+00  0.2650063E+01  0.2566210E+00 -0.1373832E+00
 -0.9331180E+01  0.3865100E+01  0.0000000E+00  0.2495379E+00  0.2704627E+01  0.2260913E+00 -0.1056025E+00
 -0.9665100E+01  0.2931880E+01  0.0000000E+00  0.2074307E+00  0.2794555E+01  0.1950645E+00 -0.7054998E-01
 -0.9905930E+01  0.1970410E+01  0.0000000E+00  0.1667476E+00  0.2952559E+01  0.1637772E+00 -0.3133349E-01
 -0.1005140E+02  0.9899730E+00  0.0000000E+00  0.1339676E+00 -0.3059102E+01  0.1335120E+00  0.1103858E-01
 -0.1010000E+02 -0.8829700E-06  0.0000000E+00  0.1193668E+00 -0.2656502E+01  0.1055957E+00  0.5565940E-01
 -0.1005140E+02 -0.9899740E+00  0.0000000E+00  0.1298561E+00 -0.2235379E+01  0.8008629E-01  0.1022194E+00
 -0.9905930E+01 -0.1970410E+01  0.0000000E+00  0.1616883E+00 -0.1934089E+01  0.5745660E-01  0.1511352E+00
 -0.9665100E+01 -0.2931880E+01  0.0000000E+00  0.2045880E+00 -0.1758786E+01  0.3823423E-01  0.2009835E+00
 -0.9331180E+01 -0.3865100E+01  0.0000000E+00  0.2513722E+00 -0.1662537E+01  0.2302879E-01  0.2503151E+00
 -0.8907400E+01 -0.4761110E+01  0.0000000E+00  0.2994141E+00 -0.1609235E+01  0.1150621E-01  0.2991930E+00
 -0.8397840E+01 -0.5611260E+01  0.0000000E+00  0.3475706E+00 -0.1582340E+01  0.4012243E-02  0.3475474E+00
 -0.7807400E+01 -0.6407370E+01  0.0000000E+00  0.3940704E+00 -0.1570977E+01  0.7118139E-04  0.3940704E+00
 -0.7141780E+01 -0.7141780E+01  0.0000000E+00  0.4374371E+00 -0.1569202E+01 -0.6973606E-03  0.4374365E+00
 -0.6407370E+01 -0.7807410E+01  0.0000000E+00  0.4782093E+00 -0.1573463E+01  0.1275215E-02  0.4782076E+00
 -0.5611260E+01 -0.8397850E+01  0.0000000E+00  0.5160519E+00 -0.1582407E+01  0.5991525E-02  0.5160171E+00
 -0.4761110E+01 -0.8907410E+01  0.0000000E+00  0.5503653E+00 -0.1593370E+01  0.1242281E-01  0.5502251E+00
 -0.3865100E+01 -0.9331190E+01  0.0000000E+00  0.5803505E+00 -0.1604625E+01  0.1962859E-01  0.5800184E+00
 -0.2931870E+01 -0.9665100E+01  0.0000000E+00  0.6069567E+00 -0.1615969E+01  0.2740856E-01  0.6063375E+00
 -0.1970410E+01 -0.9905930E+01  0.0000000E+00  0.6296878E+00 -0.1627178E+01  0.3548430E-01  0.6286872E+00
 -0.9899710E+00 -0.1005140E+02  0.0000000E+00  0.6484425E+00 -0.1637154E+01  0.4299778E-01  0.6470153E+00
  0.1204410E-06 -0.1010000E+02  0.0000000E+00  0.6628100E+00 -0.1644989E+01  0.4913056E-01  0.6609865E+00
  0.9899760E+00 -0.1005140E+02  0.0000000E+00  0.6737227E+00 -0.1651057E+01  0.5401545E-01  0.6715539E+00
  0.1970410E+01 -0.9905930E+01  0.0000000E+00  0.6804990E+00 -0.1655059E+01  0.5727309E-01  0.6780846E+00
  0.2931880E+01 -0.9665100E+01  0.0000000E+00  0.6832837E+00 -0.1656804E+01  0.5869523E-01  0.6807580E+00
  0.3865100E+01 -0.9331180E+01  0.0000000E+00  0.6818370E+00 -0.1656028E+01  0.5804365E-01  0.6793619E+00
  0.4761110E+01 -0.8907410E+01  0.0000000E+00  0.6769689E+00 -0.1653125E+01  0.5567094E-01  0.6746759E+00
  0.5611260E+01 -0.8397840E+01  0.0000000E+00  0.6678039E+00 -0.1647671E+01  0.5128640E-01  0.6658316E+00
  0.6407370E+01 -0.7807410E+01  0.0000000E+00  0.6546447E+00 -0.1640204E+01  0.4540099E-01  0.6530685E+00
  0.7141780E+01 -0.7141780E+01  0.0000000E+00  0.6374138E+00 -0.1631244E+01  0.3850670E-01  0.6362496E+00
  0.7807410E+01 -0.6407370E+01  0.0000000E+00  0.6167225E+00 -0.1621035E+01  0.3097039E-01  0.6159444E+00
  0.8397840E+01 -0.5611260E+01  0.0000000E+00  0.5916086E+00 -0.1609320E+01  0.2278540E-01  0.5911697E+00
  0.8907410E+01 -0.4761110E+01  0.0000000E+00  0.5626057E+00 -0.1597269E+01  0.1489215E-01  0.5624086E+00
  0.9331180E+01 -0.3865100E+01  0.0000000E+00  0.5299819E+00 -0.1586455E+01  0.8298435E-02  0.5299169E+00
  0.9665100E+01 -0.2931870E+01  0.0000000E+00  0.4941529E+00 -0.1577245E+01  0.3186684E-02  0.4941426E+00
  0.9905930E+01 -0.1970410E+01  0.0000000E+00  0.4542560E+00 -0.1570530E+01 -0.1209516E-03  0.4542559E+00
  0.1005140E+02 -0.9899690E+00  0.0000000E+00  0.4113042E+00 -0.1568786E+01 -0.8267757E-03  0.4113033E+00
  0.1010000E+02  0.0000000E+00 -0.2568960E-01  0.3656430E+00 -0.1576159E+01  0.1960765E-02  0.3656378E+00
  0.1005140E+02  0.9899730E+00 -0.2568960E-01  0.3188669E+00 -0.1596146E+01  0.8082312E-02  0.3187645E+00
  0.9905930E+01  0.1970410E+01 -0.2568960E-01  0.2702618E+00 -0.1637511E+01  0.1801701E-01  0.2696606E+00
  0.9665100E+01  0.2931880E+01 -0.2568960E-01  0.2220730E+00 -0.1713966E+01  0.3168565E-01  0.2198009E+00
  0.9331180E+01  0.3865100E+01 -0.2568960E-01  0.1775727E+00 -0.1851895E+01  0.4926063E-01  0.1706032E+00
  0.8907400E+01  0.4761110E+01 -0.2568960E-01  0.1407501E+00 -0.2093486E+01  0.7026423E-01  0.1219571E+00
  0.8397840E+01  0.5611260E+01 -0.2568960E-01  0.1203728E+00 -0.2479336E+01  0.9492674E-01  0.7401701E-01
  0.7807410E+01  0.6407370E+01 -0.2568960E-01  0.1253877E+00 -0.2916522E+01  0.1222252E+00  0.2798343E-01
  0.7141780E+01  0.7141780E+01 -0.2568960E-01  0.1520356E+00  0.3044425E+01  0.1513185E+00 -0.1474968E-01
  0.6407370E+01  0.7807410E+01 -0.2568960E-01  0.1898630E+00  0.2848455E+01  0.1817638E+00 -0.5486229E-01
  0.5611260E+01  0.8397840E+01 -0.2568960E-01  0.2322603E+00  0.2734949E+01  0.2133203E+00 -0.9186564E-01
  0.4761110E+01  0.8907410E+01 -0.2568960E-01  0.2748562E+00  0.2668038E+01  0.2446090E+00 -0.1253489E+00
  0.3865100E+01  0.9331180E+01 -0.2568960E-01  0.3146666E+00  0.2628938E+01  0.2742148E+00 -0.1543417E+00
  0.2931870E+01  0.9665100E+01 -0.2568960E-01  0.3516251E+00  0.2604359E+01  0.3020909E+00 -0.1799480E+00
  0.1970410E+01  0.9905930E+01 -0.2568960E-01  0.3846376E+00  0.2590119E+01  0.3276163E+00 -0.2015282E+00
  0.9899730E+00  0.1005140E+02 -0.2568960E-01  0.4128935E+00  0.2581616E+01  0.3498312E+00 -0.2193153E+00
 -0.4414850E-06  0.1010000E+02 -0.2568960E-01  0.4350098E+00  0.2577029E+01  0.3675060E+00 -0.2327508E+00
 -0.9899740E+00  0.1005140E+02 -0.2568960E-01  0.4519292E+00  0.2573983E+01  0.3810615E+00 -0.2429651E+00
 -0.1970410E+01  0.9905930E+01 -0.2568960E-01  0.4625772E+00  0.2572765E+01  0.3897367E+00 -0.2491646E+00
 -0.2931880E+01  0.9665100E+01 -0.2568960E-01  0.4671534E+00  0.2572299E+01  0.3934749E+00 -0.2518131E+00
 -0.3865100E+01  0.9331180E+01 -0.2568960E-01  0.4649641E+00  0.2572813E+01  0.3917595E+00 -0.2504318E+00
 -0.4761110E+01  0.8907400E+01 -0.2568960E-01  0.4571331E+00  0.2573452E+01  0.3853187E+00 -0.2459678E+00
 -0.5611260E+01  0.8397840E+01 -0.2568960E-01  0.4425593E+00  0.2575452E+01  0.3735101E+00 -0.2373793E+00
 -0.6407370E+01  0.7807410E+01 -0.2568960E-01  0.4222341E+00  0.2579150E+01  0.3571910E+00 -0.2251582E+00
 -0.7141780E+01  0.7141780E+01 -0.2568960E-01  0.3963064E+00  0.2586453E+01  0.3367918E+00 -0.2088781E+00
 -0.7807410E+01  0.6407370E+01 -0.2568960E-01  0.3658223E+00  0.2597831E+01  0.3130592E+00 -0.1892613E+00
 -0.8397840E+01  0.5611260E+01 -0.2568960E-01  0.3300404E+00  0.2617532E+01  0.2857471E+00 -0.1651522E+00
 -0.8907410E+01  0.4761110E+01 -0.2568960E-01  0.2906724E+00  0.2649905E+01  0.2562386E+00 -0.1372305E+00
 -0.9331180E+01  0.3865100E+01 -0.2568960E-01  0.2491760E+00  0.2704479E+01  0.2257478E+00 -0.1054826E+00
 -0.9665100E+01  0.2931880E+01 -0.2568960E-01  0.2071321E+00  0.2794319E+01  0.1947672E+00 -0.7049440E-01
 -0.9905930E+01  0.1970410E+01 -0.2568960E-01  0.1664926E+00  0.2952566E+01  0.1635270E+00 -0.3128445E-01
 -0.1005140E+02  0.9899730E+00 -0.2568960E-01  0.1337547E+00 -0.3059450E+01  0.1333037E+00  0.1097459E-01
 -0.1010000E+02 -0.8829700E-06 -0.2568960E-01  0.1191649E+00 -0.2656749E+01  0.1054309E+00  0.5553924E-01
 -0.1005140E+02 -0.9899740E+00 -0.2568960E-01  0.1296223E+00 -0.2235501E+01  0.7995450E-01  0.1020256E+00
 -0.9905930E+01 -0.1970410E+01 -0.2568960E-01  0.1614276E+00 -0.1934197E+01  0.5738023E-01  0.1508854E+00
 -0.9665100E+01 -0.2931880E+01 -0.2568960E-01  0.2042445E+00 -0.1758763E+01  0.3816544E-01  0.2006470E+00
 -0.9331180E+01 -0.3865100E+01 -0.2568960E-01  0.2509629E+00 -0.1662532E+01  0.2299006E-01  0.2499076E+00
 -0.8907400E+01 -0.4761110E+01 -0.2568960E-01  0.2989378E+00 -0.1609209E+01  0.1148031E-01  0.2987173E+00
 -0.8397840E+01 -0.5611260E+01 -0.2568960E-01  0.3469996E+00 -0.1582389E+01  0.4022578E-02  0.3469763E+00
 -0.7807400E+01 -0.6407370E+01 -0.2568960E-01  0.3934570E+00 -0.1570966E+01  0.6689931E-04  0.3934570E+00
 -0.7141780E+01 -0.7141780E+01 -0.2568960E-01  0.4367523E+00 -0.1569211E+01 -0.6925230E-03  0.4367517E+00
 -0.6407370E+01 -0.7807410E+01 -0.2568960E-01  0.4774753E+00 -0.1573470E+01  0.1276861E-02  0.4774736E+00
 -0.5611260E+01 -0.8397850E+01 -0.2568960E-01  0.5152049E+00 -0.1582437E+01  0.5997156E-02  0.5151700E+00
 -0.4761110E+01 -0.8907410E+01 -0.2568960E-01  0.5495248E+00 -0.1593390E+01  0.1241476E-01  0.5493845E+00
 -0.3865100E+01 -0.9331190E+01 -0.2568960E-01  0.5794522E+00 -0.1604650E+01  0.1961293E-01  0.5791202E+00
 -0.2931870E+01 -0.9665100E+01 -0.2568960E-01  0.6060336E+00 -0.1616001E+01  0.2738602E-01  0.6054145E+00
 -0.1970410E+01 -0.9905930E+01 -0.2568960E-01  0.6286545E+00 -0.1627201E+01  0.3544013E-01  0.6276547E+00
 -0.9899710E+00 -0.1005140E+02 -0.2568960E-01  0.6474586E+00 -0.1637193E+01  0.4295741E-01  0.6460319E+00
  0.1204410E-06 -0.1010000E+02 -0.2568960E-01  0.6617872E+00 -0.1645025E+01  0.4907852E-01  0.6599649E+00
  0.9899760E+00 -0.1005140E+02 -0.2568960E-01  0.6727006E+00 -0.1651101E+01  0.5396325E-01  0.6705326E+00
  0.1970410E+01 -0.9905930E+01 -0.2568960E-01  0.6793821E+00 -0.1655079E+01  0.5719220E-01  0.6769705E+00
  0.2931880E+01 -0.9665100E+01 -0.2568960E-01  0.6822471E+00 -0.1656850E+01  0.5863754E-01  0.6797225E+00
  0.3865100E+01 -0.9331180E+01 -0.2568960E-01  0.6807856E+00 -0.1656067E+01  0.5798057E-01  0.6783121E+00
  0.4761110E+01 -0.8907410E+01 -0.2568960E-01  0.6759421E+00 -0.1653169E+01  0.5561622E-01  0.6736501E+00
  0.5611260E+01 -0.8397840E+01 -0.2568960E-01  0.6667085E+00 -0.1647690E+01  0.5121545E-01  0.6647385E+00
  0.6407370E+01 -0.7807410E+01 -0.2568960E-01  0.6536511E+00 -0.1640245E+01  0.4535864E-01  0.6520754E+00
  0.7141780E+01 -0.7141780E+01 -0.2568960E-01  0.6364294E+00 -0.1631277E+01  0.3846851E-01  0.6352658E+00
  0.7807410E+01 -0.6407370E+01 -0.2568960E-01  0.6157846E+00 -0.1621068E+01  0.3094321E-01  0.6150066E+00
  0.8397840E+01 -0.5611260E+01 -0.2568960E-01  0.5906381E+00 -0.1609345E+01  0.2276282E-01  0.5901993E+00
  0.8907410E+01 -0.4761110E+01 -0.2568960E-01  0.5617483E+00 -0.1597292E+01  0.1488231E-01  0.5615512E+00
  0.9331180E+01 -0.3865100E+01 -0.2568960E-01  0.5291594E+00 -0.1586475E+01  0.8296086E-02  0.5290943E+00
  0.9665100E+01 -0.2931870E+01 -0.2568960E-01  0.4933950E+00 -0.1577254E+01  0.3185993E-02  0.4933847E+00
  0.9905930E+01 -0.1970410E+01 -0.2568960E-01  0.4535098E+00 -0.1570566E+01 -0.1043495E-03  0.4535098E+00
  0.1005140E+02 -0.9899690E+00 -0.2568960E-01  0.4106676E+00 -0.1568780E+01 -0.8280293E-03  0.4106667E+00
  0.1010000E+02  0.0000000E+00 -0.1027320E+00  0.3639356E+00 -0.1576058E+01  0.1914720E-02  0.3639305E+00
  0.1005140E+02  0.9899730E+00 -0.1027320E+00  0.3173373E+00 -0.1596078E+01  0.8021919E-02  0.3172359E+00
  0.9905930E+01  0.1970410E+01 -0.1027320E+00  0.2689484E+00 -0.1637478E+01  0.1792067E-01  0.2683507E+00
  0.9665100E+01  0.2931880E+01 -0.1027320E+00  0.2209840E+00 -0.1713874E+01  0.3151005E-01  0.2187259E+00
  0.9331180E+01  0.3865100E+01 -0.1027320E+00  0.1766602E+00 -0.1851756E+01  0.4898393E-01  0.1697333E+00
  0.8907400E+01  0.4761110E+01 -0.1027320E+00  0.1400132E+00 -0.2093617E+01  0.6991220E-01  0.1213095E+00
  0.8397840E+01  0.5611260E+01 -0.1027320E+00  0.1197612E+00 -0.2479673E+01  0.9446934E-01  0.7360906E-01
  0.7807410E+01  0.6407370E+01 -0.1027320E+00  0.1247638E+00 -0.2917159E+01  0.1216348E+00  0.2776677E-01
  0.7141780E+01  0.7141780E+01 -0.1027320E+00  0.1513257E+00  0.3043489E+01  0.1505981E+00 -0.1482175E-01
  0.6407370E+01  0.7807410E+01 -0.1027320E+00  0.1890077E+00  0.2847909E+01  0.1809152E+00 -0.5471394E-01
  0.5611260E+01  0.8397840E+01 -0.1027320E+00  0.2312004E+00  0.2734669E+01  0.2123212E+00 -0.9150597E-01
  0.4761110E+01  0.8907410E+01 -0.1027320E+00  0.2736316E+00  0.2667688E+01  0.2434755E+00 -0.1248756E+00
  0.3865100E+01  0.9331180E+01 -0.1027320E+00  0.3133242E+00  0.2628492E+01  0.2729763E+00 -0.1538050E+00
  0.2931870E+01  0.9665100E+01 -0.1027320E+00  0.3500736E+00  0.2604104E+01  0.3007122E+00 -0.1792309E+00
  0.1970410E+01  0.9905930E+01 -0.1027320E+00  0.3828885E+00  0.2589981E+01  0.3260989E+00 -0.2006567E+00
  0.9899730E+00  0.1005140E+02 -0.1027320E+00  0.4110648E+00  0.2581411E+01  0.3482372E+00 -0.2184151E+00
 -0.4414850E-06  0.1010000E+02 -0.1027320E+00  0.4331625E+00  0.2576745E+01  0.3658794E+00 -0.2318663E+00
 -0.9899740E+00  0.1005140E+02 -0.1027320E+00  0.4499330E+00  0.2573810E+01  0.3793364E+00 -0.2419578E+00
 -0.1970410E+01  0.9905930E+01 -0.1027320E+00  0.4604723E+00  0.2572667E+01  0.3879388E+00 -0.2480690E+00
 -0.2931880E+01  0.9665100E+01 -0.1027320E+00  0.4650872E+00  0.2572133E+01  0.3916928E+00 -0.2507644E+00
 -0.3865100E+01  0.9331180E+01 -0.1027320E+00  0.4629908E+00  0.2572557E+01  0.3900332E+00 -0.2494685E+00
 -0.4761110E+01  0.8907400E+01 -0.1027320E+00  0.4551102E+00  0.2573279E+01  0.3835714E+00 -0.2449454E+00
 -0.5611260E+01  0.8397840E+01 -0.1027320E+00  0.4405461E+00  0.2575346E+01  0.3717858E+00 -0.2363391E+00
 -0.6407370E+01  0.7807410E+01 -0.1027320E+00  0.4203690E+00  0.2578953E+01  0.3555692E+00 -0.2242335E+00
 -0.7141780E+01  0.7141780E+01 -0.1027320E+00  0.3946236E+00  0.2586128E+01  0.3352942E+00 -0.2080999E+00
 -0.7807410E+01  0.6407370E+01 -0.1027320E+00  0.3642016E+00  0.2597588E+01  0.3116266E+00 -0.1884986E+00
 -0.8397840E+01  0.5611260E+01 -0.1027320E+00  0.3285401E+00  0.2617359E+01  0.2844197E+00 -0.1644507E+00
 -0.8907410E+01  0.4761110E+01 -0.1027320E+00  0.2893884E+00  0.2649575E+01  0.2550615E+00 -0.1367087E+00
 -0.9331180E+01  0.3865100E+01 -0.1027320E+00  0.2481028E+00  0.2703891E+01  0.2247138E+00 -0.1051605E+00
 -0.9665100E+01  0.2931880E+01 -0.1027320E+00  0.2061964E+00  0.2793840E+01  0.1938537E+00 -0.7026888E-01
 -0.9905930E+01  0.1970410E+01 -0.1027320E+00  0.1657194E+00  0.2952158E+01  0.1627548E+00 -0.3120556E-01
 -0.1005140E+02  0.9899730E+00 -0.1027320E+00  0.1331102E+00 -0.3060175E+01  0.1326692E+00  0.1082555E-01
 -0.1010000E+02 -0.8829700E-06 -0.1027320E+00  0.1185263E+00 -0.2657490E+01  0.1049068E+00  0.5516379E-01
 -0.1005140E+02 -0.9899740E+00 -0.1027320E+00  0.1289443E+00 -0.2235682E+01  0.7955471E-01  0.1014775E+00
 -0.9905930E+01 -0.1970410E+01 -0.1027320E+00  0.1606144E+00 -0.1934236E+01  0.5709707E-01  0.1501230E+00
 -0.9665100E+01 -0.2931880E+01 -0.1027320E+00  0.2032238E+00 -0.1758691E+01  0.3796034E-01  0.1996470E+00
 -0.9331180E+01 -0.3865100E+01 -0.1027320E+00  0.2497433E+00 -0.1662355E+01  0.2283412E-01  0.2486973E+00
 -0.8907400E+01 -0.4761110E+01 -0.1027320E+00  0.2975073E+00 -0.1609135E+01  0.1140320E-01  0.2972886E+00
 -0.8397840E+01 -0.5611260E+01 -0.1027320E+00  0.3453326E+00 -0.1582372E+01  0.3997385E-02  0.3453095E+00
 -0.7807400E+01 -0.6407370E+01 -0.1027320E+00  0.3915938E+00 -0.1570927E+01  0.5106293E-04  0.3915938E+00
 -0.7141780E+01 -0.7141780E+01 -0.1027320E+00  0.4347386E+00 -0.1569161E+01 -0.7107623E-03  0.4347380E+00
 -0.6407370E+01 -0.7807410E+01 -0.1027320E+00  0.4752424E+00 -0.1573478E+01  0.1274301E-02  0.4752407E+00
 -0.5611260E+01 -0.8397850E+01 -0.1027320E+00  0.5127598E+00 -0.1582466E+01  0.5983423E-02  0.5127249E+00
 -0.4761110E+01 -0.8907410E+01 -0.1027320E+00  0.5469598E+00 -0.1593419E+01  0.1237276E-01  0.5468198E+00
 -0.3865100E+01 -0.9331190E+01 -0.1027320E+00  0.5768164E+00 -0.1604698E+01  0.1955156E-01  0.5764850E+00
 -0.2931870E+01 -0.9665100E+01 -0.1027320E+00  0.6032178E+00 -0.1616064E+01  0.2729698E-01  0.6025999E+00
 -0.1970410E+01 -0.9905930E+01 -0.1027320E+00  0.6256822E+00 -0.1627263E+01  0.3531161E-01  0.6246849E+00
 -0.9899710E+00 -0.1005140E+02 -0.1027320E+00  0.6444508E+00 -0.1637267E+01  0.4280549E-01  0.6430276E+00
  0.1204410E-06 -0.1010000E+02 -0.1027320E+00  0.6587895E+00 -0.1645128E+01  0.4892351E-01  0.6569704E+00
  0.9899760E+00 -0.1005140E+02 -0.1027320E+00  0.6695805E+00 -0.1651191E+01  0.5377270E-01  0.6674178E+00
  0.1970410E+01 -0.9905930E+01 -0.1027320E+00  0.6761732E+00 -0.1655156E+01  0.5697434E-01  0.6737686E+00
  0.2931880E+01 -0.9665100E+01 -0.1027320E+00  0.6790827E+00 -0.1656942E+01  0.5842774E-01  0.6765645E+00
  0.3865100E+01 -0.9331180E+01 -0.1027320E+00  0.6777046E+00 -0.1656182E+01  0.5779586E-01  0.6752356E+00
  0.4761110E+01 -0.8907410E+01 -0.1027320E+00  0.6728061E+00 -0.1653257E+01  0.5541704E-01  0.6705200E+00
  0.5611260E+01 -0.8397840E+01 -0.1027320E+00  0.6635584E+00 -0.1647764E+01  0.5102238E-01  0.6615939E+00
  0.6407370E+01 -0.7807410E+01 -0.1027320E+00  0.6506178E+00 -0.1640327E+01  0.4520164E-01  0.6490457E+00
  0.7141780E+01 -0.7141780E+01 -0.1027320E+00  0.6335436E+00 -0.1631363E+01  0.3834812E-01  0.6323820E+00
  0.7807410E+01 -0.6407370E+01 -0.1027320E+00  0.6129208E+00 -0.1621126E+01  0.3083521E-01  0.6121446E+00
  0.8397840E+01 -0.5611260E+01 -0.1027320E+00  0.5878422E+00 -0.1609396E+01  0.2268508E-01  0.5874044E+00
