 VARIABLES="X" "Y" "Z" "abs(eta) (m)" "angle(phi) (rad)" "PRE1" "PRE2"
ZONE N=   3200 ,E =    3136 ,F=FEPOINT,ET=QUADRILATERAL
  0.1100000E+02  0.0000000E+00  0.0000000E+00  0.1109043E+00 -0.2124348E+01  0.5830368E-01  0.9434214E-01
  0.1094700E+02  0.1078190E+01  0.0000000E+00  0.1325598E+00 -0.2008133E+01  0.5614281E-01  0.1200837E+00
  0.1078860E+02  0.2145990E+01  0.0000000E+00  0.1558050E+00 -0.1931508E+01  0.5498983E-01  0.1457783E+00
  0.1052630E+02  0.3193130E+01  0.0000000E+00  0.1793467E+00 -0.1882291E+01  0.5496655E-01  0.1707159E+00
  0.1016270E+02  0.4209520E+01  0.0000000E+00  0.2025010E+00 -0.1850063E+01  0.5581953E-01  0.1946557E+00
  0.9701130E+01  0.5185360E+01  0.0000000E+00  0.2252391E+00 -0.1828490E+01  0.5740237E-01  0.2178017E+00
  0.9146170E+01  0.6111270E+01  0.0000000E+00  0.2472133E+00 -0.1814669E+01  0.5969263E-01  0.2398983E+00
  0.8503110E+01  0.6978330E+01  0.0000000E+00  0.2673389E+00 -0.1807032E+01  0.6256916E-01  0.2599138E+00
  0.7778170E+01  0.7778170E+01  0.0000000E+00  0.2858189E+00 -0.1802884E+01  0.6574098E-01  0.2781556E+00
  0.6978330E+01  0.8503110E+01  0.0000000E+00  0.3030320E+00 -0.1800781E+01  0.6907991E-01  0.2950532E+00
  0.6111270E+01  0.9146170E+01  0.0000000E+00  0.3185570E+00 -0.1800289E+01  0.7246646E-01  0.3102050E+00
  0.5185360E+01  0.9701130E+01  0.0000000E+00  0.3311744E+00 -0.1801173E+01  0.7562168E-01  0.3224249E+00
  0.4209520E+01  0.1016270E+02  0.0000000E+00  0.3416039E+00 -0.1802382E+01  0.7840548E-01  0.3324843E+00
  0.3193130E+01  0.1052630E+02  0.0000000E+00  0.3503979E+00 -0.1803455E+01  0.8078955E-01  0.3409570E+00
  0.2145990E+01  0.1078860E+02  0.0000000E+00  0.3570155E+00 -0.1804361E+01  0.8262993E-01  0.3473217E+00
  0.1078190E+01  0.1094700E+02  0.0000000E+00  0.3602281E+00 -0.1805183E+01  0.8366188E-01  0.3503784E+00
 -0.4808250E-06  0.1100000E+02  0.0000000E+00  0.3611017E+00 -0.1805507E+01  0.8397824E-01  0.3512009E+00
 -0.1078190E+01  0.1094700E+02  0.0000000E+00  0.3602284E+00 -0.1805183E+01  0.8366184E-01  0.3503787E+00
 -0.2145990E+01  0.1078860E+02  0.0000000E+00  0.3570157E+00 -0.1804361E+01  0.8263005E-01  0.3473219E+00
 -0.3193130E+01  0.1052630E+02  0.0000000E+00  0.3503980E+00 -0.1803455E+01  0.8078954E-01  0.3409572E+00
 -0.4209520E+01  0.1016270E+02  0.0000000E+00  0.3416040E+00 -0.1802383E+01  0.7840554E-01  0.3324843E+00
 -0.5185370E+01  0.9701130E+01  0.0000000E+00  0.3311740E+00 -0.1801173E+01  0.7562160E-01  0.3224246E+00
 -0.6111270E+01  0.9146160E+01  0.0000000E+00  0.3185574E+00 -0.1800289E+01  0.7246647E-01  0.3102055E+00
 -0.6978330E+01  0.8503120E+01  0.0000000E+00  0.3030320E+00 -0.1800780E+01  0.6907979E-01  0.2950531E+00
 -0.7778170E+01  0.7778170E+01  0.0000000E+00  0.2858192E+00 -0.1802884E+01  0.6574105E-01  0.2781560E+00
 -0.8503120E+01  0.6978330E+01  0.0000000E+00  0.2673390E+00 -0.1807031E+01  0.6256893E-01  0.2599140E+00
 -0.9146170E+01  0.6111270E+01  0.0000000E+00  0.2472142E+00 -0.1814668E+01  0.5969277E-01  0.2398993E+00
 -0.9701130E+01  0.5185360E+01  0.0000000E+00  0.2252396E+00 -0.1828490E+01  0.5740251E-01  0.2178022E+00
 -0.1016270E+02  0.4209520E+01  0.0000000E+00  0.2025013E+00 -0.1850063E+01  0.5581956E-01  0.1946559E+00
 -0.1052630E+02  0.3193130E+01  0.0000000E+00  0.1793469E+00 -0.1882292E+01  0.5496667E-01  0.1707161E+00
 -0.1078860E+02  0.2145990E+01  0.0000000E+00  0.1558052E+00 -0.1931508E+01  0.5498989E-01  0.1457786E+00
 -0.1094700E+02  0.1078190E+01  0.0000000E+00  0.1325600E+00 -0.2008132E+01  0.5614279E-01  0.1200839E+00
 -0.1100000E+02 -0.9616510E-06  0.0000000E+00  0.1109044E+00 -0.2124347E+01  0.5830365E-01  0.9434233E-01
 -0.1094700E+02 -0.1078190E+01  0.0000000E+00  0.9205035E-01 -0.2300669E+01  0.6137683E-01  0.6860139E-01
 -0.1078860E+02 -0.2146000E+01  0.0000000E+00  0.7824229E-01 -0.2561101E+01  0.6542568E-01  0.4291080E-01
 -0.1052630E+02 -0.3193130E+01  0.0000000E+00  0.7274666E-01 -0.2891740E+01  0.7048780E-01  0.1798742E-01
 -0.1016270E+02 -0.4209520E+01  0.0000000E+00  0.7649434E-01  0.3063913E+01  0.7626367E-01 -0.5936084E-02
 -0.9701130E+01 -0.5185360E+01  0.0000000E+00  0.8756006E-01  0.2803221E+01  0.8259509E-01 -0.2906570E-01
 -0.9146160E+01 -0.6111270E+01  0.0000000E+00  0.1030058E+00  0.2622005E+01  0.8941147E-01 -0.5114464E-01
 -0.8503110E+01 -0.6978330E+01  0.0000000E+00  0.1198713E+00  0.2506282E+01  0.9648286E-01 -0.7113498E-01
 -0.7778170E+01 -0.7778180E+01  0.0000000E+00  0.1367460E+00  0.2429514E+01  0.1035175E+00 -0.8935107E-01
 -0.6978330E+01 -0.8503110E+01  0.0000000E+00  0.1532044E+00  0.2375436E+01  0.1103962E+00 -0.1062275E+00
 -0.6111270E+01 -0.9146170E+01  0.0000000E+00  0.1685350E+00  0.2337668E+01  0.1169440E+00 -0.1213595E+00
 -0.5185360E+01 -0.9701130E+01  0.0000000E+00  0.1814070E+00  0.2314122E+01  0.1227654E+00 -0.1335558E+00
 -0.4209510E+01 -0.1016270E+02  0.0000000E+00  0.1922062E+00  0.2297917E+01  0.1277635E+00 -0.1435957E+00
 -0.3193130E+01 -0.1052630E+02  0.0000000E+00  0.2013181E+00  0.2285481E+01  0.1319396E+00 -0.1520556E+00
 -0.2145990E+01 -0.1078860E+02  0.0000000E+00  0.2081948E+00  0.2276922E+01  0.1350957E+00 -0.1584116E+00
 -0.1078190E+01 -0.1094700E+02  0.0000000E+00  0.2116581E+00  0.2273916E+01  0.1368582E+00 -0.1614590E+00
  0.1311740E-06 -0.1100000E+02  0.0000000E+00  0.2126346E+00  0.2273382E+01  0.1374030E+00 -0.1622772E+00
  0.1078190E+01 -0.1094700E+02  0.0000000E+00  0.2116582E+00  0.2273916E+01  0.1368583E+00 -0.1614590E+00
  0.2145990E+01 -0.1078860E+02  0.0000000E+00  0.2081947E+00  0.2276921E+01  0.1350955E+00 -0.1584117E+00
  0.3193140E+01 -0.1052630E+02  0.0000000E+00  0.2013179E+00  0.2285480E+01  0.1319395E+00 -0.1520555E+00
  0.4209520E+01 -0.1016270E+02  0.0000000E+00  0.1922061E+00  0.2297915E+01  0.1277632E+00 -0.1435957E+00
  0.5185360E+01 -0.9701130E+01  0.0000000E+00  0.1814068E+00  0.2314123E+01  0.1227654E+00 -0.1335556E+00
  0.6111270E+01 -0.9146160E+01  0.0000000E+00  0.1685351E+00  0.2337668E+01  0.1169441E+00 -0.1213595E+00
  0.6978330E+01 -0.8503110E+01  0.0000000E+00  0.1532043E+00  0.2375436E+01  0.1103961E+00 -0.1062275E+00
  0.7778180E+01 -0.7778170E+01  0.0000000E+00  0.1367458E+00  0.2429514E+01  0.1035173E+00 -0.8935086E-01
  0.8503120E+01 -0.6978320E+01  0.0000000E+00  0.1198710E+00  0.2506283E+01  0.9648267E-01 -0.7113466E-01
  0.9146170E+01 -0.6111270E+01  0.0000000E+00  0.1030057E+00  0.2622006E+01  0.8941142E-01 -0.5114453E-01
  0.9701130E+01 -0.5185360E+01  0.0000000E+00  0.8756005E-01  0.2803221E+01  0.8259509E-01 -0.2906568E-01
  0.1016270E+02 -0.4209520E+01  0.0000000E+00  0.7649434E-01  0.3063910E+01  0.7626365E-01 -0.5936321E-02
  0.1052630E+02 -0.3193130E+01  0.0000000E+00  0.7274663E-01 -0.2891741E+01  0.7048777E-01  0.1798739E-01
  0.1078860E+02 -0.2145990E+01  0.0000000E+00  0.7824229E-01 -0.2561099E+01  0.6542559E-01  0.4291093E-01
  0.1094700E+02 -0.1078180E+01  0.0000000E+00  0.9205025E-01 -0.2300668E+01  0.6137667E-01  0.6860140E-01
  0.1100000E+02  0.0000000E+00 -0.2568960E-01  0.1108002E+00 -0.2124339E+01  0.5824815E-01  0.9425408E-01
  0.1094700E+02  0.1078190E+01 -0.2568960E-01  0.1324393E+00 -0.2008132E+01  0.5609173E-01  0.1199746E+00
  0.1078860E+02  0.2145990E+01 -0.2568960E-01  0.1556595E+00 -0.1931535E+01  0.5494236E-01  0.1456407E+00
  0.1052630E+02  0.3193130E+01 -0.2568960E-01  0.1791800E+00 -0.1882298E+01  0.5491658E-01  0.1705569E+00
  0.1016270E+02  0.4209520E+01 -0.2568960E-01  0.2023207E+00 -0.1850049E+01  0.5576713E-01  0.1944832E+00
  0.9701130E+01  0.5185360E+01 -0.2568960E-01  0.2250347E+00 -0.1828494E+01  0.5735124E-01  0.2176039E+00
  0.9146170E+01  0.6111270E+01 -0.2568960E-01  0.2469794E+00 -0.1814686E+01  0.5964031E-01  0.2396703E+00
  0.8503110E+01  0.6978330E+01 -0.2568960E-01  0.2670940E+00 -0.1807035E+01  0.6251263E-01  0.2596756E+00
  0.7778170E+01  0.7778170E+01 -0.2568960E-01  0.2855681E+00 -0.1802879E+01  0.6568211E-01  0.2779119E+00
  0.6978330E+01  0.8503110E+01 -0.2568960E-01  0.3027569E+00 -0.1800787E+01  0.6901905E-01  0.2947849E+00
  0.6111270E+01  0.9146170E+01 -0.2568960E-01  0.3182531E+00 -0.1800302E+01  0.7240146E-01  0.3099081E+00
  0.5185360E+01  0.9701130E+01 -0.2568960E-01  0.3308714E+00 -0.1801178E+01  0.7555430E-01  0.3221295E+00
  0.4209520E+01  0.1016270E+02 -0.2568960E-01  0.3413059E+00 -0.1802384E+01  0.7833771E-01  0.3321941E+00
  0.3193130E+01  0.1052630E+02 -0.2568960E-01  0.3500797E+00 -0.1803462E+01  0.8071857E-01  0.3406469E+00
  0.2145990E+01  0.1078860E+02 -0.2568960E-01  0.3566745E+00 -0.1804372E+01  0.8255500E-01  0.3469890E+00
  0.1078190E+01  0.1094700E+02 -0.2568960E-01  0.3599009E+00 -0.1805190E+01  0.8358808E-01  0.3500596E+00
 -0.4808250E-06  0.1100000E+02 -0.2568960E-01  0.3607875E+00 -0.1805510E+01  0.8390652E-01  0.3508950E+00
 -0.1078190E+01  0.1094700E+02 -0.2568960E-01  0.3599010E+00 -0.1805190E+01  0.8358811E-01  0.3500597E+00
 -0.2145990E+01  0.1078860E+02 -0.2568960E-01  0.3566746E+00 -0.1804372E+01  0.8255503E-01  0.3469892E+00
 -0.3193130E+01  0.1052630E+02 -0.2568960E-01  0.3500795E+00 -0.1803462E+01  0.8071855E-01  0.3406467E+00
 -0.4209520E+01  0.1016270E+02 -0.2568960E-01  0.3413060E+00 -0.1802385E+01  0.7833781E-01  0.3321942E+00
 -0.5185370E+01  0.9701130E+01 -0.2568960E-01  0.3308717E+00 -0.1801178E+01  0.7555423E-01  0.3221298E+00
 -0.6111270E+01  0.9146160E+01 -0.2568960E-01  0.3182535E+00 -0.1800302E+01  0.7240153E-01  0.3099086E+00
 -0.6978330E+01  0.8503120E+01 -0.2568960E-01  0.3027571E+00 -0.1800787E+01  0.6901904E-01  0.2947851E+00
 -0.7778170E+01  0.7778170E+01 -0.2568960E-01  0.2855681E+00 -0.1802879E+01  0.6568214E-01  0.2779119E+00
 -0.8503120E+01  0.6978330E+01 -0.2568960E-01  0.2670941E+00 -0.1807034E+01  0.6251249E-01  0.2596757E+00
 -0.9146170E+01  0.6111270E+01 -0.2568960E-01  0.2469793E+00 -0.1814686E+01  0.5964030E-01  0.2396702E+00
 -0.9701130E+01  0.5185360E+01 -0.2568960E-01  0.2250350E+00 -0.1828494E+01  0.5735127E-01  0.2176042E+00
 -0.1016270E+02  0.4209520E+01 -0.2568960E-01  0.2023209E+00 -0.1850049E+01  0.5576713E-01  0.1944833E+00
 -0.1052630E+02  0.3193130E+01 -0.2568960E-01  0.1791800E+00 -0.1882299E+01  0.5491668E-01  0.1705568E+00
 -0.1078860E+02  0.2145990E+01 -0.2568960E-01  0.1556597E+00 -0.1931534E+01  0.5494231E-01  0.1456409E+00
 -0.1094700E+02  0.1078190E+01 -0.2568960E-01  0.1324395E+00 -0.2008132E+01  0.5609179E-01  0.1199747E+00
 -0.1100000E+02 -0.9616510E-06 -0.2568960E-01  0.1108003E+00 -0.2124338E+01  0.5824810E-01  0.9425427E-01
 -0.1094700E+02 -0.1078190E+01 -0.2568960E-01  0.9196346E-01 -0.2300701E+01  0.6132110E-01  0.6853466E-01
 -0.1078860E+02 -0.2146000E+01 -0.2568960E-01  0.7817335E-01 -0.2561110E+01  0.6536838E-01  0.4287245E-01
 -0.1052630E+02 -0.3193130E+01 -0.2568960E-01  0.7268000E-01 -0.2891756E+01  0.7042349E-01  0.1796984E-01
 -0.1016270E+02 -0.4209520E+01 -0.2568960E-01  0.7642432E-01  0.3063793E+01  0.7619315E-01 -0.5939794E-02
 -0.9701130E+01 -0.5185360E+01 -0.2568960E-01  0.8748317E-01  0.2803172E+01  0.8252114E-01 -0.2904420E-01
 -0.9146160E+01 -0.6111270E+01 -0.2568960E-01  0.1029101E+00  0.2622061E+01  0.8933129E-01 -0.5109212E-01
 -0.8503110E+01 -0.6978330E+01 -0.2568960E-01  0.1197638E+00  0.2506267E+01  0.9639534E-01 -0.7107259E-01
 -0.7778170E+01 -0.7778180E+01 -0.2568960E-01  0.1366322E+00  0.2429443E+01  0.1034250E+00 -0.8928400E-01
 -0.6978330E+01 -0.8503110E+01 -0.2568960E-01  0.1530699E+00  0.2375422E+01  0.1102977E+00 -0.1061357E+00
 -0.6111270E+01 -0.9146170E+01 -0.2568960E-01  0.1683740E+00  0.2337710E+01  0.1168375E+00 -0.1212387E+00
 -0.5185360E+01 -0.9701130E+01 -0.2568960E-01  0.1812450E+00  0.2314116E+01  0.1226550E+00 -0.1334373E+00
 -0.4209510E+01 -0.1016270E+02 -0.2568960E-01  0.1920474E+00  0.2297874E+01  0.1276518E+00 -0.1434825E+00
 -0.3193130E+01 -0.1052630E+02 -0.2568960E-01  0.2011397E+00  0.2285475E+01  0.1318219E+00 -0.1519216E+00
 -0.2145990E+01 -0.1078860E+02 -0.2568960E-01  0.2079949E+00  0.2276956E+01  0.1349714E+00 -0.1582548E+00
 -0.1078190E+01 -0.1094700E+02 -0.2568960E-01  0.2114698E+00  0.2273912E+01  0.1367359E+00 -0.1613158E+00
  0.1311740E-06 -0.1100000E+02 -0.2568960E-01  0.2124590E+00  0.2273346E+01  0.1372837E+00 -0.1621481E+00
  0.1078190E+01 -0.1094700E+02 -0.2568960E-01  0.2114699E+00  0.2273912E+01  0.1367359E+00 -0.1613159E+00
  0.2145990E+01 -0.1078860E+02 -0.2568960E-01  0.2079949E+00  0.2276956E+01  0.1349714E+00 -0.1582549E+00
  0.3193140E+01 -0.1052630E+02 -0.2568960E-01  0.2011398E+00  0.2285475E+01  0.1318220E+00 -0.1519216E+00
  0.4209520E+01 -0.1016270E+02 -0.2568960E-01  0.1920473E+00  0.2297874E+01  0.1276518E+00 -0.1434823E+00
  0.5185360E+01 -0.9701130E+01 -0.2568960E-01  0.1812450E+00  0.2314116E+01  0.1226549E+00 -0.1334373E+00
  0.6111270E+01 -0.9146160E+01 -0.2568960E-01  0.1683742E+00  0.2337710E+01  0.1168376E+00 -0.1212389E+00
  0.6978330E+01 -0.8503110E+01 -0.2568960E-01  0.1530698E+00  0.2375422E+01  0.1102977E+00 -0.1061357E+00
  0.7778180E+01 -0.7778170E+01 -0.2568960E-01  0.1366320E+00  0.2429443E+01  0.1034248E+00 -0.8928382E-01
  0.8503120E+01 -0.6978320E+01 -0.2568960E-01  0.1197635E+00  0.2506269E+01  0.9639522E-01 -0.7107227E-01
  0.9146170E+01 -0.6111270E+01 -0.2568960E-01  0.1029100E+00  0.2622062E+01  0.8933123E-01 -0.5109198E-01
  0.9701130E+01 -0.5185360E+01 -0.2568960E-01  0.8748309E-01  0.2803172E+01  0.8252106E-01 -0.2904421E-01
  0.1016270E+02 -0.4209520E+01 -0.2568960E-01  0.7642420E-01  0.3063793E+01  0.7619303E-01 -0.5939779E-02
  0.1052630E+02 -0.3193130E+01 -0.2568960E-01  0.7268000E-01 -0.2891756E+01  0.7042350E-01  0.1796980E-01
  0.1078860E+02 -0.2145990E+01 -0.2568960E-01  0.7817322E-01 -0.2561107E+01  0.6536816E-01  0.4287256E-01
  0.1094700E+02 -0.1078180E+01 -0.2568960E-01  0.9196354E-01 -0.2300701E+01  0.6132114E-01  0.6853473E-01
  0.1100000E+02  0.0000000E+00 -0.1027320E+00  0.1104848E+00 -0.2124259E+01  0.5807483E-01  0.9399046E-01
  0.1094700E+02  0.1078190E+01 -0.1027320E+00  0.1320723E+00 -0.2008089E+01  0.5593105E-01  0.1196445E+00
  0.1078860E+02  0.2145990E+01 -0.1027320E+00  0.1552185E+00 -0.1931571E+01  0.5479202E-01  0.1452261E+00
  0.1052630E+02  0.3193130E+01 -0.1027320E+00  0.1786764E+00 -0.1882286E+01  0.5476018E-01  0.1700781E+00
  0.1016270E+02  0.4209520E+01 -0.1027320E+00  0.2017707E+00 -0.1849999E+01  0.5560591E-01  0.1939572E+00
  0.9701130E+01  0.5185360E+01 -0.1027320E+00  0.2244139E+00 -0.1828496E+01  0.5719336E-01  0.2170035E+00
  0.9146170E+01  0.6111270E+01 -0.1027320E+00  0.2462704E+00 -0.1814734E+01  0.5948057E-01  0.2389794E+00
  0.8503110E+01  0.6978330E+01 -0.1027320E+00  0.2663500E+00 -0.1807051E+01  0.6234271E-01  0.2589512E+00
  0.7778170E+01  0.7778170E+01 -0.1027320E+00  0.2848022E+00 -0.1802882E+01  0.6550673E-01  0.2771663E+00
  0.6978330E+01  0.8503110E+01 -0.1027320E+00  0.3019210E+00 -0.1800822E+01  0.6883864E-01  0.2939686E+00
  0.6111270E+01  0.9146170E+01 -0.1027320E+00  0.3173351E+00 -0.1800361E+01  0.7221069E-01  0.3090100E+00
  0.5185360E+01  0.9701130E+01 -0.1027320E+00  0.3299532E+00 -0.1801219E+01  0.7535783E-01  0.3212325E+00
  0.4209520E+01  0.1016270E+02 -0.1027320E+00  0.3403957E+00 -0.1802420E+01  0.7814068E-01  0.3313054E+00
  0.3193130E+01  0.1052630E+02 -0.1027320E+00  0.3491126E+00 -0.1803514E+01  0.8051325E-01  0.3397017E+00
  0.2145990E+01  0.1078860E+02 -0.1027320E+00  0.3556440E+00 -0.1804438E+01  0.8233927E-01  0.3459811E+00
  0.1078190E+01  0.1094700E+02 -0.1027320E+00  0.3589035E+00 -0.1805245E+01  0.8337560E-01  0.3490848E+00
 -0.4808250E-06  0.1100000E+02 -0.1027320E+00  0.3598264E+00 -0.1805558E+01  0.8369952E-01  0.3499563E+00
 -0.1078190E+01  0.1094700E+02 -0.1027320E+00  0.3589035E+00 -0.1805244E+01  0.8337554E-01  0.3490849E+00
 -0.2145990E+01  0.1078860E+02 -0.1027320E+00  0.3556440E+00 -0.1804438E+01  0.8233920E-01  0.3459811E+00
 -0.3193130E+01  0.1052630E+02 -0.1027320E+00  0.3491121E+00 -0.1803514E+01  0.8051322E-01  0.3397011E+00
 -0.4209520E+01  0.1016270E+02 -0.1027320E+00  0.3403959E+00 -0.1802420E+01  0.7814082E-01  0.3313056E+00
 -0.5185370E+01  0.9701130E+01 -0.1027320E+00  0.3299533E+00 -0.1801219E+01  0.7535775E-01  0.3212326E+00
 -0.6111270E+01  0.9146160E+01 -0.1027320E+00  0.3173355E+00 -0.1800361E+01  0.7221079E-01  0.3090104E+00
 -0.6978330E+01  0.8503120E+01 -0.1027320E+00  0.3019210E+00 -0.1800822E+01  0.6883867E-01  0.2939686E+00
 -0.7778170E+01  0.7778170E+01 -0.1027320E+00  0.2848023E+00 -0.1802882E+01  0.6550688E-01  0.2771664E+00
 -0.8503120E+01  0.6978330E+01 -0.1027320E+00  0.2663495E+00 -0.1807051E+01  0.6234256E-01  0.2589507E+00
 -0.9146170E+01  0.6111270E+01 -0.1027320E+00  0.2462707E+00 -0.1814733E+01  0.5948051E-01  0.2389798E+00
 -0.9701130E+01  0.5185360E+01 -0.1027320E+00  0.2244140E+00 -0.1828496E+01  0.5719337E-01  0.2170036E+00
 -0.1016270E+02  0.4209520E+01 -0.1027320E+00  0.2017707E+00 -0.1849999E+01  0.5560593E-01  0.1939572E+00
 -0.1052630E+02  0.3193130E+01 -0.1027320E+00  0.1786766E+00 -0.1882286E+01  0.5476026E-01  0.1700784E+00
 -0.1078860E+02  0.2145990E+01 -0.1027320E+00  0.1552188E+00 -0.1931570E+01  0.5479202E-01  0.1452264E+00
 -0.1094700E+02  0.1078190E+01 -0.1027320E+00  0.1320723E+00 -0.2008088E+01  0.5593104E-01  0.1196446E+00
 -0.1100000E+02 -0.9616510E-06 -0.1027320E+00  0.1104849E+00 -0.2124259E+01  0.5807489E-01  0.9399051E-01
 -0.1094700E+02 -0.1078190E+01 -0.1027320E+00  0.9169987E-01 -0.2300716E+01  0.6114634E-01  0.6833733E-01
 -0.1078860E+02 -0.2146000E+01 -0.1027320E+00  0.7796093E-01 -0.2561055E+01  0.6518843E-01  0.4275950E-01
 -0.1052630E+02 -0.3193130E+01 -0.1027320E+00  0.7247470E-01 -0.2891725E+01  0.7022402E-01  0.1792121E-01
 -0.1016270E+02 -0.4209520E+01 -0.1027320E+00  0.7620852E-01  0.3063550E+01  0.7597656E-01 -0.5941506E-02
 -0.9701130E+01 -0.5185360E+01 -0.1027320E+00  0.8724471E-01  0.2803099E+01  0.8229408E-01 -0.2897108E-01
 -0.9146160E+01 -0.6111270E+01 -0.1027320E+00  0.1026173E+00  0.2622263E+01  0.8908745E-01 -0.5092883E-01
 -0.8503110E+01 -0.6978330E+01 -0.1027320E+00  0.1194346E+00  0.2506284E+01  0.9613161E-01 -0.7087556E-01
 -0.7778170E+01 -0.7778180E+01 -0.1027320E+00  0.1362802E+00  0.2429321E+01  0.1031476E+00 -0.8906660E-01
 -0.6978330E+01 -0.8503110E+01 -0.1027320E+00  0.1526578E+00  0.2375448E+01  0.1100036E+00 -0.1058471E+00
 -0.6111270E+01 -0.9146170E+01 -0.1027320E+00  0.1678878E+00  0.2337883E+01  0.1165209E+00 -0.1208684E+00
 -0.5185360E+01 -0.9701130E+01 -0.1027320E+00  0.1807519E+00  0.2314170E+01  0.1223284E+00 -0.1330677E+00
 -0.4209510E+01 -0.1016270E+02 -0.1027320E+00  0.1915580E+00  0.2297838E+01  0.1273214E+00 -0.1431214E+00
 -0.3193130E+01 -0.1052630E+02 -0.1027320E+00  0.2005969E+00  0.2285537E+01  0.1314755E+00 -0.1515035E+00
 -0.2145990E+01 -0.1078860E+02 -0.1027320E+00  0.2073936E+00  0.2277122E+01  0.1346073E+00 -0.1577751E+00
 -0.1078190E+01 -0.1094700E+02 -0.1027320E+00  0.2108975E+00  0.2273980E+01  0.1363767E+00 -0.1608699E+00
  0.1311740E-06 -0.1100000E+02 -0.1027320E+00  0.2119183E+00  0.2273334E+01  0.1369324E+00 -0.1617371E+00
  0.1078190E+01 -0.1094700E+02 -0.1027320E+00  0.2108973E+00  0.2273980E+01  0.1363766E+00 -0.1608698E+00
  0.2145990E+01 -0.1078860E+02 -0.1027320E+00  0.2073937E+00  0.2277121E+01  0.1346073E+00 -0.1577753E+00
  0.3193140E+01 -0.1052630E+02 -0.1027320E+00  0.2005969E+00  0.2285537E+01  0.1314755E+00 -0.1515035E+00
  0.4209520E+01 -0.1016270E+02 -0.1027320E+00  0.1915578E+00  0.2297838E+01  0.1273213E+00 -0.1431212E+00
  0.5185360E+01 -0.9701130E+01 -0.1027320E+00  0.1807519E+00  0.2314169E+01  0.1223283E+00 -0.1330678E+00
  0.6111270E+01 -0.9146160E+01 -0.1027320E+00  0.1678879E+00  0.2337883E+01  0.1165210E+00 -0.1208686E+00
  0.6978330E+01 -0.8503110E+01 -0.1027320E+00  0.1526577E+00  0.2375448E+01  0.1100035E+00 -0.1058471E+00
  0.7778180E+01 -0.7778170E+01 -0.1027320E+00  0.1362800E+00  0.2429321E+01  0.1031475E+00 -0.8906644E-01
  0.8503120E+01 -0.6978320E+01 -0.1027320E+00  0.1194343E+00  0.2506285E+01  0.9613143E-01 -0.7087531E-01
  0.9146170E+01 -0.6111270E+01 -0.1027320E+00  0.1026172E+00  0.2622264E+01  0.8908736E-01 -0.5092867E-01
