 VARIABLES="X" "Y" "Z" "abs(eta) (m)" "angle(phi) (rad)" "PRE1" "PRE2"
ZONE N=   3200 ,E =    3136 ,F=FEPOINT,ET=QUADRILATERAL
  0.1100000E+02  0.0000000E+00  0.0000000E+00  0.1865790E+00 -0.1854268E+01  0.5218444E-01  0.1791327E+00
  0.1094700E+02  0.1078190E+01  0.0000000E+00  0.1573123E+00 -0.1933585E+01  0.5582737E-01  0.1470730E+00
  0.1078860E+02  0.2145990E+01  0.0000000E+00  0.1300780E+00 -0.2058708E+01  0.6097829E-01  0.1148997E+00
  0.1052630E+02  0.3193130E+01  0.0000000E+00  0.1069070E+00 -0.2254732E+01  0.6754899E-01  0.8286273E-01
  0.1016270E+02  0.4209520E+01  0.0000000E+00  0.9124960E-01 -0.2545311E+01  0.7550260E-01  0.5124301E-01
  0.9701130E+01  0.5185360E+01  0.0000000E+00  0.8722969E-01 -0.2902775E+01  0.8475397E-01  0.2063454E-01
  0.9146170E+01  0.6111270E+01  0.0000000E+00  0.9534800E-01  0.3050231E+01  0.9495035E-01 -0.8699014E-02
  0.8503110E+01  0.6978330E+01  0.0000000E+00  0.1120398E+00  0.2808092E+01  0.1058667E+00 -0.3667654E-01
  0.7778170E+01  0.7778170E+01  0.0000000E+00  0.1331273E+00  0.2648852E+01  0.1172904E+00 -0.6297478E-01
  0.6978330E+01  0.8503110E+01  0.0000000E+00  0.1554199E+00  0.2548139E+01  0.1288453E+00 -0.8691508E-01
  0.6111270E+01  0.9146170E+01  0.0000000E+00  0.1773076E+00  0.2482308E+01  0.1401494E+00 -0.1086100E+00
  0.5185360E+01  0.9701130E+01  0.0000000E+00  0.1980482E+00  0.2437701E+01  0.1509779E+00 -0.1281748E+00
  0.4209520E+01  0.1016270E+02  0.0000000E+00  0.2169107E+00  0.2407533E+01  0.1610477E+00 -0.1453062E+00
  0.3193130E+01  0.1052630E+02  0.0000000E+00  0.2329169E+00  0.2388161E+01  0.1698768E+00 -0.1593491E+00
  0.2145990E+01  0.1078860E+02  0.0000000E+00  0.2461200E+00  0.2375080E+01  0.1772887E+00 -0.1707155E+00
  0.1078190E+01  0.1094700E+02  0.0000000E+00  0.2565739E+00  0.2365960E+01  0.1831881E+00 -0.1796449E+00
 -0.4808250E-06  0.1100000E+02  0.0000000E+00  0.2639073E+00  0.2360228E+01  0.1873619E+00 -0.1858564E+00
 -0.1078190E+01  0.1094700E+02  0.0000000E+00  0.2674145E+00  0.2358086E+01  0.1894479E+00 -0.1887327E+00
 -0.2145990E+01  0.1078860E+02  0.0000000E+00  0.2675909E+00  0.2358169E+01  0.1895885E+00 -0.1888414E+00
 -0.3193130E+01  0.1052630E+02  0.0000000E+00  0.2646936E+00  0.2359963E+01  0.1878707E+00 -0.1864599E+00
 -0.4209520E+01  0.1016270E+02  0.0000000E+00  0.2584951E+00  0.2364213E+01  0.1842433E+00 -0.1813122E+00
 -0.5185370E+01  0.9701130E+01  0.0000000E+00  0.2485685E+00  0.2372627E+01  0.1786288E+00 -0.1728527E+00
 -0.6111270E+01  0.9146160E+01  0.0000000E+00  0.2356639E+00  0.2385377E+01  0.1714308E+00 -0.1617063E+00
 -0.6978330E+01  0.8503120E+01  0.0000000E+00  0.2201860E+00  0.2403508E+01  0.1628845E+00 -0.1481571E+00
 -0.7778170E+01  0.7778170E+01  0.0000000E+00  0.2021521E+00  0.2430192E+01  0.1531197E+00 -0.1319842E+00
 -0.8503120E+01  0.6978330E+01  0.0000000E+00  0.1816479E+00  0.2471468E+01  0.1423656E+00 -0.1128185E+00
 -0.9146170E+01  0.6111270E+01  0.0000000E+00  0.1597784E+00  0.2533145E+01  0.1311040E+00 -0.9132846E-01
 -0.9701130E+01  0.5185360E+01  0.0000000E+00  0.1375030E+00  0.2625805E+01  0.1196145E+00 -0.6781929E-01
 -0.1016270E+02  0.4209520E+01  0.0000000E+00  0.1160818E+00  0.2769412E+01  0.1081345E+00 -0.4221285E-01
 -0.1052630E+02  0.3193130E+01  0.0000000E+00  0.9813389E-01  0.2993569E+01  0.9706075E-01 -0.1447313E-01
 -0.1078860E+02  0.2145990E+01  0.0000000E+00  0.8796331E-01 -0.2973341E+01  0.8672117E-01  0.1473029E-01
 -0.1094700E+02  0.1078190E+01  0.0000000E+00  0.8948124E-01 -0.2613709E+01  0.7730062E-01  0.4507224E-01
 -0.1100000E+02 -0.9616510E-06  0.0000000E+00  0.1029742E+00 -0.2305168E+01  0.6900515E-01  0.7643276E-01
 -0.1094700E+02 -0.1078190E+01  0.0000000E+00  0.1250230E+00 -0.2091074E+01  0.6215155E-01  0.1084802E+00
 -0.1078860E+02 -0.2146000E+01  0.0000000E+00  0.1516755E+00 -0.1954346E+01  0.5675914E-01  0.1406551E+00
 -0.1052630E+02 -0.3193130E+01  0.0000000E+00  0.1806004E+00 -0.1867633E+01  0.5282507E-01  0.1727021E+00
 -0.1016270E+02 -0.4209520E+01  0.0000000E+00  0.2104695E+00 -0.1812619E+01  0.5040161E-01  0.2043455E+00
 -0.9701130E+01 -0.5185360E+01  0.0000000E+00  0.2401620E+00 -0.1778535E+01  0.4953278E-01  0.2349985E+00
 -0.9146160E+01 -0.6111270E+01  0.0000000E+00  0.2690662E+00 -0.1757554E+01  0.4995846E-01  0.2643875E+00
 -0.8503110E+01 -0.6978330E+01  0.0000000E+00  0.2969267E+00 -0.1745181E+01  0.5151758E-01  0.2924233E+00
 -0.7778170E+01 -0.7778180E+01  0.0000000E+00  0.3233435E+00 -0.1738870E+01  0.5409003E-01  0.3187872E+00
 -0.6978330E+01 -0.8503110E+01  0.0000000E+00  0.3475846E+00 -0.1736822E+01  0.5744317E-01  0.3428051E+00
 -0.6111270E+01 -0.9146170E+01  0.0000000E+00  0.3696847E+00 -0.1737210E+01  0.6123715E-01  0.3645776E+00
 -0.5185360E+01 -0.9701130E+01  0.0000000E+00  0.3897200E+00 -0.1739094E+01  0.6527980E-01  0.3842138E+00
 -0.4209510E+01 -0.1016270E+02  0.0000000E+00  0.4073627E+00 -0.1741926E+01  0.6937223E-01  0.4014123E+00
 -0.3193130E+01 -0.1052630E+02  0.0000000E+00  0.4219150E+00 -0.1745092E+01  0.7316615E-01  0.4155225E+00
 -0.2145990E+01 -0.1078860E+02  0.0000000E+00  0.4337399E+00 -0.1748029E+01  0.7647100E-01  0.4269455E+00
 -0.1078190E+01 -0.1094700E+02  0.0000000E+00  0.4430501E+00 -0.1750497E+01  0.7918877E-01  0.4359157E+00
  0.1311740E-06 -0.1100000E+02  0.0000000E+00  0.4495423E+00 -0.1752348E+01  0.8116764E-01  0.4421539E+00
  0.1078190E+01 -0.1094700E+02  0.0000000E+00  0.4525681E+00 -0.1753331E+01  0.8215143E-01  0.4450494E+00
  0.2145990E+01 -0.1078860E+02  0.0000000E+00  0.4526903E+00 -0.1753420E+01  0.8221307E-01  0.4451623E+00
  0.3193140E+01 -0.1052630E+02  0.0000000E+00  0.4501855E+00 -0.1752614E+01  0.8140146E-01  0.4427649E+00
  0.4209520E+01 -0.1016270E+02  0.0000000E+00  0.4447845E+00 -0.1750949E+01  0.7969636E-01  0.4375863E+00
  0.5185360E+01 -0.9701130E+01  0.0000000E+00  0.4359583E+00 -0.1748536E+01  0.7707977E-01  0.4290902E+00
  0.6111270E+01 -0.9146160E+01  0.0000000E+00  0.4243675E+00 -0.1745691E+01  0.7384178E-01  0.4178938E+00
  0.6978330E+01 -0.8503110E+01  0.0000000E+00  0.4103218E+00 -0.1742607E+01  0.7015155E-01  0.4042805E+00
  0.7778180E+01 -0.7778170E+01  0.0000000E+00  0.3936293E+00 -0.1739607E+01  0.6613377E-01  0.3880340E+00
  0.8503120E+01 -0.6978320E+01  0.0000000E+00  0.3739775E+00 -0.1737409E+01  0.6202142E-01  0.3687988E+00
  0.9146170E+01 -0.6111270E+01  0.0000000E+00  0.3520725E+00 -0.1736745E+01  0.5815800E-01  0.3472358E+00
  0.9701130E+01 -0.5185360E+01  0.0000000E+00  0.3282459E+00 -0.1738333E+01  0.5473624E-01  0.3236500E+00
  0.1016270E+02 -0.4209520E+01  0.0000000E+00  0.3024647E+00 -0.1743419E+01  0.5195346E-01  0.2979693E+00
  0.1052630E+02 -0.3193130E+01  0.0000000E+00  0.2747860E+00 -0.1754348E+01  0.5015473E-01  0.2701700E+00
  0.1078860E+02 -0.2145990E+01  0.0000000E+00  0.2459527E+00 -0.1773544E+01  0.4952532E-01  0.2409149E+00
  0.1094700E+02 -0.1078180E+01  0.0000000E+00  0.2164192E+00 -0.1804677E+01  0.5015615E-01  0.2105270E+00
  0.1100000E+02  0.0000000E+00 -0.2568960E-01  0.1863651E+00 -0.1854263E+01  0.5212367E-01  0.1789276E+00
  0.1094700E+02  0.1078190E+01 -0.2568960E-01  0.1571354E+00 -0.1933574E+01  0.5576305E-01  0.1469082E+00
  0.1078860E+02  0.2145990E+01 -0.2568960E-01  0.1299304E+00 -0.2058686E+01  0.6090648E-01  0.1147707E+00
  0.1052630E+02  0.3193130E+01 -0.2568960E-01  0.1067861E+00 -0.2254719E+01  0.6747153E-01  0.8276992E-01
  0.1016270E+02  0.4209520E+01 -0.2568960E-01  0.9114768E-01 -0.2545260E+01  0.7541566E-01  0.5118963E-01
  0.9701130E+01  0.5185360E+01 -0.2568960E-01  0.8713201E-01 -0.2902666E+01  0.8465682E-01  0.2062063E-01
  0.9146170E+01  0.6111270E+01 -0.2568960E-01  0.9523948E-01  0.3050308E+01  0.9484296E-01 -0.8681789E-02
  0.8503110E+01  0.6978330E+01 -0.2568960E-01  0.1119127E+00  0.2808183E+01  0.1057499E+00 -0.3662529E-01
  0.7778170E+01  0.7778170E+01 -0.2568960E-01  0.1329737E+00  0.2648943E+01  0.1171608E+00 -0.6289155E-01
  0.6978330E+01  0.8503110E+01 -0.2568960E-01  0.1552367E+00  0.2548242E+01  0.1287024E+00 -0.8679936E-01
  0.6111270E+01  0.9146170E+01 -0.2568960E-01  0.1771029E+00  0.2482395E+01  0.1399970E+00 -0.1084725E+00
  0.5185360E+01  0.9701130E+01 -0.2568960E-01  0.1978181E+00  0.2437797E+01  0.1508148E+00 -0.1280113E+00
  0.4209520E+01  0.1016270E+02 -0.2568960E-01  0.2166583E+00  0.2407627E+01  0.1608740E+00 -0.1451219E+00
  0.3193130E+01  0.1052630E+02 -0.2568960E-01  0.2326431E+00  0.2388260E+01  0.1696929E+00 -0.1591450E+00
  0.2145990E+01  0.1078860E+02 -0.2568960E-01  0.2458357E+00  0.2375174E+01  0.1770999E+00 -0.1705017E+00
  0.1078190E+01  0.1094700E+02 -0.2568960E-01  0.2562737E+00  0.2366060E+01  0.1829918E+00 -0.1794163E+00
 -0.4808250E-06  0.1100000E+02 -0.2568960E-01  0.2636002E+00  0.2360326E+01  0.1871620E+00 -0.1856218E+00
 -0.1078190E+01  0.1094700E+02 -0.2568960E-01  0.2671010E+00  0.2358188E+01  0.1892450E+00 -0.1884921E+00
 -0.2145990E+01  0.1078860E+02 -0.2568960E-01  0.2672814E+00  0.2358264E+01  0.1893873E+00 -0.1886048E+00
 -0.3193130E+01  0.1052630E+02 -0.2568960E-01  0.2643833E+00  0.2360066E+01  0.1876696E+00 -0.1862221E+00
 -0.4209520E+01  0.1016270E+02 -0.2568960E-01  0.2581946E+00  0.2364312E+01  0.1840471E+00 -0.1810831E+00
 -0.5185370E+01  0.9701130E+01 -0.2568960E-01  0.2482790E+00  0.2372729E+01  0.1784384E+00 -0.1726331E+00
 -0.6111270E+01  0.9146160E+01 -0.2568960E-01  0.2353916E+00  0.2385470E+01  0.1712478E+00 -0.1615036E+00
 -0.6978330E+01  0.8503120E+01 -0.2568960E-01  0.2199275E+00  0.2403607E+01  0.1627080E+00 -0.1479670E+00
 -0.7778170E+01  0.7778170E+01 -0.2568960E-01  0.2019172E+00  0.2430284E+01  0.1529540E+00 -0.1318167E+00
 -0.8503120E+01  0.6978330E+01 -0.2568960E-01  0.1814373E+00  0.2471566E+01  0.1422114E+00 -0.1126738E+00
 -0.9146170E+01  0.6111270E+01 -0.2568960E-01  0.1595944E+00  0.2533231E+01  0.1309609E+00 -0.9121199E-01
 -0.9701130E+01  0.5185360E+01 -0.2568960E-01  0.1373416E+00  0.2625912E+01  0.1194814E+00 -0.6772691E-01
 -0.1016270E+02  0.4209520E+01 -0.2568960E-01  0.1159482E+00  0.2769503E+01  0.1080138E+00 -0.4215441E-01
 -0.1052630E+02  0.3193130E+01 -0.2568960E-01  0.9802350E-01  0.2993652E+01  0.9695276E-01 -0.1444884E-01
 -0.1078860E+02  0.2145990E+01 -0.2568960E-01  0.8786403E-01 -0.2973269E+01  0.8662225E-01  0.1471983E-01
 -0.1094700E+02  0.1078190E+01 -0.2568960E-01  0.8938267E-01 -0.2613626E+01  0.7721173E-01  0.4502900E-01
 -0.1100000E+02 -0.9616510E-06 -0.2568960E-01  0.1028590E+00 -0.2305135E+01  0.6892545E-01  0.7634955E-01
 -0.1094700E+02 -0.1078190E+01 -0.2568960E-01  0.1248806E+00 -0.2091069E+01  0.6208029E-01  0.1083568E+00
 -0.1078860E+02 -0.2146000E+01 -0.2568960E-01  0.1515027E+00 -0.1954330E+01  0.5669227E-01  0.1404958E+00
 -0.1052630E+02 -0.3193130E+01 -0.2568960E-01  0.1803960E+00 -0.1867629E+01  0.5276451E-01  0.1725069E+00
 -0.1016270E+02 -0.4209520E+01 -0.2568960E-01  0.2102275E+00 -0.1812617E+01  0.5034333E-01  0.2041107E+00
 -0.9701130E+01 -0.5185360E+01 -0.2568960E-01  0.2398823E+00 -0.1778542E+01  0.4947690E-01  0.2347245E+00
 -0.9146160E+01 -0.6111270E+01 -0.2568960E-01  0.2687552E+00 -0.1757562E+01  0.4990293E-01  0.2640815E+00
 -0.8503110E+01 -0.6978330E+01 -0.2568960E-01  0.2965829E+00 -0.1745199E+01  0.5146306E-01  0.2920839E+00
 -0.7778170E+01 -0.7778180E+01 -0.2568960E-01  0.3229671E+00 -0.1738888E+01  0.5403282E-01  0.3184151E+00
 -0.6978330E+01 -0.8503110E+01 -0.2568960E-01  0.3471758E+00 -0.1736845E+01  0.5738338E-01  0.3424007E+00
 -0.6111270E+01 -0.9146170E+01 -0.2568960E-01  0.3692546E+00 -0.1737237E+01  0.6117566E-01  0.3641517E+00
 -0.5185360E+01 -0.9701130E+01 -0.2568960E-01  0.3892638E+00 -0.1739127E+01  0.6521593E-01  0.3837619E+00
 -0.4209510E+01 -0.1016270E+02 -0.2568960E-01  0.4068850E+00 -0.1741960E+01  0.6930435E-01  0.4009393E+00
 -0.3193130E+01 -0.1052630E+02 -0.2568960E-01  0.4214171E+00 -0.1745127E+01  0.7309440E-01  0.4150296E+00
 -0.2145990E+01 -0.1078860E+02 -0.2568960E-01  0.4332316E+00 -0.1748068E+01  0.7639794E-01  0.4264422E+00
 -0.1078190E+01 -0.1094700E+02 -0.2568960E-01  0.4425276E+00 -0.1750538E+01  0.7911295E-01  0.4353985E+00
  0.1311740E-06 -0.1100000E+02 -0.2568960E-01  0.4490130E+00 -0.1752390E+01  0.8109064E-01  0.4416299E+00
  0.1078190E+01 -0.1094700E+02 -0.2568960E-01  0.4520338E+00 -0.1753372E+01  0.8207285E-01  0.4445207E+00
  0.2145990E+01 -0.1078860E+02 -0.2568960E-01  0.4521594E+00 -0.1753461E+01  0.8213513E-01  0.4446369E+00
  0.3193140E+01 -0.1052630E+02 -0.2568960E-01  0.4496539E+00 -0.1752654E+01  0.8132315E-01  0.4422388E+00
  0.4209520E+01 -0.1016270E+02 -0.2568960E-01  0.4442616E+00 -0.1750989E+01  0.7962031E-01  0.4370686E+00
  0.5185360E+01 -0.9701130E+01 -0.2568960E-01  0.4354446E+00 -0.1748576E+01  0.7700597E-01  0.4285815E+00
  0.6111270E+01 -0.9146160E+01 -0.2568960E-01  0.4238712E+00 -0.1745728E+01  0.7377088E-01  0.4174023E+00
  0.6978330E+01 -0.8503110E+01 -0.2568960E-01  0.4098378E+00 -0.1742640E+01  0.7008208E-01  0.4038014E+00
  0.7778180E+01 -0.7778170E+01 -0.2568960E-01  0.3931684E+00 -0.1739638E+01  0.6606828E-01  0.3875776E+00
  0.8503120E+01 -0.6978320E+01 -0.2568960E-01  0.3735402E+00 -0.1737438E+01  0.6195976E-01  0.3683657E+00
  0.9146170E+01 -0.6111270E+01 -0.2568960E-01  0.3516630E+00 -0.1736767E+01  0.5809803E-01  0.3468306E+00
  0.9701130E+01 -0.5185360E+01 -0.2568960E-01  0.3278606E+00 -0.1738352E+01  0.5467810E-01  0.3232690E+00
  0.1016270E+02 -0.4209520E+01 -0.2568960E-01  0.3021133E+00 -0.1743434E+01  0.5189744E-01  0.2976224E+00
  0.1052630E+02 -0.3193130E+01 -0.2568960E-01  0.2744687E+00 -0.1754363E+01  0.5010093E-01  0.2698573E+00
  0.1078860E+02 -0.2145990E+01 -0.2568960E-01  0.2456692E+00 -0.1773548E+01  0.4946939E-01  0.2406369E+00
  0.1094700E+02 -0.1078180E+01 -0.2568960E-01  0.2161675E+00 -0.1804682E+01  0.5009884E-01  0.2102820E+00
  0.1100000E+02  0.0000000E+00 -0.1027320E+00  0.1857463E+00 -0.1854148E+01  0.5193002E-01  0.1783395E+00
  0.1094700E+02  0.1078190E+01 -0.1027320E+00  0.1566120E+00 -0.1933429E+01  0.5555611E-01  0.1464269E+00
  0.1078860E+02  0.2145990E+01 -0.1027320E+00  0.1294782E+00 -0.2058552E+01  0.6067926E-01  0.1143793E+00
  0.1052630E+02  0.3193130E+01 -0.1027320E+00  0.1064006E+00 -0.2254732E+01  0.6722908E-01  0.8247022E-01
  0.1016270E+02  0.4209520E+01 -0.1027320E+00  0.9081660E-01 -0.2545364E+01  0.7514704E-01  0.5099586E-01
  0.9701130E+01  0.5185360E+01 -0.1027320E+00  0.8681971E-01 -0.2902902E+01  0.8435822E-01  0.2052685E-01
  0.9146170E+01  0.6111270E+01 -0.1027320E+00  0.9491505E-01  0.3049785E+01  0.9451532E-01 -0.8701679E-02
  0.8503110E+01  0.6978330E+01 -0.1027320E+00  0.1115554E+00  0.2807735E+01  0.1053959E+00 -0.3655564E-01
  0.7778170E+01  0.7778170E+01 -0.1027320E+00  0.1325535E+00  0.2648611E+01  0.1167698E+00 -0.6273156E-01
  0.6978330E+01  0.8503110E+01 -0.1027320E+00  0.1547500E+00  0.2547963E+01  0.1282748E+00 -0.8656298E-01
  0.6111270E+01  0.9146170E+01 -0.1027320E+00  0.1765709E+00  0.2482086E+01  0.1395430E+00 -0.1081898E+00
  0.5185360E+01  0.9701130E+01 -0.1027320E+00  0.1972194E+00  0.2437585E+01  0.1503314E+00 -0.1276557E+00
  0.4209520E+01  0.1016270E+02 -0.1027320E+00  0.2159958E+00  0.2407461E+01  0.1603580E+00 -0.1447049E+00
  0.3193130E+01  0.1052630E+02 -0.1027320E+00  0.2319323E+00  0.2388100E+01  0.1691491E+00 -0.1586857E+00
  0.2145990E+01  0.1078860E+02 -0.1027320E+00  0.2451068E+00  0.2374990E+01  0.1765434E+00 -0.1700287E+00
  0.1078190E+01  0.1094700E+02 -0.1027320E+00  0.2554991E+00  0.2365931E+01  0.1824156E+00 -0.1788975E+00
 -0.4808250E-06  0.1100000E+02 -0.1027320E+00  0.2627965E+00  0.2360214E+01  0.1865706E+00 -0.1850767E+00
 -0.1078190E+01  0.1094700E+02 -0.1027320E+00  0.2662910E+00  0.2358070E+01  0.1886489E+00 -0.1879427E+00
 -0.2145990E+01  0.1078860E+02 -0.1027320E+00  0.2664906E+00  0.2358109E+01  0.1887977E+00 -0.1880762E+00
 -0.3193130E+01  0.1052630E+02 -0.1027320E+00  0.2635805E+00  0.2359942E+01  0.1870768E+00 -0.1856797E+00
 -0.4209520E+01  0.1016270E+02 -0.1027320E+00  0.2574074E+00  0.2364193E+01  0.1834645E+00 -0.1805528E+00
 -0.5185370E+01  0.9701130E+01 -0.1027320E+00  0.2475280E+00  0.2372590E+01  0.1778747E+00 -0.1721357E+00
 -0.6111270E+01  0.9146160E+01 -0.1027320E+00  0.2346935E+00  0.2385271E+01  0.1707079E+00 -0.1610586E+00
 -0.6978330E+01  0.8503120E+01 -0.1027320E+00  0.2192533E+00  0.2403430E+01  0.1621830E+00 -0.1475422E+00
 -0.7778170E+01  0.7778170E+01 -0.1027320E+00  0.2012981E+00  0.2430097E+01  0.1524604E+00 -0.1314411E+00
 -0.8503120E+01  0.6978330E+01 -0.1027320E+00  0.1808870E+00  0.2471321E+01  0.1417527E+00 -0.1123668E+00
 -0.9146170E+01  0.6111270E+01 -0.1027320E+00  0.1591107E+00  0.2532877E+01  0.1305318E+00 -0.9098176E-01
 -0.9701130E+01  0.5185360E+01 -0.1027320E+00  0.1369049E+00  0.2625595E+01  0.1190800E+00 -0.6754927E-01
 -0.1016270E+02  0.4209520E+01 -0.1027320E+00  0.1155739E+00  0.2769125E+01  0.1076492E+00 -0.4205912E-01
 -0.1052630E+02  0.3193130E+01 -0.1027320E+00  0.9769807E-01  0.2993162E+01  0.9662382E-01 -0.1444821E-01
 -0.1078860E+02  0.2145990E+01 -0.1027320E+00  0.8754919E-01 -0.2973707E+01  0.8631827E-01  0.1462933E-01
 -0.1094700E+02  0.1078190E+01 -0.1027320E+00  0.8905963E-01 -0.2613701E+01  0.7693601E-01  0.4486052E-01
 -0.1100000E+02 -0.9616510E-06 -0.1027320E+00  0.1024906E+00 -0.2305109E+01  0.6867656E-01  0.7607790E-01
 -0.1094700E+02 -0.1078190E+01 -0.1027320E+00  0.1244397E+00 -0.2091003E+01  0.6185394E-01  0.1079783E+00
 -0.1078860E+02 -0.2146000E+01 -0.1027320E+00  0.1509881E+00 -0.1954178E+01  0.5647847E-01  0.1400271E+00
 -0.1052630E+02 -0.3193130E+01 -0.1027320E+00  0.1798031E+00 -0.1867500E+01  0.5256892E-01  0.1719467E+00
 -0.1016270E+02 -0.4209520E+01 -0.1027320E+00  0.2095362E+00 -0.1812513E+01  0.5015654E-01  0.2034447E+00
 -0.9701130E+01 -0.5185360E+01 -0.1027320E+00  0.2390946E+00 -0.1778454E+01  0.4929375E-01  0.2339580E+00
 -0.9146160E+01 -0.6111270E+01 -0.1027320E+00  0.2678955E+00 -0.1757475E+01  0.4972044E-01  0.2632411E+00
 -0.8503110E+01 -0.6978330E+01 -0.1027320E+00  0.2956362E+00 -0.1745150E+01  0.5128441E-01  0.2911541E+00
 -0.7778170E+01 -0.7778180E+01 -0.1027320E+00  0.3219301E+00 -0.1738850E+01  0.5384726E-01  0.3173948E+00
 -0.6978330E+01 -0.8503110E+01 -0.1027320E+00  0.3460614E+00 -0.1736811E+01  0.5718783E-01  0.3413035E+00
 -0.6111270E+01 -0.9146170E+01 -0.1027320E+00  0.3680934E+00 -0.1737216E+01  0.6097561E-01  0.3630079E+00
 -0.5185360E+01 -0.9701130E+01 -0.1027320E+00  0.3880296E+00 -0.1739128E+01  0.6500962E-01  0.3825450E+00
 -0.4209510E+01 -0.1016270E+02 -0.1027320E+00  0.4055881E+00 -0.1741966E+01  0.6908576E-01  0.3996609E+00
 -0.3193130E+01 -0.1052630E+02 -0.1027320E+00  0.4200765E+00 -0.1745134E+01  0.7286472E-01  0.4137088E+00
 -0.2145990E+01 -0.1078860E+02 -0.1027320E+00  0.4318773E+00 -0.1748085E+01  0.7616641E-01  0.4251078E+00
 -0.1078190E+01 -0.1094700E+02 -0.1027320E+00  0.4411261E+00 -0.1750564E+01  0.7887357E-01  0.4340175E+00
  0.1311740E-06 -0.1100000E+02 -0.1027320E+00  0.4475850E+00 -0.1752417E+01  0.8084470E-01  0.4402232E+00
  0.1078190E+01 -0.1094700E+02 -0.1027320E+00  0.4506007E+00 -0.1753399E+01  0.8182453E-01  0.4431092E+00
  0.2145990E+01 -0.1078860E+02 -0.1027320E+00  0.4507470E+00 -0.1753490E+01  0.8189136E-01  0.4432456E+00
  0.3193140E+01 -0.1052630E+02 -0.1027320E+00  0.4482274E+00 -0.1752679E+01  0.8107591E-01  0.4408339E+00
  0.4209520E+01 -0.1016270E+02 -0.1027320E+00  0.4428482E+00 -0.1751015E+01  0.7937804E-01  0.4356761E+00
  0.5185360E+01 -0.9701130E+01 -0.1027320E+00  0.4340658E+00 -0.1748599E+01  0.7677196E-01  0.4272227E+00
  0.6111270E+01 -0.9146160E+01 -0.1027320E+00  0.4225445E+00 -0.1745740E+01  0.7354495E-01  0.4160949E+00
  0.6978330E+01 -0.8503110E+01 -0.1027320E+00  0.4085325E+00 -0.1742641E+01  0.6985914E-01  0.4025152E+00
  0.7778180E+01 -0.7778170E+01 -0.1027320E+00  0.3919144E+00 -0.1739637E+01  0.6585712E-01  0.3863415E+00
  0.8503120E+01 -0.6978320E+01 -0.1027320E+00  0.3723550E+00 -0.1737432E+01  0.6176097E-01  0.3671973E+00
  0.9146170E+01 -0.6111270E+01 -0.1027320E+00  0.3505548E+00 -0.1736735E+01  0.5790409E-01  0.3457395E+00
