 VARIABLES="X" "Y" "Z" "abs(eta) (m)" "angle(phi) (rad)" "PRE1" "PRE2"
ZONE N=   3200 ,E =    3136 ,F=FEPOINT,ET=QUADRILATERAL
  0.1010000E+02  0.0000000E+00  0.0000000E+00  0.4722675E+00 -0.1676576E+01  0.4986329E-01  0.4696277E+00
  0.1005140E+02  0.9899730E+00  0.0000000E+00  0.4419197E+00 -0.1670616E+01  0.4403898E-01  0.4397199E+00
  0.9905930E+01  0.1970410E+01  0.0000000E+00  0.4087703E+00 -0.1666528E+01  0.3907253E-01  0.4068986E+00
  0.9665100E+01  0.2931880E+01  0.0000000E+00  0.3731877E+00 -0.1666304E+01  0.3558805E-01  0.3714870E+00
  0.9331180E+01  0.3865100E+01  0.0000000E+00  0.3358342E+00 -0.1672354E+01  0.3404798E-01  0.3341038E+00
  0.8907400E+01  0.4761110E+01  0.0000000E+00  0.2963315E+00 -0.1688716E+01  0.3486225E-01  0.2942736E+00
  0.8397840E+01  0.5611260E+01  0.0000000E+00  0.2555633E+00 -0.1719838E+01  0.3794863E-01  0.2527301E+00
  0.7807410E+01  0.6407370E+01  0.0000000E+00  0.2146740E+00 -0.1775646E+01  0.4366891E-01  0.2101855E+00
  0.7141780E+01  0.7141780E+01  0.0000000E+00  0.1753369E+00 -0.1871819E+01  0.5198694E-01  0.1674526E+00
  0.6407370E+01  0.7807410E+01  0.0000000E+00  0.1398277E+00 -0.2039315E+01  0.6314135E-01  0.1247596E+00
  0.5611260E+01  0.8397840E+01  0.0000000E+00  0.1125383E+00 -0.2321484E+01  0.7676704E-01  0.8229025E-01
  0.4761110E+01  0.8907410E+01  0.0000000E+00  0.1012732E+00 -0.2726379E+01  0.9266805E-01  0.4085213E-01
  0.3865100E+01  0.9331180E+01  0.0000000E+00  0.1102629E+00 -0.3131121E+01  0.1102568E+00  0.1154622E-02
  0.2931870E+01  0.9665100E+01  0.0000000E+00  0.1342963E+00  0.2869967E+01  0.1293724E+00 -0.3603146E-01
  0.1970410E+01  0.9905930E+01  0.0000000E+00  0.1657073E+00  0.2697281E+01  0.1496183E+00 -0.7122705E-01
  0.9899730E+00  0.1005140E+02  0.0000000E+00  0.1994713E+00  0.2594140E+01  0.1703192E+00 -0.1038276E+00
 -0.4414850E-06  0.1010000E+02  0.0000000E+00  0.2327742E+00  0.2530706E+01  0.1906746E+00 -0.1335179E+00
 -0.9899740E+00  0.1005140E+02  0.0000000E+00  0.2635972E+00  0.2493391E+01  0.2101321E+00 -0.1591478E+00
 -0.1970410E+01  0.9905930E+01  0.0000000E+00  0.2920942E+00  0.2469517E+01  0.2285728E+00 -0.1818612E+00
 -0.2931880E+01  0.9665100E+01  0.0000000E+00  0.3173506E+00  0.2454043E+01  0.2452498E+00 -0.2014050E+00
 -0.3865100E+01  0.9331180E+01  0.0000000E+00  0.3388099E+00  0.2443629E+01  0.2595800E+00 -0.2177392E+00
 -0.4761110E+01  0.8907400E+01  0.0000000E+00  0.3549777E+00  0.2438628E+01  0.2708228E+00 -0.2294867E+00
 -0.5611260E+01  0.8397840E+01  0.0000000E+00  0.3670251E+00  0.2435591E+01  0.2792921E+00 -0.2381247E+00
 -0.6407370E+01  0.7807410E+01  0.0000000E+00  0.3745729E+00  0.2433620E+01  0.2845562E+00 -0.2435829E+00
 -0.7141780E+01  0.7141780E+01  0.0000000E+00  0.3775884E+00  0.2432333E+01  0.2865306E+00 -0.2459130E+00
 -0.7807410E+01  0.6407370E+01  0.0000000E+00  0.3745731E+00  0.2433619E+01  0.2845561E+00 -0.2435834E+00
 -0.8397840E+01  0.5611260E+01  0.0000000E+00  0.3670253E+00  0.2435590E+01  0.2792920E+00 -0.2381250E+00
 -0.8907410E+01  0.4761110E+01  0.0000000E+00  0.3549773E+00  0.2438628E+01  0.2708224E+00 -0.2294866E+00
 -0.9331180E+01  0.3865100E+01  0.0000000E+00  0.3388102E+00  0.2443628E+01  0.2595799E+00 -0.2177397E+00
 -0.9665100E+01  0.2931880E+01  0.0000000E+00  0.3173508E+00  0.2454042E+01  0.2452496E+00 -0.2014055E+00
 -0.9905930E+01  0.1970410E+01  0.0000000E+00  0.2920945E+00  0.2469516E+01  0.2285728E+00 -0.1818616E+00
 -0.1005140E+02  0.9899730E+00  0.0000000E+00  0.2635968E+00  0.2493390E+01  0.2101316E+00 -0.1591478E+00
 -0.1010000E+02 -0.8829700E-06  0.0000000E+00  0.2327749E+00  0.2530707E+01  0.1906753E+00 -0.1335180E+00
 -0.1005140E+02 -0.9899740E+00  0.0000000E+00  0.1994714E+00  0.2594139E+01  0.1703193E+00 -0.1038278E+00
 -0.9905930E+01 -0.1970410E+01  0.0000000E+00  0.1657076E+00  0.2697280E+01  0.1496184E+00 -0.7122736E-01
 -0.9665100E+01 -0.2931880E+01  0.0000000E+00  0.1342959E+00  0.2869968E+01  0.1293721E+00 -0.3603117E-01
 -0.9331180E+01 -0.3865100E+01  0.0000000E+00  0.1102628E+00 -0.3131122E+01  0.1102567E+00  0.1154463E-02
 -0.8907400E+01 -0.4761110E+01  0.0000000E+00  0.1012734E+00 -0.2726382E+01  0.9266832E-01  0.4085199E-01
 -0.8397840E+01 -0.5611260E+01  0.0000000E+00  0.1125383E+00 -0.2321486E+01  0.7676726E-01  0.8229008E-01
 -0.7807400E+01 -0.6407370E+01  0.0000000E+00  0.1398280E+00 -0.2039317E+01  0.6314166E-01  0.1247597E+00
 -0.7141780E+01 -0.7141780E+01  0.0000000E+00  0.1753368E+00 -0.1871820E+01  0.5198700E-01  0.1674525E+00
 -0.6407370E+01 -0.7807410E+01  0.0000000E+00  0.2146736E+00 -0.1775647E+01  0.4366903E-01  0.2101851E+00
 -0.5611260E+01 -0.8397850E+01  0.0000000E+00  0.2555634E+00 -0.1719838E+01  0.3794871E-01  0.2527302E+00
 -0.4761110E+01 -0.8907410E+01  0.0000000E+00  0.2963314E+00 -0.1688717E+01  0.3486258E-01  0.2942735E+00
 -0.3865100E+01 -0.9331190E+01  0.0000000E+00  0.3358343E+00 -0.1672355E+01  0.3404832E-01  0.3341039E+00
 -0.2931870E+01 -0.9665100E+01  0.0000000E+00  0.3731880E+00 -0.1666304E+01  0.3558833E-01  0.3714872E+00
 -0.1970410E+01 -0.9905930E+01  0.0000000E+00  0.4087705E+00 -0.1666529E+01  0.3907290E-01  0.4068988E+00
 -0.9899710E+00 -0.1005140E+02  0.0000000E+00  0.4419198E+00 -0.1670616E+01  0.4403923E-01  0.4397200E+00
  0.1204410E-06 -0.1010000E+02  0.0000000E+00  0.4722676E+00 -0.1676576E+01  0.4986339E-01  0.4696279E+00
  0.9899760E+00 -0.1005140E+02  0.0000000E+00  0.4986963E+00 -0.1683967E+01  0.5631760E-01  0.4955062E+00
  0.1970410E+01 -0.9905930E+01  0.0000000E+00  0.5222835E+00 -0.1691976E+01  0.6313548E-01  0.5184534E+00
  0.2931880E+01 -0.9665100E+01  0.0000000E+00  0.5426976E+00 -0.1699629E+01  0.6972381E-01  0.5382000E+00
  0.3865100E+01 -0.9331180E+01  0.0000000E+00  0.5598294E+00 -0.1706262E+01  0.7560598E-01  0.5547005E+00
  0.4761110E+01 -0.8907410E+01  0.0000000E+00  0.5722861E+00 -0.1711745E+01  0.8039604E-01  0.5666108E+00
  0.5611260E+01 -0.8397840E+01  0.0000000E+00  0.5814880E+00 -0.1716019E+01  0.8414876E-01  0.5753671E+00
  0.6407370E+01 -0.7807410E+01  0.0000000E+00  0.5872932E+00 -0.1718631E+01  0.8650617E-01  0.5808873E+00
  0.7141780E+01 -0.7141780E+01  0.0000000E+00  0.5897388E+00 -0.1719545E+01  0.8739950E-01  0.5832265E+00
  0.7807410E+01 -0.6407370E+01  0.0000000E+00  0.5872935E+00 -0.1718630E+01  0.8650606E-01  0.5808876E+00
  0.8397840E+01 -0.5611260E+01  0.0000000E+00  0.5814878E+00 -0.1716019E+01  0.8414883E-01  0.5753669E+00
  0.8907410E+01 -0.4761110E+01  0.0000000E+00  0.5722858E+00 -0.1711745E+01  0.8039604E-01  0.5666106E+00
  0.9331180E+01 -0.3865100E+01  0.0000000E+00  0.5598297E+00 -0.1706262E+01  0.7560598E-01  0.5547009E+00
  0.9665100E+01 -0.2931870E+01  0.0000000E+00  0.5426979E+00 -0.1699629E+01  0.6972384E-01  0.5382003E+00
  0.9905930E+01 -0.1970410E+01  0.0000000E+00  0.5222834E+00 -0.1691976E+01  0.6313532E-01  0.5184534E+00
  0.1005140E+02 -0.9899690E+00  0.0000000E+00  0.4986964E+00 -0.1683967E+01  0.5631757E-01  0.4955062E+00
  0.1010000E+02  0.0000000E+00 -0.2568960E-01  0.4716887E+00 -0.1676590E+01  0.4980878E-01  0.4690515E+00
  0.1005140E+02  0.9899730E+00 -0.2568960E-01  0.4413632E+00 -0.1670627E+01  0.4398848E-01  0.4391657E+00
  0.9905930E+01  0.1970410E+01 -0.2568960E-01  0.4081932E+00 -0.1666578E+01  0.3903776E-01  0.4063222E+00
  0.9665100E+01  0.2931880E+01 -0.2568960E-01  0.3727129E+00 -0.1666303E+01  0.3554262E-01  0.3710144E+00
  0.9331180E+01  0.3865100E+01 -0.2568960E-01  0.3354108E+00 -0.1672332E+01  0.3399777E-01  0.3336833E+00
  0.8907400E+01  0.4761110E+01 -0.2568960E-01  0.2959476E+00 -0.1688699E+01  0.3481236E-01  0.2938929E+00
  0.8397840E+01  0.5611260E+01 -0.2568960E-01  0.2552095E+00 -0.1719927E+01  0.3791865E-01  0.2523768E+00
  0.7807410E+01  0.6407370E+01 -0.2568960E-01  0.2143853E+00 -0.1775621E+01  0.4360504E-01  0.2099039E+00
  0.7141780E+01  0.7141780E+01 -0.2568960E-01  0.1750924E+00 -0.1871776E+01  0.5190722E-01  0.1672214E+00
  0.6407370E+01  0.7807410E+01 -0.2568960E-01  0.1396263E+00 -0.2039333E+01  0.6305255E-01  0.1245788E+00
  0.5611260E+01  0.8397840E+01 -0.2568960E-01  0.1124031E+00 -0.2321580E+01  0.7668275E-01  0.8218396E-01
  0.4761110E+01  0.8907410E+01 -0.2568960E-01  0.1011268E+00 -0.2726621E+01  0.9254396E-01  0.4077070E-01
  0.3865100E+01  0.9331180E+01 -0.2568960E-01  0.1101155E+00 -0.3131493E+01  0.1101098E+00  0.1112118E-02
  0.2931870E+01  0.9665100E+01 -0.2568960E-01  0.1341335E+00  0.2869704E+01  0.1292061E+00 -0.3602175E-01
  0.1970410E+01  0.9905930E+01 -0.2568960E-01  0.1654861E+00  0.2697422E+01  0.1494286E+00 -0.7111085E-01
  0.9899730E+00  0.1005140E+02 -0.2568960E-01  0.1992419E+00  0.2593975E+01  0.1701063E+00 -0.1037362E+00
 -0.4414850E-06  0.1010000E+02 -0.2568960E-01  0.2325188E+00  0.2530532E+01  0.1904422E+00 -0.1334045E+00
 -0.9899740E+00  0.1005140E+02 -0.2568960E-01  0.2632959E+00  0.2493282E+01  0.2098745E+00 -0.1589888E+00
 -0.1970410E+01  0.9905930E+01 -0.2568960E-01  0.2916829E+00  0.2469606E+01  0.2282671E+00 -0.1815848E+00
 -0.2931880E+01  0.9665100E+01 -0.2568960E-01  0.3169879E+00  0.2453961E+01  0.2449529E+00 -0.2011949E+00
 -0.3865100E+01  0.9331180E+01 -0.2568960E-01  0.3384386E+00  0.2443533E+01  0.2592748E+00 -0.2175253E+00
 -0.4761110E+01  0.8907400E+01 -0.2568960E-01  0.3545709E+00  0.2438563E+01  0.2704976E+00 -0.2292414E+00
 -0.5611260E+01  0.8397840E+01 -0.2568960E-01  0.3665039E+00  0.2435660E+01  0.2789120E+00 -0.2377671E+00
 -0.6407370E+01  0.7807410E+01 -0.2568960E-01  0.3741433E+00  0.2433562E+01  0.2842158E+00 -0.2433199E+00
 -0.7141780E+01  0.7141780E+01 -0.2568960E-01  0.3771730E+00  0.2432255E+01  0.2861964E+00 -0.2456645E+00
 -0.7807410E+01  0.6407370E+01 -0.2568960E-01  0.3741432E+00  0.2433562E+01  0.2842157E+00 -0.2433199E+00
 -0.8397840E+01  0.5611260E+01 -0.2568960E-01  0.3665043E+00  0.2435660E+01  0.2789122E+00 -0.2377674E+00
 -0.8907410E+01  0.4761110E+01 -0.2568960E-01  0.3545708E+00  0.2438564E+01  0.2704976E+00 -0.2292411E+00
 -0.9331180E+01  0.3865100E+01 -0.2568960E-01  0.3384386E+00  0.2443532E+01  0.2592744E+00 -0.2175258E+00
 -0.9665100E+01  0.2931880E+01 -0.2568960E-01  0.3169881E+00  0.2453961E+01  0.2449530E+00 -0.2011950E+00
 -0.9905930E+01  0.1970410E+01 -0.2568960E-01  0.2916828E+00  0.2469604E+01  0.2282667E+00 -0.1815851E+00
 -0.1005140E+02  0.9899730E+00 -0.2568960E-01  0.2632966E+00  0.2493281E+01  0.2098750E+00 -0.1589894E+00
 -0.1010000E+02 -0.8829700E-06 -0.2568960E-01  0.2325185E+00  0.2530531E+01  0.1904418E+00 -0.1334045E+00
 -0.1005140E+02 -0.9899740E+00 -0.2568960E-01  0.1992419E+00  0.2593973E+01  0.1701061E+00 -0.1037365E+00
 -0.9905930E+01 -0.1970410E+01 -0.2568960E-01  0.1654862E+00  0.2697421E+01  0.1494286E+00 -0.7111102E-01
 -0.9665100E+01 -0.2931880E+01 -0.2568960E-01  0.1341334E+00  0.2869706E+01  0.1292062E+00 -0.3602143E-01
 -0.9331180E+01 -0.3865100E+01 -0.2568960E-01  0.1101157E+00 -0.3131496E+01  0.1101101E+00  0.1111807E-02
 -0.8907400E+01 -0.4761110E+01 -0.2568960E-01  0.1011267E+00 -0.2726623E+01  0.9254391E-01  0.4077047E-01
 -0.8397840E+01 -0.5611260E+01 -0.2568960E-01  0.1124034E+00 -0.2321585E+01  0.7668334E-01  0.8218385E-01
 -0.7807400E+01 -0.6407370E+01 -0.2568960E-01  0.1396264E+00 -0.2039334E+01  0.6305277E-01  0.1245788E+00
 -0.7141780E+01 -0.7141780E+01 -0.2568960E-01  0.1750923E+00 -0.1871779E+01  0.5190767E-01  0.1672212E+00
 -0.6407370E+01 -0.7807410E+01 -0.2568960E-01  0.2143853E+00 -0.1775624E+01  0.4360565E-01  0.2099037E+00
 -0.5611260E+01 -0.8397850E+01 -0.2568960E-01  0.2552097E+00 -0.1719929E+01  0.3791910E-01  0.2523769E+00
 -0.4761110E+01 -0.8907410E+01 -0.2568960E-01  0.2959475E+00 -0.1688701E+01  0.3481280E-01  0.2938928E+00
 -0.3865100E+01 -0.9331190E+01 -0.2568960E-01  0.3354108E+00 -0.1672333E+01  0.3399818E-01  0.3336833E+00
 -0.2931870E+01 -0.9665100E+01 -0.2568960E-01  0.3727132E+00 -0.1666304E+01  0.3554292E-01  0.3710146E+00
 -0.1970410E+01 -0.9905930E+01 -0.2568960E-01  0.4081933E+00 -0.1666578E+01  0.3903777E-01  0.4063224E+00
 -0.9899710E+00 -0.1005140E+02 -0.2568960E-01  0.4413632E+00 -0.1670628E+01  0.4398900E-01  0.4391656E+00
  0.1204410E-06 -0.1010000E+02 -0.2568960E-01  0.4716880E+00 -0.1676591E+01  0.4980894E-01  0.4690508E+00
  0.9899760E+00 -0.1005140E+02 -0.2568960E-01  0.4980711E+00 -0.1683991E+01  0.5625857E-01  0.4948837E+00
  0.1970410E+01 -0.9905930E+01 -0.2568960E-01  0.5215420E+00 -0.1692007E+01  0.6306154E-01  0.5177154E+00
  0.2931880E+01 -0.9665100E+01 -0.2568960E-01  0.5420195E+00 -0.1699660E+01  0.6965335E-01  0.5375254E+00
  0.3865100E+01 -0.9331180E+01 -0.2568960E-01  0.5591475E+00 -0.1706298E+01  0.7553355E-01  0.5540222E+00
  0.4761110E+01 -0.8907410E+01 -0.2568960E-01  0.5715714E+00 -0.1711782E+01  0.8031654E-01  0.5659003E+00
  0.5611260E+01 -0.8397840E+01 -0.2568960E-01  0.5806606E+00 -0.1716042E+01  0.8404205E-01  0.5745465E+00
  0.6407370E+01 -0.7807410E+01 -0.2568960E-01  0.5865606E+00 -0.1718670E+01  0.8642112E-01  0.5801592E+00
  0.7141780E+01 -0.7141780E+01 -0.2568960E-01  0.5890210E+00 -0.1719588E+01  0.8731836E-01  0.5825129E+00
  0.7807410E+01 -0.6407370E+01 -0.2568960E-01  0.5865610E+00 -0.1718670E+01  0.8642102E-01  0.5801596E+00
  0.8397840E+01 -0.5611260E+01 -0.2568960E-01  0.5806609E+00 -0.1716041E+01  0.8404194E-01  0.5745469E+00
  0.8907410E+01 -0.4761110E+01 -0.2568960E-01  0.5715712E+00 -0.1711782E+01  0.8031642E-01  0.5659001E+00
  0.9331180E+01 -0.3865100E+01 -0.2568960E-01  0.5591475E+00 -0.1706297E+01  0.7553347E-01  0.5540223E+00
  0.9665100E+01 -0.2931870E+01 -0.2568960E-01  0.5420194E+00 -0.1699660E+01  0.6965325E-01  0.5375253E+00
  0.9905930E+01 -0.1970410E+01 -0.2568960E-01  0.5215421E+00 -0.1692006E+01  0.6306152E-01  0.5177155E+00
  0.1005140E+02 -0.9899690E+00 -0.2568960E-01  0.4980714E+00 -0.1683991E+01  0.5625853E-01  0.4948839E+00
  0.1010000E+02  0.0000000E+00 -0.1027320E+00  0.4699003E+00 -0.1676633E+01  0.4964013E-01  0.4672710E+00
  0.1005140E+02  0.9899730E+00 -0.1027320E+00  0.4396552E+00 -0.1670665E+01  0.4383486E-01  0.4374645E+00
  0.9905930E+01  0.1970410E+01 -0.1027320E+00  0.4064860E+00 -0.1666694E+01  0.3892144E-01  0.4046184E+00
  0.9665100E+01  0.2931880E+01 -0.1027320E+00  0.3712625E+00 -0.1666317E+01  0.3540928E-01  0.3695701E+00
  0.9331180E+01  0.3865100E+01 -0.1027320E+00  0.3341164E+00 -0.1672293E+01  0.3385365E-01  0.3323969E+00
  0.8907400E+01  0.4761110E+01 -0.1027320E+00  0.2947800E+00 -0.1688681E+01  0.3466953E-01  0.2927341E+00
  0.8397840E+01  0.5611260E+01 -0.1027320E+00  0.2541572E+00 -0.1720128E+01  0.3781275E-01  0.2513286E+00
  0.7807410E+01  0.6407370E+01 -0.1027320E+00  0.2135202E+00 -0.1775588E+01  0.4342216E-01  0.2090583E+00
  0.7141780E+01  0.7141780E+01 -0.1027320E+00  0.1743664E+00 -0.1871692E+01  0.5167802E-01  0.1665324E+00
  0.6407370E+01  0.7807410E+01 -0.1027320E+00  0.1390352E+00 -0.2039396E+01  0.6279343E-01  0.1240475E+00
  0.5611260E+01  0.8397840E+01 -0.1027320E+00  0.1119843E+00 -0.2321805E+01  0.7641537E-01  0.8186064E-01
  0.4761110E+01  0.8907410E+01 -0.1027320E+00  0.1006999E+00 -0.2727129E+01  0.9217393E-01  0.4055173E-01
  0.3865100E+01  0.9331180E+01 -0.1027320E+00  0.1096748E+00 -0.3132297E+01  0.1096701E+00  0.1019481E-02
  0.2931870E+01  0.9665100E+01 -0.1027320E+00  0.1336326E+00  0.2869172E+01  0.1287046E+00 -0.3595567E-01
  0.1970410E+01  0.9905930E+01 -0.1027320E+00  0.1648247E+00  0.2697726E+01  0.1488529E+00 -0.7078145E-01
  0.9899730E+00  0.1005140E+02 -0.1027320E+00  0.1985205E+00  0.2593647E+01  0.1694565E+00 -0.1034162E+00
 -0.4414850E-06  0.1010000E+02 -0.1027320E+00  0.2317051E+00  0.2530167E+01  0.1897272E+00 -0.1330070E+00
 -0.9899740E+00  0.1005140E+02 -0.1027320E+00  0.2623475E+00  0.2493073E+01  0.2090854E+00 -0.1584598E+00
 -0.1970410E+01  0.9905930E+01 -0.1027320E+00  0.2904724E+00  0.2469805E+01  0.2273557E+00 -0.1807860E+00
 -0.2931880E+01  0.9665100E+01 -0.1027320E+00  0.3158443E+00  0.2453812E+01  0.2440391E+00 -0.2005056E+00
 -0.3865100E+01  0.9331180E+01 -0.1027320E+00  0.3372571E+00  0.2443343E+01  0.2583283E+00 -0.2168151E+00
 -0.4761110E+01  0.8907400E+01 -0.1027320E+00  0.3532901E+00  0.2438450E+01  0.2694947E+00 -0.2284437E+00
 -0.5611260E+01  0.8397840E+01 -0.1027320E+00  0.3649733E+00  0.2435822E+01  0.2777855E+00 -0.2367292E+00
 -0.6407370E+01  0.7807410E+01 -0.1027320E+00  0.3727905E+00  0.2433462E+01  0.2831639E+00 -0.2424684E+00
 -0.7141780E+01  0.7141780E+01 -0.1027320E+00  0.3758551E+00  0.2432109E+01  0.2851606E+00 -0.2448479E+00
 -0.7807410E+01  0.6407370E+01 -0.1027320E+00  0.3727906E+00  0.2433462E+01  0.2831639E+00 -0.2424686E+00
 -0.8397840E+01  0.5611260E+01 -0.1027320E+00  0.3649737E+00  0.2435821E+01  0.2777856E+00 -0.2367297E+00
 -0.8907410E+01  0.4761110E+01 -0.1027320E+00  0.3532906E+00  0.2438451E+01  0.2694951E+00 -0.2284440E+00
 -0.9331180E+01  0.3865100E+01 -0.1027320E+00  0.3372580E+00  0.2443344E+01  0.2583292E+00 -0.2168155E+00
 -0.9665100E+01  0.2931880E+01 -0.1027320E+00  0.3158444E+00  0.2453811E+01  0.2440392E+00 -0.2005057E+00
 -0.9905930E+01  0.1970410E+01 -0.1027320E+00  0.2904724E+00  0.2469804E+01  0.2273556E+00 -0.1807862E+00
 -0.1005140E+02  0.9899730E+00 -0.1027320E+00  0.2623483E+00  0.2493075E+01  0.2090863E+00 -0.1584599E+00
 -0.1010000E+02 -0.8829700E-06 -0.1027320E+00  0.2317060E+00  0.2530168E+01  0.1897280E+00 -0.1330073E+00
 -0.1005140E+02 -0.9899740E+00 -0.1027320E+00  0.1985207E+00  0.2593647E+01  0.1694565E+00 -0.1034163E+00
 -0.9905930E+01 -0.1970410E+01 -0.1027320E+00  0.1648251E+00  0.2697725E+01  0.1488531E+00 -0.7078175E-01
 -0.9665100E+01 -0.2931880E+01 -0.1027320E+00  0.1336326E+00  0.2869174E+01  0.1287047E+00 -0.3595538E-01
 -0.9331180E+01 -0.3865100E+01 -0.1027320E+00  0.1096750E+00 -0.3132298E+01  0.1096702E+00  0.1019400E-02
 -0.8907400E+01 -0.4761110E+01 -0.1027320E+00  0.1007001E+00 -0.2727133E+01  0.9217418E-01  0.4055149E-01
 -0.8397840E+01 -0.5611260E+01 -0.1027320E+00  0.1119844E+00 -0.2321807E+01  0.7641570E-01  0.8186054E-01
 -0.7807400E+01 -0.6407370E+01 -0.1027320E+00  0.1390353E+00 -0.2039394E+01  0.6279324E-01  0.1240477E+00
 -0.7141780E+01 -0.7141780E+01 -0.1027320E+00  0.1743663E+00 -0.1871692E+01  0.5167793E-01  0.1665323E+00
 -0.6407370E+01 -0.7807410E+01 -0.1027320E+00  0.2135200E+00 -0.1775591E+01  0.4342262E-01  0.2090580E+00
 -0.5611260E+01 -0.8397850E+01 -0.1027320E+00  0.2541572E+00 -0.1720128E+01  0.3781281E-01  0.2513287E+00
 -0.4761110E+01 -0.8907410E+01 -0.1027320E+00  0.2947800E+00 -0.1688681E+01  0.3466959E-01  0.2927341E+00
 -0.3865100E+01 -0.9331190E+01 -0.1027320E+00  0.3341164E+00 -0.1672294E+01  0.3385393E-01  0.3323968E+00
 -0.2931870E+01 -0.9665100E+01 -0.1027320E+00  0.3712622E+00 -0.1666317E+01  0.3540949E-01  0.3695697E+00
 -0.1970410E+01 -0.9905930E+01 -0.1027320E+00  0.4064863E+00 -0.1666694E+01  0.3892152E-01  0.4046187E+00
 -0.9899710E+00 -0.1005140E+02 -0.1027320E+00  0.4396558E+00 -0.1670665E+01  0.4383505E-01  0.4374651E+00
  0.1204410E-06 -0.1010000E+02 -0.1027320E+00  0.4699004E+00 -0.1676634E+01  0.4964041E-01  0.4672710E+00
  0.9899760E+00 -0.1005140E+02 -0.1027320E+00  0.4961516E+00 -0.1684056E+01  0.5607368E-01  0.4929728E+00
  0.1970410E+01 -0.9905930E+01 -0.1027320E+00  0.5193537E+00 -0.1692086E+01  0.6283814E-01  0.5155382E+00
  0.2931880E+01 -0.9665100E+01 -0.1027320E+00  0.5399345E+00 -0.1699740E+01  0.6942815E-01  0.5354522E+00
  0.3865100E+01 -0.9331180E+01 -0.1027320E+00  0.5570393E+00 -0.1706392E+01  0.7530068E-01  0.5519263E+00
  0.4761110E+01 -0.8907410E+01 -0.1027320E+00  0.5693747E+00 -0.1711876E+01  0.8006125E-01  0.5637178E+00
  0.5611260E+01 -0.8397840E+01 -0.1027320E+00  0.5782217E+00 -0.1716107E+01  0.8372661E-01  0.5721278E+00
  0.6407370E+01 -0.7807410E+01 -0.1027320E+00  0.5843078E+00 -0.1718769E+01  0.8614665E-01  0.5779225E+00
  0.7141780E+01 -0.7141780E+01 -0.1027320E+00  0.5868029E+00 -0.1719699E+01  0.8705377E-01  0.5803096E+00
  0.7807410E+01 -0.6407370E+01 -0.1027320E+00  0.5843076E+00 -0.1718770E+01  0.8614670E-01  0.5779222E+00
  0.8397840E+01 -0.5611260E+01 -0.1027320E+00  0.5782215E+00 -0.1716107E+01  0.8372636E-01  0.5721276E+00
