 VARIABLES="X" "Y" "Z" "abs(eta) (m)" "angle(phi) (rad)" "PRE1" "PRE2"
ZONE N=   3200 ,E =    3136 ,F=FEPOINT,ET=QUADRILATERAL
  0.1100000E+02  0.0000000E+00  0.0000000E+00  0.4794788E+00 -0.1664678E+01  0.4494820E-01  0.4773673E+00
  0.1094700E+02  0.1078190E+01  0.0000000E+00  0.4566295E+00 -0.1659189E+01  0.4031012E-01  0.4548468E+00
  0.1078860E+02  0.2145990E+01  0.0000000E+00  0.4309979E+00 -0.1654445E+01  0.3601057E-01  0.4294909E+00
  0.1052630E+02  0.3193130E+01  0.0000000E+00  0.4027144E+00 -0.1651564E+01  0.3249085E-01  0.4014015E+00
  0.1016270E+02  0.4209520E+01  0.0000000E+00  0.3722796E+00 -0.1651930E+01  0.3017144E-01  0.3710549E+00
  0.9701130E+01  0.5185360E+01  0.0000000E+00  0.3393078E+00 -0.1657475E+01  0.2937379E-01  0.3380339E+00
  0.9146170E+01  0.6111270E+01  0.0000000E+00  0.3045188E+00 -0.1670236E+01  0.3023131E-01  0.3030145E+00
  0.8503110E+01  0.6978330E+01  0.0000000E+00  0.2684694E+00 -0.1694362E+01  0.3308921E-01  0.2664224E+00
  0.7778170E+01  0.7778170E+01  0.0000000E+00  0.2320535E+00 -0.1735712E+01  0.3809610E-01  0.2289050E+00
  0.6978330E+01  0.8503110E+01  0.0000000E+00  0.1958958E+00 -0.1804982E+01  0.4545784E-01  0.1905485E+00
  0.6111270E+01  0.9146170E+01  0.0000000E+00  0.1614248E+00 -0.1918705E+01  0.5503497E-01  0.1517535E+00
  0.5185360E+01  0.9701130E+01  0.0000000E+00  0.1314122E+00 -0.2104019E+01  0.6679831E-01  0.1131687E+00
  0.4209520E+01  0.1016270E+02  0.0000000E+00  0.1102828E+00 -0.2388666E+01  0.8047234E-01  0.7540882E-01
  0.3193130E+01  0.1052630E+02  0.0000000E+00  0.1035607E+00 -0.2755779E+01  0.9594817E-01  0.3897124E-01
  0.2145990E+01  0.1078860E+02  0.0000000E+00  0.1129523E+00 -0.3107882E+01  0.1128882E+00  0.3806989E-02
  0.1078190E+01  0.1094700E+02  0.0000000E+00  0.1341202E+00  0.2920153E+01  0.1308453E+00 -0.2945739E-01
 -0.4808250E-06  0.1100000E+02  0.0000000E+00  0.1610422E+00  0.2756619E+01  0.1492552E+00 -0.6047685E-01
 -0.1078190E+01  0.1094700E+02  0.0000000E+00  0.1896179E+00  0.2655915E+01  0.1676903E+00 -0.8851501E-01
 -0.2145990E+01  0.1078860E+02  0.0000000E+00  0.2180940E+00  0.2590889E+01  0.1858503E+00 -0.1141257E+00
 -0.3193130E+01  0.1052630E+02  0.0000000E+00  0.2449248E+00  0.2548581E+01  0.2031067E+00 -0.1368789E+00
 -0.4209520E+01  0.1016270E+02  0.0000000E+00  0.2692533E+00  0.2520245E+01  0.2189284E+00 -0.1567409E+00
 -0.5185370E+01  0.9701130E+01  0.0000000E+00  0.2898955E+00  0.2502832E+01  0.2327384E+00 -0.1728359E+00
 -0.6111270E+01  0.9146160E+01  0.0000000E+00  0.3072588E+00  0.2491066E+01  0.2445059E+00 -0.1860775E+00
 -0.6978330E+01  0.8503120E+01  0.0000000E+00  0.3207450E+00  0.2483389E+01  0.2537390E+00 -0.1961986E+00
 -0.7778170E+01  0.7778170E+01  0.0000000E+00  0.3302600E+00  0.2478265E+01  0.2602276E+00 -0.2033550E+00
 -0.8503120E+01  0.6978330E+01  0.0000000E+00  0.3347778E+00  0.2476713E+01  0.2634670E+00 -0.2065461E+00
 -0.9146170E+01  0.6111270E+01  0.0000000E+00  0.3351749E+00  0.2476635E+01  0.2637637E+00 -0.2068114E+00
 -0.9701130E+01  0.5185360E+01  0.0000000E+00  0.3312237E+00  0.2478271E+01  0.2609881E+00 -0.2039469E+00
 -0.1016270E+02  0.4209520E+01  0.0000000E+00  0.3232226E+00  0.2481635E+01  0.2553518E+00 -0.1981624E+00
 -0.1052630E+02  0.3193130E+01  0.0000000E+00  0.3103636E+00  0.2489144E+01  0.2466148E+00 -0.1884322E+00
 -0.1078860E+02  0.2145990E+01  0.0000000E+00  0.2936833E+00  0.2500149E+01  0.2353088E+00 -0.1757261E+00
 -0.1094700E+02  0.1078190E+01  0.0000000E+00  0.2733800E+00  0.2516755E+01  0.2217270E+00 -0.1599180E+00
 -0.1100000E+02 -0.9616510E-06  0.0000000E+00  0.2501400E+00  0.2541309E+01  0.2064094E+00 -0.1412982E+00
 -0.1094700E+02 -0.1078190E+01  0.0000000E+00  0.2237291E+00  0.2580729E+01  0.1894529E+00 -0.1190055E+00
 -0.1078860E+02 -0.2146000E+01  0.0000000E+00  0.1954520E+00  0.2640498E+01  0.1714226E+00 -0.9389243E-01
 -0.1052630E+02 -0.3193130E+01  0.0000000E+00  0.1665374E+00  0.2733804E+01  0.1528813E+00 -0.6604542E-01
 -0.1016270E+02 -0.4209520E+01  0.0000000E+00  0.1391707E+00  0.2880407E+01  0.1344507E+00 -0.3593749E-01
 -0.9701130E+01 -0.5185360E+01  0.0000000E+00  0.1164996E+00  0.3114879E+01  0.1164580E+00 -0.3111780E-02
 -0.9146160E+01 -0.6111270E+01  0.0000000E+00  0.1042254E+00 -0.2832215E+01  0.9927711E-01  0.3173305E-01
 -0.8503110E+01 -0.6978330E+01  0.0000000E+00  0.1077547E+00 -0.2456473E+01  0.8343909E-01  0.6818350E-01
 -0.7778170E+01 -0.7778180E+01  0.0000000E+00  0.1263115E+00 -0.2151698E+01  0.6931700E-01  0.1055924E+00
 -0.6978330E+01 -0.8503110E+01  0.0000000E+00  0.1548678E+00 -0.1949280E+01  0.5722545E-01  0.1439072E+00
 -0.6111270E+01 -0.9146170E+01  0.0000000E+00  0.1886980E+00 -0.1823633E+01  0.4720311E-01  0.1826987E+00
 -0.5185360E+01 -0.9701130E+01  0.0000000E+00  0.2248121E+00 -0.1747152E+01  0.3944169E-01  0.2213252E+00
 -0.4209510E+01 -0.1016270E+02  0.0000000E+00  0.2613690E+00 -0.1700795E+01  0.3388191E-01  0.2591636E+00
 -0.3193130E+01 -0.1052630E+02  0.0000000E+00  0.2973235E+00 -0.1673925E+01  0.3060837E-01  0.2957438E+00
 -0.2145990E+01 -0.1078860E+02  0.0000000E+00  0.3323793E+00 -0.1659278E+01  0.2937122E-01  0.3310790E+00
 -0.1078190E+01 -0.1094700E+02  0.0000000E+00  0.3657705E+00 -0.1652764E+01  0.2994767E-01  0.3645425E+00
  0.1311740E-06 -0.1100000E+02  0.0000000E+00  0.3970625E+00 -0.1651342E+01  0.3194706E-01  0.3957752E+00
  0.1078190E+01 -0.1094700E+02  0.0000000E+00  0.4255206E+00 -0.1653590E+01  0.3519000E-01  0.4240630E+00
  0.2145990E+01 -0.1078860E+02  0.0000000E+00  0.4516383E+00 -0.1658064E+01  0.3936352E-01  0.4499196E+00
  0.3193140E+01 -0.1052630E+02  0.0000000E+00  0.4749573E+00 -0.1663630E+01  0.4402879E-01  0.4729122E+00
  0.4209520E+01 -0.1016270E+02  0.0000000E+00  0.4953960E+00 -0.1669384E+01  0.4876085E-01  0.4929904E+00
  0.5185360E+01 -0.9701130E+01  0.0000000E+00  0.5120775E+00 -0.1674972E+01  0.5324966E-01  0.5093013E+00
  0.6111270E+01 -0.9146160E+01  0.0000000E+00  0.5258571E+00 -0.1680073E+01  0.5734953E-01  0.5227205E+00
  0.6978330E+01 -0.8503110E+01  0.0000000E+00  0.5364251E+00 -0.1684192E+01  0.6069822E-01  0.5329800E+00
  0.7778180E+01 -0.7778170E+01  0.0000000E+00  0.5438967E+00 -0.1687087E+01  0.6310779E-01  0.5402231E+00
  0.8503120E+01 -0.6978320E+01  0.0000000E+00  0.5472697E+00 -0.1688590E+01  0.6431568E-01  0.5434774E+00
  0.9146170E+01 -0.6111270E+01  0.0000000E+00  0.5475532E+00 -0.1688739E+01  0.6443036E-01  0.5437492E+00
  0.9701130E+01 -0.5185360E+01  0.0000000E+00  0.5445401E+00 -0.1687441E+01  0.6337386E-01  0.5408398E+00
  0.1016270E+02 -0.4209520E+01  0.0000000E+00  0.5384554E+00 -0.1684867E+01  0.6128905E-01  0.5349560E+00
  0.1052630E+02 -0.3193130E+01  0.0000000E+00  0.5283110E+00 -0.1681029E+01  0.5811915E-01  0.5251045E+00
  0.1078860E+02 -0.2145990E+01  0.0000000E+00  0.5150850E+00 -0.1676113E+01  0.5414691E-01  0.5122311E+00
  0.1094700E+02 -0.1078180E+01  0.0000000E+00  0.4986961E+00 -0.1670469E+01  0.4962388E-01  0.4962210E+00
  0.1100000E+02  0.0000000E+00 -0.2568960E-01  0.4788263E+00 -0.1664706E+01  0.4490031E-01  0.4767165E+00
  0.1094700E+02  0.1078190E+01 -0.2568960E-01  0.4560281E+00 -0.1659211E+01  0.4026727E-01  0.4542468E+00
  0.1078860E+02  0.2145990E+01 -0.2568960E-01  0.4304362E+00 -0.1654468E+01  0.3597349E-01  0.4289303E+00
  0.1052630E+02  0.3193130E+01 -0.2568960E-01  0.4021879E+00 -0.1651590E+01  0.3245872E-01  0.4008760E+00
  0.1016270E+02  0.4209520E+01 -0.2568960E-01  0.3717731E+00 -0.1651964E+01  0.3014289E-01  0.3705491E+00
  0.9701130E+01  0.5185360E+01 -0.2568960E-01  0.3388560E+00 -0.1657489E+01  0.2933968E-01  0.3375835E+00
  0.9146170E+01  0.6111270E+01 -0.2568960E-01  0.3041169E+00 -0.1670248E+01  0.3019505E-01  0.3026142E+00
  0.8503110E+01  0.6978330E+01 -0.2568960E-01  0.2681152E+00 -0.1694379E+01  0.3305011E-01  0.2660704E+00
  0.7778170E+01  0.7778170E+01 -0.2568960E-01  0.2317382E+00 -0.1735764E+01  0.3805604E-01  0.2285921E+00
  0.6978330E+01  0.8503110E+01 -0.2568960E-01  0.1956261E+00 -0.1805011E+01  0.4540066E-01  0.1902849E+00
  0.6111270E+01  0.9146170E+01 -0.2568960E-01  0.1612024E+00 -0.1918732E+01  0.5496328E-01  0.1515429E+00
  0.5185360E+01  0.9701130E+01 -0.2568960E-01  0.1312327E+00 -0.2104061E+01  0.6671184E-01  0.1130113E+00
  0.4209520E+01  0.1016270E+02 -0.2568960E-01  0.1101397E+00 -0.2388757E+01  0.8037476E-01  0.7530374E-01
  0.3193130E+01  0.1052630E+02 -0.2568960E-01  0.1034220E+00 -0.2755972E+01  0.9582721E-01  0.3890060E-01
  0.2145990E+01  0.1078860E+02 -0.2568960E-01  0.1128068E+00 -0.3108055E+01  0.1127434E+00  0.3782536E-02
  0.1078190E+01  0.1094700E+02 -0.2568960E-01  0.1339504E+00  0.2920050E+01  0.1306766E+00 -0.2943361E-01
 -0.4808250E-06  0.1100000E+02 -0.2568960E-01  0.1608356E+00  0.2756633E+01  0.1490646E+00 -0.6039720E-01
 -0.1078190E+01  0.1094700E+02 -0.2568960E-01  0.1893881E+00  0.2655835E+01  0.1674800E+00 -0.8842126E-01
 -0.2145990E+01  0.1078860E+02 -0.2568960E-01  0.2178290E+00  0.2590817E+01  0.1856162E+00 -0.1140005E+00
 -0.3193130E+01  0.1052630E+02 -0.2568960E-01  0.2446205E+00  0.2548535E+01  0.2028480E+00 -0.1367182E+00
 -0.4209520E+01  0.1016270E+02 -0.2568960E-01  0.2688984E+00  0.2520268E+01  0.2186435E+00 -0.1565291E+00
 -0.5185370E+01  0.9701130E+01 -0.2568960E-01  0.2895390E+00  0.2502800E+01  0.2324466E+00 -0.1726309E+00
 -0.6111270E+01  0.9146160E+01 -0.2568960E-01  0.3068826E+00  0.2491029E+01  0.2441995E+00 -0.1858590E+00
 -0.6978330E+01  0.8503120E+01 -0.2568960E-01  0.3203461E+00  0.2483362E+01  0.2534181E+00 -0.1959614E+00
 -0.7778170E+01  0.7778170E+01 -0.2568960E-01  0.3298216E+00  0.2478289E+01  0.2598870E+00 -0.2030790E+00
 -0.8503120E+01  0.6978330E+01 -0.2568960E-01  0.3343627E+00  0.2476691E+01  0.2631359E+00 -0.2062957E+00
 -0.9146170E+01  0.6111270E+01 -0.2568960E-01  0.3347645E+00  0.2476605E+01  0.2634344E+00 -0.2065662E+00
 -0.9701130E+01  0.5185360E+01 -0.2568960E-01  0.3308133E+00  0.2478248E+01  0.2606601E+00 -0.2037002E+00
 -0.1016270E+02  0.4209520E+01 -0.2568960E-01  0.3227938E+00  0.2481658E+01  0.2550175E+00 -0.1978936E+00
 -0.1052630E+02  0.3193130E+01 -0.2568960E-01  0.3099772E+00  0.2489115E+01  0.2463022E+00 -0.1882049E+00
 -0.1078860E+02  0.2145990E+01 -0.2568960E-01  0.2933249E+00  0.2500110E+01  0.2350148E+00 -0.1755209E+00
 -0.1094700E+02  0.1078190E+01 -0.2568960E-01  0.2730452E+00  0.2516717E+01  0.2214494E+00 -0.1597304E+00
 -0.1100000E+02 -0.9616510E-06 -0.2568960E-01  0.2498118E+00  0.2541330E+01  0.2061415E+00 -0.1411084E+00
 -0.1094700E+02 -0.1078190E+01 -0.2568960E-01  0.2234507E+00  0.2580674E+01  0.1892107E+00 -0.1188677E+00
 -0.1078860E+02 -0.2146000E+01 -0.2568960E-01  0.1952142E+00  0.2640411E+01  0.1712059E+00 -0.9379314E-01
 -0.1052630E+02 -0.3193130E+01 -0.2568960E-01  0.1663359E+00  0.2733705E+01  0.1526898E+00 -0.6598064E-01
 -0.1016270E+02 -0.4209520E+01 -0.2568960E-01  0.1389938E+00  0.2880412E+01  0.1342800E+00 -0.3589121E-01
 -0.9701130E+01 -0.5185360E+01 -0.2568960E-01  0.1163492E+00  0.3114759E+01  0.1163073E+00 -0.3121731E-02
 -0.9146160E+01 -0.6111270E+01 -0.2568960E-01  0.1040854E+00 -0.2832390E+01  0.9914929E-01  0.3167314E-01
 -0.8503110E+01 -0.6978330E+01 -0.2568960E-01  0.1076049E+00 -0.2456630E+01  0.8333377E-01  0.6807562E-01
 -0.7778170E+01 -0.7778180E+01 -0.2568960E-01  0.1261440E+00 -0.2151784E+01  0.6923410E-01  0.1054465E+00
 -0.6978330E+01 -0.8503110E+01 -0.2568960E-01  0.1546583E+00 -0.1949310E+01  0.5715238E-01  0.1437108E+00
 -0.6111270E+01 -0.9146170E+01 -0.2568960E-01  0.1884413E+00 -0.1823651E+01  0.4714215E-01  0.1824493E+00
 -0.5185360E+01 -0.9701130E+01 -0.2568960E-01  0.2245057E+00 -0.1747173E+01  0.3939267E-01  0.2210227E+00
 -0.4209510E+01 -0.1016270E+02 -0.2568960E-01  0.2610137E+00 -0.1700840E+01  0.3384748E-01  0.2588097E+00
 -0.3193130E+01 -0.1052630E+02 -0.2568960E-01  0.2969327E+00 -0.1673944E+01  0.3057365E-01  0.2953545E+00
 -0.2145990E+01 -0.1078860E+02 -0.2568960E-01  0.3319421E+00 -0.1659293E+01  0.2933735E-01  0.3306431E+00
 -0.1078190E+01 -0.1094700E+02 -0.2568960E-01  0.3652852E+00 -0.1652779E+01  0.2991365E-01  0.3640583E+00
  0.1311740E-06 -0.1100000E+02 -0.2568960E-01  0.3965220E+00 -0.1651374E+01  0.3191639E-01  0.3952354E+00
  0.1078190E+01 -0.1094700E+02 -0.2568960E-01  0.4249645E+00 -0.1653616E+01  0.3515519E-01  0.4235079E+00
  0.2145990E+01 -0.1078860E+02 -0.2568960E-01  0.4510505E+00 -0.1658089E+01  0.3932334E-01  0.4493330E+00
  0.3193140E+01 -0.1052630E+02 -0.2568960E-01  0.4743325E+00 -0.1663654E+01  0.4398204E-01  0.4722891E+00
  0.4209520E+01 -0.1016270E+02 -0.2568960E-01  0.4947208E+00 -0.1669412E+01  0.4870812E-01  0.4923172E+00
  0.5185360E+01 -0.9701130E+01 -0.2568960E-01  0.5114086E+00 -0.1675005E+01  0.5319658E-01  0.5086343E+00
  0.6111270E+01 -0.9146160E+01 -0.2568960E-01  0.5251740E+00 -0.1680104E+01  0.5729156E-01  0.5220397E+00
  0.6978330E+01 -0.8503110E+01 -0.2568960E-01  0.5357223E+00 -0.1684223E+01  0.6063481E-01  0.5322798E+00
  0.7778180E+01 -0.7778170E+01 -0.2568960E-01  0.5431552E+00 -0.1687113E+01  0.6303580E-01  0.5394850E+00
  0.8503120E+01 -0.6978320E+01 -0.2568960E-01  0.5465536E+00 -0.1688622E+01  0.6424940E-01  0.5427641E+00
  0.9146170E+01 -0.6111270E+01 -0.2568960E-01  0.5468418E+00 -0.1688774E+01  0.6436547E-01  0.5430406E+00
  0.9701130E+01 -0.5185360E+01 -0.2568960E-01  0.5438280E+00 -0.1687474E+01  0.6330880E-01  0.5401304E+00
  0.1016270E+02 -0.4209520E+01 -0.2568960E-01  0.5377217E+00 -0.1684894E+01  0.6121965E-01  0.5342254E+00
  0.1052630E+02 -0.3193130E+01 -0.2568960E-01  0.5276185E+00 -0.1681058E+01  0.5805835E-01  0.5244144E+00
  0.1078860E+02 -0.2145990E+01 -0.2568960E-01  0.5144160E+00 -0.1676144E+01  0.5409241E-01  0.5115641E+00
  0.1094700E+02 -0.1078180E+01 -0.2568960E-01  0.4980448E+00 -0.1670500E+01  0.4957462E-01  0.4955713E+00
  0.1100000E+02  0.0000000E+00 -0.1027320E+00  0.4768935E+00 -0.1664779E+01  0.4475369E-01  0.4747890E+00
  0.1094700E+02  0.1078190E+01 -0.1027320E+00  0.4542523E+00 -0.1659261E+01  0.4013298E-01  0.4524760E+00
  0.1078860E+02  0.2145990E+01 -0.1027320E+00  0.4287803E+00 -0.1654511E+01  0.3585320E-01  0.4272787E+00
  0.1052630E+02  0.3193130E+01 -0.1027320E+00  0.4006290E+00 -0.1651634E+01  0.3235085E-01  0.3993207E+00
  0.1016270E+02  0.4209520E+01 -0.1027320E+00  0.3702700E+00 -0.1652028E+01  0.3004462E-01  0.3690491E+00
  0.9701130E+01  0.5185360E+01 -0.1027320E+00  0.3375182E+00 -0.1657488E+01  0.2922352E-01  0.3362506E+00
  0.9146170E+01  0.6111270E+01 -0.1027320E+00  0.3029263E+00 -0.1670223E+01  0.3006925E-01  0.3014302E+00
  0.8503110E+01  0.6978330E+01 -0.1027320E+00  0.2670608E+00 -0.1694360E+01  0.3291515E-01  0.2650247E+00
  0.7778170E+01  0.7778170E+01 -0.1027320E+00  0.2307971E+00 -0.1735835E+01  0.3791780E-01  0.2276611E+00
  0.6978330E+01  0.8503110E+01 -0.1027320E+00  0.1948195E+00 -0.1804997E+01  0.4521095E-01  0.1895009E+00
  0.6111270E+01  0.9146170E+01 -0.1027320E+00  0.1605306E+00 -0.1918704E+01  0.5472990E-01  0.1509130E+00
  0.5185360E+01  0.9701130E+01 -0.1027320E+00  0.1306842E+00 -0.2104087E+01  0.6643588E-01  0.1125373E+00
  0.4209520E+01  0.1016270E+02 -0.1027320E+00  0.1096964E+00 -0.2388947E+01  0.8006559E-01  0.7498541E-01
  0.3193130E+01  0.1052630E+02 -0.1027320E+00  0.1029909E+00 -0.2756551E+01  0.9545015E-01  0.3868316E-01
  0.2145990E+01  0.1078860E+02 -0.1027320E+00  0.1123589E+00 -0.3108701E+01  0.1122981E+00  0.3695055E-02
  0.1078190E+01  0.1094700E+02 -0.1027320E+00  0.1334358E+00  0.2919622E+01  0.1301620E+00 -0.2937617E-01
 -0.4808250E-06  0.1100000E+02 -0.1027320E+00  0.1602147E+00  0.2756584E+01  0.1484862E+00 -0.6017141E-01
 -0.1078190E+01  0.1094700E+02 -0.1027320E+00  0.1887028E+00  0.2655507E+01  0.1668450E+00 -0.8815594E-01
 -0.2145990E+01  0.1078860E+02 -0.1027320E+00  0.2170477E+00  0.2590499E+01  0.1849143E+00 -0.1136503E+00
 -0.3193130E+01  0.1052630E+02 -0.1027320E+00  0.2437220E+00  0.2548331E+01  0.2020752E+00 -0.1362571E+00
 -0.4209520E+01  0.1016270E+02 -0.1027320E+00  0.2678504E+00  0.2520286E+01  0.2177942E+00 -0.1559152E+00
 -0.5185370E+01  0.9701130E+01 -0.1027320E+00  0.2884905E+00  0.2502651E+01  0.2315792E+00 -0.1720402E+00
 -0.6111270E+01  0.9146160E+01 -0.1027320E+00  0.3057861E+00  0.2490856E+01  0.2432950E+00 -0.1852368E+00
 -0.6978330E+01  0.8503120E+01 -0.1027320E+00  0.3191751E+00  0.2483244E+01  0.2524686E+00 -0.1952751E+00
 -0.7778170E+01  0.7778170E+01 -0.1027320E+00  0.3285317E+00  0.2478325E+01  0.2588779E+00 -0.2022754E+00
 -0.8503120E+01  0.6978330E+01 -0.1027320E+00  0.3331447E+00  0.2476586E+01  0.2621557E+00 -0.2055718E+00
 -0.9146170E+01  0.6111270E+01 -0.1027320E+00  0.3335668E+00  0.2476463E+01  0.2624626E+00 -0.2058646E+00
 -0.9701130E+01  0.5185360E+01 -0.1027320E+00  0.3296095E+00  0.2478140E+01  0.2596897E+00 -0.2029870E+00
 -0.1016270E+02  0.4209520E+01 -0.1027320E+00  0.3215317E+00  0.2481692E+01  0.2540271E+00 -0.1971114E+00
 -0.1052630E+02  0.3193130E+01 -0.1027320E+00  0.3088440E+00  0.2488987E+01  0.2453778E+00 -0.1875482E+00
 -0.1078860E+02  0.2145990E+01 -0.1027320E+00  0.2922767E+00  0.2499919E+01  0.2341414E+00 -0.1749384E+00
 -0.1094700E+02  0.1078190E+01 -0.1027320E+00  0.2720571E+00  0.2516547E+01  0.2206209E+00 -0.1591900E+00
 -0.1100000E+02 -0.9616510E-06 -0.1027320E+00  0.2488398E+00  0.2541342E+01  0.2053411E+00 -0.1405569E+00
 -0.1094700E+02 -0.1078190E+01 -0.1027320E+00  0.2226276E+00  0.2580440E+01  0.1884859E+00 -0.1184741E+00
 -0.1078860E+02 -0.2146000E+01 -0.1027320E+00  0.1945109E+00  0.2640040E+01  0.1705544E+00 -0.9351846E-01
 -0.1052630E+02 -0.3193130E+01 -0.1027320E+00  0.1657305E+00  0.2733307E+01  0.1521079E+00 -0.6580108E-01
 -0.1016270E+02 -0.4209520E+01 -0.1027320E+00  0.1384584E+00  0.2880329E+01  0.1337597E+00 -0.3576404E-01
 -0.9701130E+01 -0.5185360E+01 -0.1027320E+00  0.1158884E+00  0.3114299E+01  0.1158452E+00 -0.3162578E-02
 -0.9146160E+01 -0.6111270E+01 -0.1027320E+00  0.1036497E+00 -0.2832973E+01  0.9875260E-01  0.3148300E-01
 -0.8503110E+01 -0.6978330E+01 -0.1027320E+00  0.1071408E+00 -0.2457034E+01  0.8300183E-01  0.6774844E-01
 -0.7778170E+01 -0.7778180E+01 -0.1027320E+00  0.1256320E+00 -0.2151941E+01  0.6896958E-01  0.1050076E+00
 -0.6978330E+01 -0.8503110E+01 -0.1027320E+00  0.1540236E+00 -0.1949283E+01  0.5691396E-01  0.1431226E+00
 -0.6111270E+01 -0.9146170E+01 -0.1027320E+00  0.1876713E+00 -0.1823597E+01  0.4693972E-01  0.1817063E+00
 -0.5185360E+01 -0.9701130E+01 -0.1027320E+00  0.2235920E+00 -0.1747149E+01  0.3922693E-01  0.2201241E+00
 -0.4209510E+01 -0.1016270E+02 -0.1027320E+00  0.2599550E+00 -0.1700906E+01  0.3372724E-01  0.2577578E+00
 -0.3193130E+01 -0.1052630E+02 -0.1027320E+00  0.2957706E+00 -0.1673940E+01  0.3045278E-01  0.2941987E+00
 -0.2145990E+01 -0.1078860E+02 -0.1027320E+00  0.3306498E+00 -0.1659282E+01  0.2921968E-01  0.3293562E+00
 -0.1078190E+01 -0.1094700E+02 -0.1027320E+00  0.3638484E+00 -0.1652789E+01  0.2979950E-01  0.3626261E+00
  0.1311740E-06 -0.1100000E+02 -0.1027320E+00  0.3949202E+00 -0.1651439E+01  0.3181306E-01  0.3936368E+00
  0.1078190E+01 -0.1094700E+02 -0.1027320E+00  0.4233190E+00 -0.1653672E+01  0.3504248E-01  0.4218661E+00
  0.2145990E+01 -0.1078860E+02 -0.1027320E+00  0.4493171E+00 -0.1658143E+01  0.3919637E-01  0.4476042E+00
  0.3193140E+01 -0.1052630E+02 -0.1027320E+00  0.4724882E+00 -0.1663712E+01  0.4383862E-01  0.4704501E+00
  0.4209520E+01 -0.1016270E+02 -0.1027320E+00  0.4927242E+00 -0.1669487E+01  0.4854831E-01  0.4903267E+00
  0.5185360E+01 -0.9701130E+01 -0.1027320E+00  0.5094317E+00 -0.1675096E+01  0.5303720E-01  0.5066633E+00
  0.6111270E+01 -0.9146160E+01 -0.1027320E+00  0.5231643E+00 -0.1680199E+01  0.5712141E-01  0.5200366E+00
  0.6978330E+01 -0.8503110E+01 -0.1027320E+00  0.5336473E+00 -0.1684314E+01  0.6044852E-01  0.5302126E+00
  0.7778180E+01 -0.7778170E+01 -0.1027320E+00  0.5409629E+00 -0.1687195E+01  0.6282504E-01  0.5373024E+00
  0.8503120E+01 -0.6978320E+01 -0.1027320E+00  0.5444398E+00 -0.1688724E+01  0.6405572E-01  0.5406584E+00
  0.9146170E+01 -0.6111270E+01 -0.1027320E+00  0.5447508E+00 -0.1688880E+01  0.6417659E-01  0.5409573E+00
