 VARIABLES="X" "Y" "Z" "abs(eta) (m)" "angle(phi) (rad)" "PRE1" "PRE2"
ZONE N=   3200 ,E =    3136 ,F=FEPOINT,ET=QUADRILATERAL
  0.1010000E+02  0.0000000E+00  0.0000000E+00  0.2134651E+00 -0.1735350E+01  0.3496811E-01  0.2105816E+00
  0.1005140E+02  0.9899730E+00  0.0000000E+00  0.1698713E+00 -0.1889125E+01  0.5316621E-01  0.1613370E+00
  0.9905930E+01  0.1970410E+01  0.0000000E+00  0.1350798E+00 -0.2161606E+01  0.7524401E-01  0.1121824E+00
  0.9665100E+01  0.2931880E+01  0.0000000E+00  0.1193308E+00 -0.2570751E+01  0.1004105E+00  0.6447926E-01
  0.9331180E+01  0.3865100E+01  0.0000000E+00  0.1294355E+00 -0.2989365E+01  0.1279387E+00  0.1962765E-01
  0.8907400E+01  0.4761110E+01  0.0000000E+00  0.1590360E+00  0.2997040E+01  0.1573773E+00 -0.2290903E-01
  0.8397840E+01  0.5611260E+01  0.0000000E+00  0.1987549E+00  0.2820250E+01  0.1885810E+00 -0.6277495E-01
  0.7807410E+01  0.6407370E+01  0.0000000E+00  0.2414696E+00  0.2718273E+01  0.2201551E+00 -0.9919316E-01
  0.7141780E+01  0.7141780E+01  0.0000000E+00  0.2830589E+00  0.2659240E+01  0.2507637E+00 -0.1313009E+00
  0.6407370E+01  0.7807410E+01  0.0000000E+00  0.3227170E+00  0.2622732E+01  0.2802424E+00 -0.1600326E+00
  0.5611260E+01  0.8397840E+01  0.0000000E+00  0.3592991E+00  0.2601041E+01  0.3080719E+00 -0.1848987E+00
  0.4761110E+01  0.8907410E+01  0.0000000E+00  0.3915145E+00  0.2588125E+01  0.3330641E+00 -0.2057959E+00
  0.3865100E+01  0.9331180E+01  0.0000000E+00  0.4180216E+00  0.2580763E+01  0.3539866E+00 -0.2223411E+00
  0.2931870E+01  0.9665100E+01  0.0000000E+00  0.4395813E+00  0.2576012E+01  0.3711286E+00 -0.2355743E+00
  0.1970410E+01  0.9905930E+01  0.0000000E+00  0.4552619E+00  0.2573704E+01  0.3838033E+00 -0.2448640E+00
  0.9899730E+00  0.1005140E+02  0.0000000E+00  0.4648062E+00  0.2572711E+01  0.3916011E+00 -0.2503866E+00
 -0.4414850E-06  0.1010000E+02  0.0000000E+00  0.4676704E+00  0.2572668E+01  0.3940032E+00 -0.2519466E+00
 -0.9899740E+00  0.1005140E+02  0.0000000E+00  0.4648063E+00  0.2572712E+01  0.3916013E+00 -0.2503863E+00
 -0.1970410E+01  0.9905930E+01  0.0000000E+00  0.4552613E+00  0.2573704E+01  0.3838027E+00 -0.2448638E+00
 -0.2931880E+01  0.9665100E+01  0.0000000E+00  0.4395805E+00  0.2576012E+01  0.3711280E+00 -0.2355738E+00
 -0.3865100E+01  0.9331180E+01  0.0000000E+00  0.4180217E+00  0.2580763E+01  0.3539867E+00 -0.2223412E+00
 -0.4761110E+01  0.8907400E+01  0.0000000E+00  0.3915137E+00  0.2588124E+01  0.3330631E+00 -0.2057959E+00
 -0.5611260E+01  0.8397840E+01  0.0000000E+00  0.3592982E+00  0.2601039E+01  0.3080709E+00 -0.1848987E+00
 -0.6407370E+01  0.7807410E+01  0.0000000E+00  0.3227164E+00  0.2622731E+01  0.2802419E+00 -0.1600325E+00
 -0.7141780E+01  0.7141780E+01  0.0000000E+00  0.2830586E+00  0.2659241E+01  0.2507634E+00 -0.1313006E+00
 -0.7807410E+01  0.6407370E+01  0.0000000E+00  0.2414699E+00  0.2718273E+01  0.2201555E+00 -0.9919327E-01
 -0.8397840E+01  0.5611260E+01  0.0000000E+00  0.1987551E+00  0.2820251E+01  0.1885813E+00 -0.6277474E-01
 -0.8907410E+01  0.4761110E+01  0.0000000E+00  0.1590355E+00  0.2997043E+01  0.1573769E+00 -0.2290854E-01
 -0.9331180E+01  0.3865100E+01  0.0000000E+00  0.1294354E+00 -0.2989364E+01  0.1279385E+00  0.1962771E-01
 -0.9665100E+01  0.2931880E+01  0.0000000E+00  0.1193309E+00 -0.2570751E+01  0.1004106E+00  0.6447936E-01
 -0.9905930E+01  0.1970410E+01  0.0000000E+00  0.1350798E+00 -0.2161608E+01  0.7524417E-01  0.1121823E+00
 -0.1005140E+02  0.9899730E+00  0.0000000E+00  0.1698713E+00 -0.1889122E+01  0.5316582E-01  0.1613370E+00
 -0.1010000E+02 -0.8829700E-06  0.0000000E+00  0.2134653E+00 -0.1735351E+01  0.3496834E-01  0.2105817E+00
 -0.1005140E+02 -0.9899740E+00  0.0000000E+00  0.2606767E+00 -0.1649069E+01  0.2038303E-01  0.2598786E+00
 -0.9905930E+01 -0.1970410E+01  0.0000000E+00  0.3093947E+00 -0.1602491E+01  0.9804670E-02  0.3092393E+00
 -0.9665100E+01 -0.2931880E+01  0.0000000E+00  0.3573096E+00 -0.1579035E+01  0.2943871E-02  0.3572975E+00
 -0.9331180E+01 -0.3865100E+01  0.0000000E+00  0.4026298E+00 -0.1569810E+01 -0.3971186E-03  0.4026296E+00
 -0.8907400E+01 -0.4761110E+01  0.0000000E+00  0.4457116E+00 -0.1569310E+01 -0.6625560E-03  0.4457111E+00
 -0.8397840E+01 -0.5611260E+01  0.0000000E+00  0.4862252E+00 -0.1575373E+01  0.2225484E-02  0.4862202E+00
 -0.7807400E+01 -0.6407370E+01  0.0000000E+00  0.5234028E+00 -0.1584714E+01  0.7284443E-02  0.5233521E+00
 -0.7141780E+01 -0.7141780E+01  0.0000000E+00  0.5563668E+00 -0.1595307E+01  0.1363584E-01  0.5561997E+00
 -0.6407370E+01 -0.7807410E+01  0.0000000E+00  0.5860174E+00 -0.1606662E+01  0.2101337E-01  0.5856405E+00
 -0.5611260E+01 -0.8397850E+01  0.0000000E+00  0.6119021E+00 -0.1618503E+01  0.2918073E-01  0.6112059E+00
 -0.4761110E+01 -0.8907410E+01  0.0000000E+00  0.6338521E+00 -0.1629519E+01  0.3720035E-01  0.6327595E+00
 -0.3865100E+01 -0.9331190E+01  0.0000000E+00  0.6513810E+00 -0.1638664E+01  0.4417372E-01  0.6498815E+00
 -0.2931870E+01 -0.9665100E+01  0.0000000E+00  0.6654586E+00 -0.1646273E+01  0.5017878E-01  0.6635640E+00
 -0.1970410E+01 -0.9905930E+01  0.0000000E+00  0.6754239E+00 -0.1652072E+01  0.5483507E-01  0.6731942E+00
 -0.9899710E+00 -0.1005140E+02  0.0000000E+00  0.6813928E+00 -0.1655709E+01  0.5778913E-01  0.6789378E+00
  0.1204410E-06 -0.1010000E+02  0.0000000E+00  0.6831062E+00 -0.1656786E+01  0.5866756E-01  0.6805822E+00
  0.9899760E+00 -0.1005140E+02  0.0000000E+00  0.6813933E+00 -0.1655709E+01  0.5778923E-01  0.6789383E+00
  0.1970410E+01 -0.9905930E+01  0.0000000E+00  0.6754240E+00 -0.1652072E+01  0.5483497E-01  0.6731944E+00
  0.2931880E+01 -0.9665100E+01  0.0000000E+00  0.6654578E+00 -0.1646273E+01  0.5017870E-01  0.6635633E+00
  0.3865100E+01 -0.9331180E+01  0.0000000E+00  0.6513815E+00 -0.1638664E+01  0.4417411E-01  0.6498819E+00
  0.4761110E+01 -0.8907410E+01  0.0000000E+00  0.6338527E+00 -0.1629519E+01  0.3720022E-01  0.6327601E+00
  0.5611260E+01 -0.8397840E+01  0.0000000E+00  0.6119018E+00 -0.1618504E+01  0.2918112E-01  0.6112056E+00
  0.6407370E+01 -0.7807410E+01  0.0000000E+00  0.5860178E+00 -0.1606662E+01  0.2101364E-01  0.5856409E+00
  0.7141780E+01 -0.7141780E+01  0.0000000E+00  0.5563666E+00 -0.1595307E+01  0.1363559E-01  0.5561994E+00
  0.7807410E+01 -0.6407370E+01  0.0000000E+00  0.5234020E+00 -0.1584714E+01  0.7284500E-02  0.5233513E+00
  0.8397840E+01 -0.5611260E+01  0.0000000E+00  0.4862252E+00 -0.1575373E+01  0.2225341E-02  0.4862201E+00
  0.8907410E+01 -0.4761110E+01  0.0000000E+00  0.4457113E+00 -0.1569310E+01 -0.6623614E-03  0.4457108E+00
  0.9331180E+01 -0.3865100E+01  0.0000000E+00  0.4026298E+00 -0.1569810E+01 -0.3970457E-03  0.4026296E+00
  0.9665100E+01 -0.2931870E+01  0.0000000E+00  0.3573100E+00 -0.1579037E+01  0.2944306E-02  0.3572978E+00
  0.9905930E+01 -0.1970410E+01  0.0000000E+00  0.3093945E+00 -0.1602491E+01  0.9804500E-02  0.3092391E+00
  0.1005140E+02 -0.9899690E+00  0.0000000E+00  0.2606764E+00 -0.1649070E+01  0.2038333E-01  0.2598783E+00
  0.1010000E+02  0.0000000E+00 -0.2568960E-01  0.2131112E+00 -0.1735350E+01  0.3491028E-01  0.2102324E+00
  0.1005140E+02  0.9899730E+00 -0.2568960E-01  0.1695769E+00 -0.1889127E+01  0.5307442E-01  0.1610572E+00
  0.9905930E+01  0.1970410E+01 -0.2568960E-01  0.1348666E+00 -0.2161726E+01  0.7513858E-01  0.1119963E+00
  0.9665100E+01  0.2931880E+01 -0.2568960E-01  0.1191196E+00 -0.2571005E+01  0.1002491E+00  0.6433965E-01
  0.9331180E+01  0.3865100E+01 -0.2568960E-01  0.1292296E+00 -0.2989643E+01  0.1277406E+00  0.1956088E-01
  0.8907400E+01  0.4761110E+01 -0.2568960E-01  0.1587976E+00  0.2996728E+01  0.1571342E+00 -0.2292379E-01
  0.8397840E+01  0.5611260E+01 -0.2568960E-01  0.1984473E+00  0.2820269E+01  0.1882904E+00 -0.6267425E-01
  0.7807410E+01  0.6407370E+01 -0.2568960E-01  0.2411267E+00  0.2718074E+01  0.2198228E+00 -0.9909607E-01
  0.7141780E+01  0.7141780E+01 -0.2568960E-01  0.2826492E+00  0.2659115E+01  0.2503842E+00 -0.1311424E+00
  0.6407370E+01  0.7807410E+01 -0.2568960E-01  0.3222633E+00  0.2622593E+01  0.2798264E+00 -0.1598463E+00
  0.5611260E+01  0.8397840E+01 -0.2568960E-01  0.3587266E+00  0.2601061E+01  0.3075849E+00 -0.1845978E+00
  0.4761110E+01  0.8907410E+01 -0.2568960E-01  0.3909629E+00  0.2588020E+01  0.3325732E+00 -0.2055408E+00
  0.3865100E+01  0.9331180E+01 -0.2568960E-01  0.4174159E+00  0.2580690E+01  0.3534575E+00 -0.2220447E+00
  0.2931870E+01  0.9665100E+01 -0.2568960E-01  0.4389615E+00  0.2575925E+01  0.3705850E+00 -0.2352743E+00
  0.1970410E+01  0.9905930E+01 -0.2568960E-01  0.4545300E+00  0.2573722E+01  0.3831908E+00 -0.2444634E+00
  0.9899730E+00  0.1005140E+02 -0.2568960E-01  0.4641507E+00  0.2572633E+01  0.3910292E+00 -0.2500640E+00
 -0.4414850E-06  0.1010000E+02 -0.2568960E-01  0.4669903E+00  0.2572607E+01  0.3934151E+00 -0.2516039E+00
 -0.9899740E+00  0.1005140E+02 -0.2568960E-01  0.4641503E+00  0.2572634E+01  0.3910291E+00 -0.2500635E+00
 -0.1970410E+01  0.9905930E+01 -0.2568960E-01  0.4545298E+00  0.2573723E+01  0.3831907E+00 -0.2444631E+00
 -0.2931880E+01  0.9665100E+01 -0.2568960E-01  0.4389606E+00  0.2575925E+01  0.3705841E+00 -0.2352739E+00
 -0.3865100E+01  0.9331180E+01 -0.2568960E-01  0.4174154E+00  0.2580690E+01  0.3534572E+00 -0.2220443E+00
 -0.4761110E+01  0.8907400E+01 -0.2568960E-01  0.3909624E+00  0.2588020E+01  0.3325728E+00 -0.2055406E+00
 -0.5611260E+01  0.8397840E+01 -0.2568960E-01  0.3587265E+00  0.2601061E+01  0.3075848E+00 -0.1845977E+00
 -0.6407370E+01  0.7807410E+01 -0.2568960E-01  0.3222631E+00  0.2622593E+01  0.2798262E+00 -0.1598461E+00
 -0.7141780E+01  0.7141780E+01 -0.2568960E-01  0.2826493E+00  0.2659116E+01  0.2503845E+00 -0.1311421E+00
 -0.7807410E+01  0.6407370E+01 -0.2568960E-01  0.2411265E+00  0.2718074E+01  0.2198226E+00 -0.9909596E-01
 -0.8397840E+01  0.5611260E+01 -0.2568960E-01  0.1984469E+00  0.2820269E+01  0.1882900E+00 -0.6267409E-01
 -0.8907410E+01  0.4761110E+01 -0.2568960E-01  0.1587977E+00  0.2996731E+01  0.1571344E+00 -0.2292337E-01
 -0.9331180E+01  0.3865100E+01 -0.2568960E-01  0.1292299E+00 -0.2989644E+01  0.1277409E+00  0.1956082E-01
 -0.9665100E+01  0.2931880E+01 -0.2568960E-01  0.1191195E+00 -0.2571003E+01  0.1002489E+00  0.6433985E-01
 -0.9905930E+01  0.1970410E+01 -0.2568960E-01  0.1348666E+00 -0.2161725E+01  0.7513852E-01  0.1119964E+00
 -0.1005140E+02  0.9899730E+00 -0.2568960E-01  0.1695767E+00 -0.1889125E+01  0.5307411E-01  0.1610572E+00
 -0.1010000E+02 -0.8829700E-06 -0.2568960E-01  0.2131114E+00 -0.1735352E+01  0.3491060E-01  0.2102325E+00
 -0.1005140E+02 -0.9899740E+00 -0.2568960E-01  0.2602557E+00 -0.1649037E+01  0.2034171E-01  0.2594596E+00
 -0.9905930E+01 -0.1970410E+01 -0.2568960E-01  0.3088864E+00 -0.1602547E+01  0.9805813E-02  0.3087307E+00
 -0.9665100E+01 -0.2931880E+01 -0.2568960E-01  0.3567496E+00 -0.1579018E+01  0.2932910E-02  0.3567375E+00
 -0.9331180E+01 -0.3865100E+01 -0.2568960E-01  0.4019968E+00 -0.1569814E+01 -0.3947715E-03  0.4019966E+00
 -0.8907400E+01 -0.4761110E+01 -0.2568960E-01  0.4450246E+00 -0.1569310E+01 -0.6612401E-03  0.4450241E+00
 -0.8397840E+01 -0.5611260E+01 -0.2568960E-01  0.4854266E+00 -0.1575406E+01  0.2237485E-02  0.4854214E+00
 -0.7807400E+01 -0.6407370E+01 -0.2568960E-01  0.5226017E+00 -0.1584729E+01  0.7280833E-02  0.5225509E+00
 -0.7141780E+01 -0.7141780E+01 -0.2568960E-01  0.5555043E+00 -0.1595330E+01  0.1362705E-01  0.5553371E+00
 -0.6407370E+01 -0.7807410E+01 -0.2568960E-01  0.5851259E+00 -0.1606690E+01  0.2099806E-01  0.5847490E+00
 -0.5611260E+01 -0.8397850E+01 -0.2568960E-01  0.6108982E+00 -0.1618526E+01  0.2914698E-01  0.6102025E+00
 -0.4761110E+01 -0.8907410E+01 -0.2568960E-01  0.6328889E+00 -0.1629555E+01  0.3716604E-01  0.6317967E+00
 -0.3865100E+01 -0.9331190E+01 -0.2568960E-01  0.6503760E+00 -0.1638698E+01  0.4412802E-01  0.6488773E+00
 -0.2931870E+01 -0.9665100E+01 -0.2568960E-01  0.6644484E+00 -0.1646315E+01  0.5013090E-01  0.6625546E+00
 -0.1970410E+01 -0.9905930E+01 -0.2568960E-01  0.6743156E+00 -0.1652092E+01  0.5475849E-01  0.6720886E+00
 -0.9899710E+00 -0.1005140E+02 -0.2568960E-01  0.6803590E+00 -0.1655754E+01  0.5773221E-01  0.6779051E+00
  0.1204410E-06 -0.1010000E+02 -0.2568960E-01  0.6820530E+00 -0.1656825E+01  0.5860348E-01  0.6795307E+00
  0.9899760E+00 -0.1005140E+02 -0.2568960E-01  0.6803584E+00 -0.1655754E+01  0.5773218E-01  0.6779045E+00
  0.1970410E+01 -0.9905930E+01 -0.2568960E-01  0.6743154E+00 -0.1652092E+01  0.5475828E-01  0.6720884E+00
  0.2931880E+01 -0.9665100E+01 -0.2568960E-01  0.6644483E+00 -0.1646315E+01  0.5013067E-01  0.6625544E+00
  0.3865100E+01 -0.9331180E+01 -0.2568960E-01  0.6503764E+00 -0.1638699E+01  0.4412867E-01  0.6488776E+00
  0.4761110E+01 -0.8907410E+01 -0.2568960E-01  0.6328887E+00 -0.1629555E+01  0.3716632E-01  0.6317965E+00
  0.5611260E+01 -0.8397840E+01 -0.2568960E-01  0.6108977E+00 -0.1618527E+01  0.2914743E-01  0.6102019E+00
  0.6407370E+01 -0.7807410E+01 -0.2568960E-01  0.5851257E+00 -0.1606690E+01  0.2099792E-01  0.5847488E+00
  0.7141780E+01 -0.7141780E+01 -0.2568960E-01  0.5555045E+00 -0.1595330E+01  0.1362732E-01  0.5553373E+00
  0.7807410E+01 -0.6407370E+01 -0.2568960E-01  0.5226011E+00 -0.1584729E+01  0.7280792E-02  0.5225504E+00
  0.8397840E+01 -0.5611260E+01 -0.2568960E-01  0.4854262E+00 -0.1575406E+01  0.2237662E-02  0.4854211E+00
  0.8907410E+01 -0.4761110E+01 -0.2568960E-01  0.4450242E+00 -0.1569310E+01 -0.6614861E-03  0.4450237E+00
  0.9331180E+01 -0.3865100E+01 -0.2568960E-01  0.4019969E+00 -0.1569814E+01 -0.3947063E-03  0.4019967E+00
  0.9665100E+01 -0.2931870E+01 -0.2568960E-01  0.3567489E+00 -0.1579017E+01  0.2932782E-02  0.3567369E+00
  0.9905930E+01 -0.1970410E+01 -0.2568960E-01  0.3088864E+00 -0.1602548E+01  0.9805866E-02  0.3087307E+00
  0.1005140E+02 -0.9899690E+00 -0.2568960E-01  0.2602550E+00 -0.1649038E+01  0.2034210E-01  0.2594588E+00
  0.1010000E+02  0.0000000E+00 -0.1027320E+00  0.2120506E+00 -0.1735169E+01  0.3469866E-01  0.2091924E+00
  0.1005140E+02  0.9899730E+00 -0.1027320E+00  0.1687097E+00 -0.1889115E+01  0.5280115E-01  0.1602342E+00
  0.9905930E+01  0.1970410E+01 -0.1027320E+00  0.1341785E+00 -0.2161882E+01  0.7477276E-01  0.1114133E+00
  0.9665100E+01  0.2931880E+01 -0.1027320E+00  0.1185007E+00 -0.2571459E+01  0.9975731E-01  0.6396016E-01
  0.9331180E+01  0.3865100E+01 -0.1027320E+00  0.1285838E+00 -0.2990609E+01  0.1271209E+00  0.1934037E-01
  0.8907400E+01  0.4761110E+01 -0.1027320E+00  0.1580655E+00  0.2996075E+01  0.1563949E+00 -0.2292018E-01
  0.8397840E+01  0.5611260E+01 -0.1027320E+00  0.1975370E+00  0.2819931E+01  0.1874056E+00 -0.6244998E-01
  0.7807410E+01  0.6407370E+01 -0.1027320E+00  0.2400472E+00  0.2717668E+01  0.2187986E+00 -0.9874126E-01
  0.7141780E+01  0.7141780E+01 -0.1027320E+00  0.2814397E+00  0.2658607E+01  0.2492465E+00 -0.1307076E+00
  0.6407370E+01  0.7807410E+01 -0.1027320E+00  0.3208420E+00  0.2622305E+01  0.2785464E+00 -0.1592216E+00
  0.5611260E+01  0.8397840E+01 -0.1027320E+00  0.3570957E+00  0.2600907E+01  0.3061582E+00 -0.1838056E+00
  0.4761110E+01  0.8907410E+01 -0.1027320E+00  0.3892310E+00  0.2587798E+01  0.3310545E+00 -0.2047038E+00
  0.3865100E+01  0.9331180E+01 -0.1027320E+00  0.4156429E+00  0.2580387E+01  0.3518890E+00 -0.2212083E+00
  0.2931870E+01  0.9665100E+01 -0.1027320E+00  0.4370219E+00  0.2575741E+01  0.3689043E+00 -0.2343026E+00
  0.1970410E+01  0.9905930E+01 -0.1027320E+00  0.4524626E+00  0.2573622E+01  0.3814234E+00 -0.2433898E+00
  0.9899730E+00  0.1005140E+02 -0.1027320E+00  0.4620970E+00  0.2572465E+01  0.3892573E+00 -0.2490230E+00
 -0.4414850E-06  0.1010000E+02 -0.1027320E+00  0.4650081E+00  0.2572354E+01  0.3916816E+00 -0.2506352E+00
 -0.9899740E+00  0.1005140E+02 -0.1027320E+00  0.4620966E+00  0.2572464E+01  0.3892567E+00 -0.2490231E+00
 -0.1970410E+01  0.9905930E+01 -0.1027320E+00  0.4524617E+00  0.2573621E+01  0.3814224E+00 -0.2433898E+00
 -0.2931880E+01  0.9665100E+01 -0.1027320E+00  0.4370210E+00  0.2575742E+01  0.3689039E+00 -0.2343017E+00
 -0.3865100E+01  0.9331180E+01 -0.1027320E+00  0.4156421E+00  0.2580388E+01  0.3518885E+00 -0.2212076E+00
 -0.4761110E+01  0.8907400E+01 -0.1027320E+00  0.3892308E+00  0.2587798E+01  0.3310544E+00 -0.2047036E+00
 -0.5611260E+01  0.8397840E+01 -0.1027320E+00  0.3570950E+00  0.2600908E+01  0.3061576E+00 -0.1838051E+00
 -0.6407370E+01  0.7807410E+01 -0.1027320E+00  0.3208414E+00  0.2622306E+01  0.2785460E+00 -0.1592210E+00
 -0.7141780E+01  0.7141780E+01 -0.1027320E+00  0.2814398E+00  0.2658608E+01  0.2492466E+00 -0.1307075E+00
 -0.7807410E+01  0.6407370E+01 -0.1027320E+00  0.2400468E+00  0.2717667E+01  0.2187982E+00 -0.9874117E-01
 -0.8397840E+01  0.5611260E+01 -0.1027320E+00  0.1975365E+00  0.2819931E+01  0.1874051E+00 -0.6244985E-01
 -0.8907410E+01  0.4761110E+01 -0.1027320E+00  0.1580653E+00  0.2996079E+01  0.1563948E+00 -0.2291961E-01
 -0.9331180E+01  0.3865100E+01 -0.1027320E+00  0.1285835E+00 -0.2990607E+01  0.1271206E+00  0.1934059E-01
 -0.9665100E+01  0.2931880E+01 -0.1027320E+00  0.1185004E+00 -0.2571457E+01  0.9975686E-01  0.6396016E-01
 -0.9905930E+01  0.1970410E+01 -0.1027320E+00  0.1341786E+00 -0.2161882E+01  0.7477272E-01  0.1114134E+00
 -0.1005140E+02  0.9899730E+00 -0.1027320E+00  0.1687100E+00 -0.1889116E+01  0.5280132E-01  0.1602345E+00
 -0.1010000E+02 -0.8829700E-06 -0.1027320E+00  0.2120507E+00 -0.1735170E+01  0.3469878E-01  0.2091925E+00
 -0.1005140E+02 -0.9899740E+00 -0.1027320E+00  0.2589970E+00 -0.1648949E+01  0.2022075E-01  0.2582065E+00
 -0.9905930E+01 -0.1970410E+01 -0.1027320E+00  0.3073958E+00 -0.1602521E+01  0.9750444E-02  0.3072411E+00
 -0.9665100E+01 -0.2931880E+01 -0.1027320E+00  0.3550504E+00 -0.1578964E+01  0.2899852E-02  0.3550385E+00
 -0.9331180E+01 -0.3865100E+01 -0.1027320E+00  0.4001328E+00 -0.1569740E+01 -0.4225859E-03  0.4001326E+00
 -0.8907400E+01 -0.4761110E+01 -0.1027320E+00  0.4429384E+00 -0.1569305E+01 -0.6605908E-03  0.4429379E+00
 -0.8397840E+01 -0.5611260E+01 -0.1027320E+00  0.4831194E+00 -0.1575427E+01  0.2236966E-02  0.4831142E+00
 -0.7807400E+01 -0.6407370E+01 -0.1027320E+00  0.5201589E+00 -0.1584746E+01  0.7255788E-02  0.5201083E+00
 -0.7141780E+01 -0.7141780E+01 -0.1027320E+00  0.5529736E+00 -0.1595362E+01  0.1358298E-01  0.5528067E+00
 -0.6407370E+01 -0.7807410E+01 -0.1027320E+00  0.5824050E+00 -0.1606745E+01  0.2093212E-01  0.5820287E+00
 -0.5611260E+01 -0.8397850E+01 -0.1027320E+00  0.6080077E+00 -0.1618584E+01  0.2904396E-01  0.6073136E+00
 -0.4761110E+01 -0.8907410E+01 -0.1027320E+00  0.6299478E+00 -0.1629622E+01  0.3703561E-01  0.6288581E+00
 -0.3865100E+01 -0.9331190E+01 -0.1027320E+00  0.6474289E+00 -0.1638793E+01  0.4398932E-01  0.6459327E+00
 -0.2931870E+01 -0.9665100E+01 -0.1027320E+00  0.6613665E+00 -0.1646402E+01  0.4995540E-01  0.6594772E+00
 -0.1970410E+01 -0.9905930E+01 -0.1027320E+00  0.6711305E+00 -0.1652168E+01  0.5455050E-01  0.6689098E+00
 -0.9899710E+00 -0.1005140E+02 -0.1027320E+00  0.6772035E+00 -0.1655845E+01  0.5752555E-01  0.6747558E+00
  0.1204410E-06 -0.1010000E+02 -0.1027320E+00  0.6789666E+00 -0.1656941E+01  0.5841677E-01  0.6764489E+00
  0.9899760E+00 -0.1005140E+02 -0.1027320E+00  0.6772026E+00 -0.1655844E+01  0.5752528E-01  0.6747549E+00
  0.1970410E+01 -0.9905930E+01 -0.1027320E+00  0.6711309E+00 -0.1652168E+01  0.5455061E-01  0.6689103E+00
  0.2931880E+01 -0.9665100E+01 -0.1027320E+00  0.6613661E+00 -0.1646402E+01  0.4995565E-01  0.6594768E+00
  0.3865100E+01 -0.9331180E+01 -0.1027320E+00  0.6474293E+00 -0.1638793E+01  0.4398945E-01  0.6459332E+00
  0.4761110E+01 -0.8907410E+01 -0.1027320E+00  0.6299474E+00 -0.1629622E+01  0.3703562E-01  0.6288578E+00
  0.5611260E+01 -0.8397840E+01 -0.1027320E+00  0.6080079E+00 -0.1618584E+01  0.2904418E-01  0.6073138E+00
  0.6407370E+01 -0.7807410E+01 -0.1027320E+00  0.5824049E+00 -0.1606745E+01  0.2093213E-01  0.5820286E+00
  0.7141780E+01 -0.7141780E+01 -0.1027320E+00  0.5529733E+00 -0.1595362E+01  0.1358288E-01  0.5528065E+00
  0.7807410E+01 -0.6407370E+01 -0.1027320E+00  0.5201572E+00 -0.1584746E+01  0.7255862E-02  0.5201066E+00
  0.8397840E+01 -0.5611260E+01 -0.1027320E+00  0.4831198E+00 -0.1575427E+01  0.2236935E-02  0.4831146E+00
