 VARIABLES="X" "Y" "Z" "abs(eta) (m)" "angle(phi) (rad)" "PRE1" "PRE2"
ZONE N=   3200 ,E =    3136 ,F=FEPOINT,ET=QUADRILATERAL
  0.1010000E+02  0.0000000E+00  0.0000000E+00  0.4356416E+00  0.2577096E+01  0.3680554E+00 -0.2330640E+00
  0.1005140E+02  0.9899730E+00  0.0000000E+00  0.4134765E+00  0.2581712E+01  0.3503463E+00 -0.2195912E+00
  0.9905930E+01  0.1970410E+01  0.0000000E+00  0.3852528E+00  0.2590098E+01  0.3281361E+00 -0.2018574E+00
  0.9665100E+01  0.2931880E+01  0.0000000E+00  0.3521193E+00  0.2604482E+01  0.3025376E+00 -0.1801638E+00
  0.9331180E+01  0.3865100E+01  0.0000000E+00  0.3151216E+00  0.2629046E+01  0.2746280E+00 -0.1545351E+00
  0.8907400E+01  0.4761110E+01  0.0000000E+00  0.2752452E+00  0.2668207E+01  0.2449764E+00 -0.1254849E+00
  0.8397840E+01  0.5611260E+01  0.0000000E+00  0.2326240E+00  0.2734928E+01  0.2136523E+00 -0.9201409E-01
  0.7807410E+01  0.6407370E+01  0.0000000E+00  0.1901376E+00  0.2848717E+01  0.1820410E+00 -0.5489392E-01
  0.7141780E+01  0.7141780E+01  0.0000000E+00  0.1522661E+00  0.3044677E+01  0.1515516E+00 -0.1473392E-01
  0.6407370E+01  0.7807410E+01  0.0000000E+00  0.1255957E+00 -0.2916190E+01  0.1224186E+00  0.2807054E-01
  0.5611260E+01  0.8397840E+01  0.0000000E+00  0.1205572E+00 -0.2479229E+01  0.9506431E-01  0.7414051E-01
  0.4761110E+01  0.8907410E+01  0.0000000E+00  0.1410025E+00 -0.2093409E+01  0.7038084E-01  0.1221812E+00
  0.3865100E+01  0.9331180E+01  0.0000000E+00  0.1778740E+00 -0.1851874E+01  0.4934062E-01  0.1708937E+00
  0.2931870E+01  0.9665100E+01  0.0000000E+00  0.2224405E+00 -0.1713996E+01  0.3174466E-01  0.2201637E+00
  0.1970410E+01  0.9905930E+01  0.0000000E+00  0.2707063E+00 -0.1637444E+01  0.1802855E-01  0.2701053E+00
  0.9899730E+00  0.1005140E+02  0.0000000E+00  0.3193730E+00 -0.1596171E+01  0.8103026E-02  0.3192702E+00
 -0.4414850E-06  0.1010000E+02  0.0000000E+00  0.3662223E+00 -0.1576158E+01  0.1963411E-02  0.3662170E+00
 -0.9899740E+00  0.1005140E+02  0.0000000E+00  0.4113041E+00 -0.1568786E+01 -0.8268956E-03  0.4113033E+00
 -0.1970410E+01  0.9905930E+01  0.0000000E+00  0.4542556E+00 -0.1570530E+01 -0.1209798E-03  0.4542556E+00
 -0.2931880E+01  0.9665100E+01  0.0000000E+00  0.4941536E+00 -0.1577245E+01  0.3186684E-02  0.4941433E+00
 -0.3865100E+01  0.9331180E+01  0.0000000E+00  0.5299819E+00 -0.1586455E+01  0.8298379E-02  0.5299169E+00
 -0.4761110E+01  0.8907400E+01  0.0000000E+00  0.5626058E+00 -0.1597269E+01  0.1489206E-01  0.5624087E+00
 -0.5611260E+01  0.8397840E+01  0.0000000E+00  0.5916085E+00 -0.1609320E+01  0.2278536E-01  0.5911695E+00
 -0.6407370E+01  0.7807410E+01  0.0000000E+00  0.6167225E+00 -0.1621035E+01  0.3097013E-01  0.6159443E+00
 -0.7141780E+01  0.7141780E+01  0.0000000E+00  0.6374134E+00 -0.1631244E+01  0.3850675E-01  0.6362492E+00
 -0.7807410E+01  0.6407370E+01  0.0000000E+00  0.6546447E+00 -0.1640204E+01  0.4540079E-01  0.6530685E+00
 -0.8397840E+01  0.5611260E+01  0.0000000E+00  0.6678046E+00 -0.1647670E+01  0.5128606E-01  0.6658323E+00
 -0.8907410E+01  0.4761110E+01  0.0000000E+00  0.6769691E+00 -0.1653125E+01  0.5567074E-01  0.6746762E+00
 -0.9331180E+01  0.3865100E+01  0.0000000E+00  0.6818362E+00 -0.1656028E+01  0.5804376E-01  0.6793612E+00
 -0.9665100E+01  0.2931880E+01  0.0000000E+00  0.6832826E+00 -0.1656804E+01  0.5869519E-01  0.6807569E+00
 -0.9905930E+01  0.1970410E+01  0.0000000E+00  0.6804982E+00 -0.1655059E+01  0.5727272E-01  0.6780838E+00
 -0.1005140E+02  0.9899730E+00  0.0000000E+00  0.6737227E+00 -0.1651057E+01  0.5401539E-01  0.6715539E+00
 -0.1010000E+02 -0.8829700E-06  0.0000000E+00  0.6628092E+00 -0.1644989E+01  0.4913041E-01  0.6609858E+00
 -0.1005140E+02 -0.9899740E+00  0.0000000E+00  0.6484430E+00 -0.1637154E+01  0.4299766E-01  0.6470159E+00
 -0.9905930E+01 -0.1970410E+01  0.0000000E+00  0.6296875E+00 -0.1627178E+01  0.3548421E-01  0.6286870E+00
 -0.9665100E+01 -0.2931880E+01  0.0000000E+00  0.6069560E+00 -0.1615969E+01  0.2740839E-01  0.6063368E+00
 -0.9331180E+01 -0.3865100E+01  0.0000000E+00  0.5803502E+00 -0.1604625E+01  0.1962873E-01  0.5800181E+00
 -0.8907400E+01 -0.4761110E+01  0.0000000E+00  0.5503653E+00 -0.1593371E+01  0.1242305E-01  0.5502251E+00
 -0.8397840E+01 -0.5611260E+01  0.0000000E+00  0.5160518E+00 -0.1582407E+01  0.5991355E-02  0.5160170E+00
 -0.7807400E+01 -0.6407370E+01  0.0000000E+00  0.4782095E+00 -0.1573463E+01  0.1275205E-02  0.4782078E+00
 -0.7141780E+01 -0.7141780E+01  0.0000000E+00  0.4374371E+00 -0.1569203E+01 -0.6970862E-03  0.4374365E+00
 -0.6407370E+01 -0.7807410E+01  0.0000000E+00  0.3940701E+00 -0.1570977E+01  0.7115240E-04  0.3940701E+00
 -0.5611260E+01 -0.8397850E+01  0.0000000E+00  0.3475702E+00 -0.1582341E+01  0.4012349E-02  0.3475471E+00
 -0.4761110E+01 -0.8907410E+01  0.0000000E+00  0.2994138E+00 -0.1609235E+01  0.1150630E-01  0.2991926E+00
 -0.3865100E+01 -0.9331190E+01  0.0000000E+00  0.2513723E+00 -0.1662537E+01  0.2302873E-01  0.2503152E+00
 -0.2931870E+01 -0.9665100E+01  0.0000000E+00  0.2045877E+00 -0.1758787E+01  0.3823441E-01  0.2009833E+00
 -0.1970410E+01 -0.9905930E+01  0.0000000E+00  0.1616882E+00 -0.1934089E+01  0.5745655E-01  0.1511351E+00
 -0.9899710E+00 -0.1005140E+02  0.0000000E+00  0.1298561E+00 -0.2235381E+01  0.8008645E-01  0.1022192E+00
  0.1204410E-06 -0.1010000E+02  0.0000000E+00  0.1193664E+00 -0.2656502E+01  0.1055954E+00  0.5565922E-01
  0.9899760E+00 -0.1005140E+02  0.0000000E+00  0.1339674E+00 -0.3059103E+01  0.1335119E+00  0.1103836E-01
  0.1970410E+01 -0.9905930E+01  0.0000000E+00  0.1667474E+00  0.2952559E+01  0.1637770E+00 -0.3133349E-01
  0.2931880E+01 -0.9665100E+01  0.0000000E+00  0.2074305E+00  0.2794554E+01  0.1950644E+00 -0.7055002E-01
  0.3865100E+01 -0.9331180E+01  0.0000000E+00  0.2495378E+00  0.2704626E+01  0.2260911E+00 -0.1056026E+00
  0.4761110E+01 -0.8907410E+01  0.0000000E+00  0.2910820E+00  0.2650064E+01  0.2566215E+00 -0.1373832E+00
  0.5611260E+01 -0.8397840E+01  0.0000000E+00  0.3305658E+00  0.2617511E+01  0.2861986E+00 -0.1654211E+00
  0.6407370E+01 -0.7807410E+01  0.0000000E+00  0.3663385E+00  0.2597947E+01  0.3135230E+00 -0.1894919E+00
  0.7141780E+01 -0.7141780E+01  0.0000000E+00  0.3968820E+00  0.2586533E+01  0.3372978E+00 -0.2091543E+00
  0.7807410E+01 -0.6407370E+01  0.0000000E+00  0.4228289E+00  0.2579242E+01  0.3577149E+00 -0.2254425E+00
  0.8397840E+01 -0.5611260E+01  0.0000000E+00  0.4432707E+00  0.2575435E+01  0.3741063E+00 -0.2377674E+00
  0.8907410E+01 -0.4761110E+01  0.0000000E+00  0.4577786E+00  0.2573534E+01  0.3858830E+00 -0.2462835E+00
  0.9331180E+01 -0.3865100E+01  0.0000000E+00  0.4656408E+00  0.2572874E+01  0.3923450E+00 -0.2507723E+00
  0.9665100E+01 -0.2931870E+01  0.0000000E+00  0.4678136E+00  0.2572377E+01  0.3940506E+00 -0.2521382E+00
  0.9905930E+01 -0.1970410E+01  0.0000000E+00  0.4633221E+00  0.2572748E+01  0.3903600E+00 -0.2495724E+00
  0.1005140E+02 -0.9899690E+00  0.0000000E+00  0.4525678E+00  0.2574067E+01  0.3816203E+00 -0.2432767E+00
  0.1010000E+02  0.0000000E+00 -0.2568960E-01  0.4350095E+00  0.2577029E+01  0.3675056E+00 -0.2327508E+00
  0.1005140E+02  0.9899730E+00 -0.2568960E-01  0.4128936E+00  0.2581616E+01  0.3498313E+00 -0.2193153E+00
  0.9905930E+01  0.1970410E+01 -0.2568960E-01  0.3846368E+00  0.2590117E+01  0.3276154E+00 -0.2015283E+00
  0.9665100E+01  0.2931880E+01 -0.2568960E-01  0.3516243E+00  0.2604359E+01  0.3020902E+00 -0.1799476E+00
  0.9331180E+01  0.3865100E+01 -0.2568960E-01  0.3146661E+00  0.2628936E+01  0.2742140E+00 -0.1543418E+00
  0.8907400E+01  0.4761110E+01 -0.2568960E-01  0.2748560E+00  0.2668038E+01  0.2446089E+00 -0.1253488E+00
  0.8397840E+01  0.5611260E+01 -0.2568960E-01  0.2322600E+00  0.2734948E+01  0.2133200E+00 -0.9186564E-01
  0.7807410E+01  0.6407370E+01 -0.2568960E-01  0.1898627E+00  0.2848455E+01  0.1817635E+00 -0.5486228E-01
  0.7141780E+01  0.7141780E+01 -0.2568960E-01  0.1520357E+00  0.3044425E+01  0.1513185E+00 -0.1474966E-01
  0.6407370E+01  0.7807410E+01 -0.2568960E-01  0.1253876E+00 -0.2916523E+01  0.1222251E+00  0.2798328E-01
  0.5611260E+01  0.8397840E+01 -0.2568960E-01  0.1203725E+00 -0.2479336E+01  0.9492659E-01  0.7401682E-01
  0.4761110E+01  0.8907410E+01 -0.2568960E-01  0.1407500E+00 -0.2093482E+01  0.7026365E-01  0.1219573E+00
  0.3865100E+01  0.9331180E+01 -0.2568960E-01  0.1775727E+00 -0.1851896E+01  0.4926079E-01  0.1706032E+00
  0.2931870E+01  0.9665100E+01 -0.2568960E-01  0.2220737E+00 -0.1713965E+01  0.3168551E-01  0.2198016E+00
  0.1970410E+01  0.9905930E+01 -0.2568960E-01  0.2702616E+00 -0.1637509E+01  0.1801643E-01  0.2696604E+00
  0.9899730E+00  0.1005140E+02 -0.2568960E-01  0.3188670E+00 -0.1596146E+01  0.8082382E-02  0.3187646E+00
 -0.4414850E-06  0.1010000E+02 -0.2568960E-01  0.3656430E+00 -0.1576158E+01  0.1960451E-02  0.3656377E+00
 -0.9899740E+00  0.1005140E+02 -0.2568960E-01  0.4106675E+00 -0.1568780E+01 -0.8280310E-03  0.4106667E+00
 -0.1970410E+01  0.9905930E+01 -0.2568960E-01  0.4535094E+00 -0.1570566E+01 -0.1045688E-03  0.4535094E+00
 -0.2931880E+01  0.9665100E+01 -0.2568960E-01  0.4933947E+00 -0.1577253E+01  0.3185900E-02  0.4933844E+00
 -0.3865100E+01  0.9331180E+01 -0.2568960E-01  0.5291595E+00 -0.1586474E+01  0.8295869E-02  0.5290945E+00
 -0.4761110E+01  0.8907400E+01 -0.2568960E-01  0.5617487E+00 -0.1597293E+01  0.1488259E-01  0.5615515E+00
 -0.5611260E+01  0.8397840E+01 -0.2568960E-01  0.5906376E+00 -0.1609345E+01  0.2276269E-01  0.5901988E+00
 -0.6407370E+01  0.7807410E+01 -0.2568960E-01  0.6157848E+00 -0.1621067E+01  0.3094304E-01  0.6150069E+00
 -0.7141780E+01  0.7141780E+01 -0.2568960E-01  0.6364295E+00 -0.1631277E+01  0.3846818E-01  0.6352659E+00
 -0.7807410E+01  0.6407370E+01 -0.2568960E-01  0.6536503E+00 -0.1640245E+01  0.4535846E-01  0.6520746E+00
 -0.8397840E+01  0.5611260E+01 -0.2568960E-01  0.6667085E+00 -0.1647690E+01  0.5121531E-01  0.6647384E+00
 -0.8907410E+01  0.4761110E+01 -0.2568960E-01  0.6759425E+00 -0.1653169E+01  0.5561616E-01  0.6736506E+00
 -0.9331180E+01  0.3865100E+01 -0.2568960E-01  0.6807856E+00 -0.1656067E+01  0.5798049E-01  0.6783121E+00
 -0.9665100E+01  0.2931880E+01 -0.2568960E-01  0.6822468E+00 -0.1656850E+01  0.5863735E-01  0.6797222E+00
 -0.9905930E+01  0.1970410E+01 -0.2568960E-01  0.6793823E+00 -0.1655078E+01  0.5719192E-01  0.6769707E+00
 -0.1005140E+02  0.9899730E+00 -0.2568960E-01  0.6727003E+00 -0.1651101E+01  0.5396301E-01  0.6705325E+00
 -0.1010000E+02 -0.8829700E-06 -0.2568960E-01  0.6617864E+00 -0.1645025E+01  0.4907844E-01  0.6599641E+00
 -0.1005140E+02 -0.9899740E+00 -0.2568960E-01  0.6474578E+00 -0.1637193E+01  0.4295730E-01  0.6460312E+00
 -0.9905930E+01 -0.1970410E+01 -0.2568960E-01  0.6286539E+00 -0.1627201E+01  0.3544005E-01  0.6276542E+00
 -0.9665100E+01 -0.2931880E+01 -0.2568960E-01  0.6060329E+00 -0.1616001E+01  0.2738595E-01  0.6054138E+00
 -0.9331180E+01 -0.3865100E+01 -0.2568960E-01  0.5794525E+00 -0.1604650E+01  0.1961311E-01  0.5791205E+00
 -0.8907400E+01 -0.4761110E+01 -0.2568960E-01  0.5495251E+00 -0.1593390E+01  0.1241485E-01  0.5493848E+00
 -0.8397840E+01 -0.5611260E+01 -0.2568960E-01  0.5152049E+00 -0.1582437E+01  0.5997243E-02  0.5151700E+00
 -0.7807400E+01 -0.6407370E+01 -0.2568960E-01  0.4774749E+00 -0.1573470E+01  0.1276570E-02  0.4774732E+00
 -0.7141780E+01 -0.7141780E+01 -0.2568960E-01  0.4367523E+00 -0.1569211E+01 -0.6925939E-03  0.4367518E+00
 -0.6407370E+01 -0.7807410E+01 -0.2568960E-01  0.3934565E+00 -0.1570966E+01  0.6667412E-04  0.3934565E+00
 -0.5611260E+01 -0.8397850E+01 -0.2568960E-01  0.3469989E+00 -0.1582390E+01  0.4022838E-02  0.3469756E+00
 -0.4761110E+01 -0.8907410E+01 -0.2568960E-01  0.2989377E+00 -0.1609209E+01  0.1148007E-01  0.2987172E+00
 -0.3865100E+01 -0.9331190E+01 -0.2568960E-01  0.2509626E+00 -0.1662531E+01  0.2298976E-01  0.2499074E+00
 -0.2931870E+01 -0.9665100E+01 -0.2568960E-01  0.2042440E+00 -0.1758764E+01  0.3816553E-01  0.2006465E+00
 -0.1970410E+01 -0.9905930E+01 -0.2568960E-01  0.1614278E+00 -0.1934198E+01  0.5738037E-01  0.1508854E+00
 -0.9899710E+00 -0.1005140E+02 -0.2568960E-01  0.1296222E+00 -0.2235499E+01  0.7995430E-01  0.1020257E+00
  0.1204410E-06 -0.1010000E+02 -0.2568960E-01  0.1191646E+00 -0.2656748E+01  0.1054305E+00  0.5553915E-01
  0.9899760E+00 -0.1005140E+02 -0.2568960E-01  0.1337541E+00 -0.3059450E+01  0.1333032E+00  0.1097452E-01
  0.1970410E+01 -0.9905930E+01 -0.2568960E-01  0.1664924E+00  0.2952566E+01  0.1635267E+00 -0.3128442E-01
  0.2931880E+01 -0.9665100E+01 -0.2568960E-01  0.2071321E+00  0.2794318E+01  0.1947671E+00 -0.7049454E-01
  0.3865100E+01 -0.9331180E+01 -0.2568960E-01  0.2491764E+00  0.2704480E+01  0.2257483E+00 -0.1054827E+00
  0.4761110E+01 -0.8907410E+01 -0.2568960E-01  0.2906723E+00  0.2649905E+01  0.2562385E+00 -0.1372305E+00
  0.5611260E+01 -0.8397840E+01 -0.2568960E-01  0.3300402E+00  0.2617532E+01  0.2857470E+00 -0.1651520E+00
  0.6407370E+01 -0.7807410E+01 -0.2568960E-01  0.3658222E+00  0.2597831E+01  0.3130592E+00 -0.1892612E+00
  0.7141780E+01 -0.7141780E+01 -0.2568960E-01  0.3963067E+00  0.2586455E+01  0.3367924E+00 -0.2088777E+00
  0.7807410E+01 -0.6407370E+01 -0.2568960E-01  0.4222333E+00  0.2579149E+01  0.3571903E+00 -0.2251579E+00
  0.8397840E+01 -0.5611260E+01 -0.2568960E-01  0.4425591E+00  0.2575453E+01  0.3735100E+00 -0.2373791E+00
  0.8907410E+01 -0.4761110E+01 -0.2568960E-01  0.4571323E+00  0.2573452E+01  0.3853182E+00 -0.2459670E+00
  0.9331180E+01 -0.3865100E+01 -0.2568960E-01  0.4649641E+00  0.2572813E+01  0.3917596E+00 -0.2504316E+00
  0.9665100E+01 -0.2931870E+01 -0.2568960E-01  0.4671531E+00  0.2572299E+01  0.3934746E+00 -0.2518128E+00
  0.9905930E+01 -0.1970410E+01 -0.2568960E-01  0.4625773E+00  0.2572765E+01  0.3897367E+00 -0.2491646E+00
  0.1005140E+02 -0.9899690E+00 -0.2568960E-01  0.4519296E+00  0.2573984E+01  0.3810620E+00 -0.2429652E+00
  0.1010000E+02  0.0000000E+00 -0.1027320E+00  0.4331624E+00  0.2576745E+01  0.3658793E+00 -0.2318663E+00
  0.1005140E+02  0.9899730E+00 -0.1027320E+00  0.4110650E+00  0.2581411E+01  0.3482373E+00 -0.2184152E+00
  0.9905930E+01  0.1970410E+01 -0.1027320E+00  0.3828878E+00  0.2589981E+01  0.3260982E+00 -0.2006565E+00
  0.9665100E+01  0.2931880E+01 -0.1027320E+00  0.3500735E+00  0.2604104E+01  0.3007122E+00 -0.1792307E+00
  0.9331180E+01  0.3865100E+01 -0.1027320E+00  0.3133241E+00  0.2628492E+01  0.2729764E+00 -0.1538047E+00
  0.8907400E+01  0.4761110E+01 -0.1027320E+00  0.2736318E+00  0.2667688E+01  0.2434757E+00 -0.1248757E+00
  0.8397840E+01  0.5611260E+01 -0.1027320E+00  0.2312003E+00  0.2734670E+01  0.2123213E+00 -0.9150564E-01
  0.7807410E+01  0.6407370E+01 -0.1027320E+00  0.1890078E+00  0.2847909E+01  0.1809152E+00 -0.5471403E-01
  0.7141780E+01  0.7141780E+01 -0.1027320E+00  0.1513256E+00  0.3043491E+01  0.1505980E+00 -0.1482156E-01
  0.6407370E+01  0.7807410E+01 -0.1027320E+00  0.1247637E+00 -0.2917159E+01  0.1216346E+00  0.2776670E-01
  0.5611260E+01  0.8397840E+01 -0.1027320E+00  0.1197609E+00 -0.2479673E+01  0.9446910E-01  0.7360891E-01
  0.4761110E+01  0.8907410E+01 -0.1027320E+00  0.1400135E+00 -0.2093616E+01  0.6991234E-01  0.1213097E+00
  0.3865100E+01  0.9331180E+01 -0.1027320E+00  0.1766600E+00 -0.1851755E+01  0.4898365E-01  0.1697332E+00
  0.2931870E+01  0.9665100E+01 -0.1027320E+00  0.2209843E+00 -0.1713872E+01  0.3150977E-01  0.2187263E+00
  0.1970410E+01  0.9905930E+01 -0.1027320E+00  0.2689484E+00 -0.1637477E+01  0.1792034E-01  0.2683507E+00
  0.9899730E+00  0.1005140E+02 -0.1027320E+00  0.3173375E+00 -0.1596077E+01  0.8021683E-02  0.3172360E+00
 -0.4414850E-06  0.1010000E+02 -0.1027320E+00  0.3639355E+00 -0.1576057E+01  0.1914402E-02  0.3639304E+00
 -0.9899740E+00  0.1005140E+02 -0.1027320E+00  0.4087361E+00 -0.1568758E+01 -0.8331559E-03  0.4087353E+00
 -0.1970410E+01  0.9905930E+01 -0.1027320E+00  0.4513507E+00 -0.1570577E+01 -0.9891790E-04  0.4513507E+00
 -0.2931880E+01  0.9665100E+01 -0.1027320E+00  0.4910834E+00 -0.1577258E+01  0.3173130E-02  0.4910731E+00
 -0.3865100E+01  0.9331180E+01 -0.1027320E+00  0.5267436E+00 -0.1586489E+01  0.8265850E-02  0.5266787E+00
 -0.4761110E+01  0.8907400E+01 -0.1027320E+00  0.5591336E+00 -0.1597338E+01  0.1483841E-01  0.5589367E+00
 -0.5611260E+01  0.8397840E+01 -0.1027320E+00  0.5878422E+00 -0.1609396E+01  0.2268492E-01  0.5874044E+00
 -0.6407370E+01  0.7807410E+01 -0.1027320E+00  0.6129206E+00 -0.1621126E+01  0.3083521E-01  0.6121445E+00
 -0.7141780E+01  0.7141780E+01 -0.1027320E+00  0.6335439E+00 -0.1631363E+01  0.3834802E-01  0.6323823E+00
 -0.7807410E+01  0.6407370E+01 -0.1027320E+00  0.6506188E+00 -0.1640327E+01  0.4520158E-01  0.6490467E+00
 -0.8397840E+01  0.5611260E+01 -0.1027320E+00  0.6635587E+00 -0.1647764E+01  0.5102219E-01  0.6615942E+00
 -0.8907410E+01  0.4761110E+01 -0.1027320E+00  0.6728059E+00 -0.1653257E+01  0.5541716E-01  0.6705198E+00
 -0.9331180E+01  0.3865100E+01 -0.1027320E+00  0.6777049E+00 -0.1656181E+01  0.5779547E-01  0.6752360E+00
 -0.9665100E+01  0.2931880E+01 -0.1027320E+00  0.6790825E+00 -0.1656942E+01  0.5842763E-01  0.6765643E+00
 -0.9905930E+01  0.1970410E+01 -0.1027320E+00  0.6761729E+00 -0.1655156E+01  0.5697419E-01  0.6737683E+00
 -0.1005140E+02  0.9899730E+00 -0.1027320E+00  0.6695802E+00 -0.1651191E+01  0.5377266E-01  0.6674175E+00
 -0.1010000E+02 -0.8829700E-06 -0.1027320E+00  0.6587892E+00 -0.1645127E+01  0.4892347E-01  0.6569701E+00
 -0.1005140E+02 -0.9899740E+00 -0.1027320E+00  0.6444501E+00 -0.1637267E+01  0.4280521E-01  0.6430269E+00
 -0.9905930E+01 -0.1970410E+01 -0.1027320E+00  0.6256815E+00 -0.1627263E+01  0.3531159E-01  0.6246843E+00
 -0.9665100E+01 -0.2931880E+01 -0.1027320E+00  0.6032167E+00 -0.1616064E+01  0.2729685E-01  0.6025988E+00
 -0.9331180E+01 -0.3865100E+01 -0.1027320E+00  0.5768164E+00 -0.1604699E+01  0.1955174E-01  0.5764850E+00
 -0.8907400E+01 -0.4761110E+01 -0.1027320E+00  0.5469604E+00 -0.1593419E+01  0.1237290E-01  0.5468204E+00
 -0.8397840E+01 -0.5611260E+01 -0.1027320E+00  0.5127603E+00 -0.1582466E+01  0.5983604E-02  0.5127254E+00
 -0.7807400E+01 -0.6407370E+01 -0.1027320E+00  0.4752428E+00 -0.1573479E+01  0.1274774E-02  0.4752411E+00
 -0.7141780E+01 -0.7141780E+01 -0.1027320E+00  0.4347379E+00 -0.1569161E+01 -0.7107540E-03  0.4347374E+00
 -0.6407370E+01 -0.7807410E+01 -0.1027320E+00  0.3915933E+00 -0.1570927E+01  0.5110103E-04  0.3915933E+00
 -0.5611260E+01 -0.8397850E+01 -0.1027320E+00  0.3453323E+00 -0.1582373E+01  0.3997535E-02  0.3453091E+00
 -0.4761110E+01 -0.8907410E+01 -0.1027320E+00  0.2975071E+00 -0.1609135E+01  0.1140320E-01  0.2972885E+00
 -0.3865100E+01 -0.9331190E+01 -0.1027320E+00  0.2497431E+00 -0.1662355E+01  0.2283419E-01  0.2486970E+00
 -0.2931870E+01 -0.9665100E+01 -0.1027320E+00  0.2032233E+00 -0.1758694E+01  0.3796082E-01  0.1996464E+00
 -0.1970410E+01 -0.9905930E+01 -0.1027320E+00  0.1606145E+00 -0.1934238E+01  0.5709731E-01  0.1501230E+00
 -0.9899710E+00 -0.1005140E+02 -0.1027320E+00  0.1289443E+00 -0.2235684E+01  0.7955486E-01  0.1014773E+00
  0.1204410E-06 -0.1010000E+02 -0.1027320E+00  0.1185260E+00 -0.2657491E+01  0.1049066E+00  0.5516357E-01
  0.9899760E+00 -0.1005140E+02 -0.1027320E+00  0.1331105E+00 -0.3060176E+01  0.1326696E+00  0.1082541E-01
  0.1970410E+01 -0.9905930E+01 -0.1027320E+00  0.1657195E+00  0.2952158E+01  0.1627550E+00 -0.3120557E-01
  0.2931880E+01 -0.9665100E+01 -0.1027320E+00  0.2061964E+00  0.2793840E+01  0.1938537E+00 -0.7026881E-01
  0.3865100E+01 -0.9331180E+01 -0.1027320E+00  0.2481024E+00  0.2703891E+01  0.2247133E+00 -0.1051605E+00
  0.4761110E+01 -0.8907410E+01 -0.1027320E+00  0.2893888E+00  0.2649576E+01  0.2550620E+00 -0.1367085E+00
  0.5611260E+01 -0.8397840E+01 -0.1027320E+00  0.3285398E+00  0.2617359E+01  0.2844195E+00 -0.1644505E+00
  0.6407370E+01 -0.7807410E+01 -0.1027320E+00  0.3642009E+00  0.2597588E+01  0.3116259E+00 -0.1884982E+00
  0.7141780E+01 -0.7141780E+01 -0.1027320E+00  0.3946233E+00  0.2586128E+01  0.3352939E+00 -0.2080998E+00
  0.7807410E+01 -0.6407370E+01 -0.1027320E+00  0.4203691E+00  0.2578955E+01  0.3555696E+00 -0.2242330E+00
  0.8397840E+01 -0.5611260E+01 -0.1027320E+00  0.4405456E+00  0.2575346E+01  0.3717854E+00 -0.2363388E+00
