 VARIABLES="X" "Y" "Z" "abs(eta) (m)" "angle(phi) (rad)" "PRE1" "PRE2"
ZONE N=   3200 ,E =    3136 ,F=FEPOINT,ET=QUADRILATERAL
  0.1010000E+02  0.0000000E+00  0.0000000E+00  0.8302122E-06 -0.4653139E+00 -0.7419447E-06  0.3725190E-06
  0.1005140E+02  0.9899730E+00  0.0000000E+00  0.5444889E-01 -0.1471695E+01 -0.5387108E-02  0.5418174E-01
  0.9905930E+01  0.1970410E+01  0.0000000E+00  0.1092678E+00 -0.1472115E+01 -0.1076515E-01  0.1087362E+00
  0.9665100E+01  0.2931880E+01  0.0000000E+00  0.1632256E+00 -0.1472317E+01 -0.1604836E-01  0.1624348E+00
  0.9331180E+01  0.3865100E+01  0.0000000E+00  0.2147228E+00 -0.1472211E+01 -0.2113428E-01  0.2136802E+00
  0.8907400E+01  0.4761110E+01  0.0000000E+00  0.2638343E+00 -0.1472084E+01 -0.2600138E-01  0.2625499E+00
  0.8397840E+01  0.5611260E+01  0.0000000E+00  0.3111844E+00 -0.1472124E+01 -0.3065550E-01  0.3096708E+00
  0.7807410E+01  0.6407370E+01  0.0000000E+00  0.3560475E+00 -0.1472225E+01 -0.3503930E-01  0.3543191E+00
  0.7141780E+01  0.7141780E+01  0.0000000E+00  0.3967576E+00 -0.1472213E+01 -0.3905032E-01  0.3948312E+00
  0.6407370E+01  0.7807410E+01  0.0000000E+00  0.4330533E+00 -0.1472134E+01 -0.4265678E-01  0.4309472E+00
  0.5611260E+01  0.8397840E+01  0.0000000E+00  0.4657148E+00 -0.1472124E+01 -0.4587851E-01  0.4634495E+00
  0.4761110E+01  0.8907410E+01  0.0000000E+00  0.4946693E+00 -0.1472196E+01 -0.4869578E-01  0.4922667E+00
  0.3865100E+01  0.9331180E+01  0.0000000E+00  0.5183880E+00 -0.1472213E+01 -0.5102183E-01  0.5158710E+00
  0.2931870E+01  0.9665100E+01  0.0000000E+00  0.5363432E+00 -0.1472157E+01 -0.5281892E-01  0.5337361E+00
  0.1970410E+01  0.9905930E+01  0.0000000E+00  0.5493505E+00 -0.1472124E+01 -0.5411787E-01  0.5466784E+00
  0.9899730E+00  0.1005140E+02  0.0000000E+00  0.5579773E+00 -0.1472175E+01 -0.5493943E-01  0.5552660E+00
 -0.4414850E-06  0.1010000E+02  0.0000000E+00  0.5611017E+00 -0.1472213E+01 -0.5522570E-01  0.5583774E+00
 -0.9899740E+00  0.1005140E+02  0.0000000E+00  0.5579774E+00 -0.1472175E+01 -0.5493938E-01  0.5552661E+00
 -0.1970410E+01  0.9905930E+01  0.0000000E+00  0.5493510E+00 -0.1472125E+01 -0.5411737E-01  0.5466789E+00
 -0.2931880E+01  0.9665100E+01  0.0000000E+00  0.5363427E+00 -0.1472157E+01 -0.5281851E-01  0.5337356E+00
 -0.3865100E+01  0.9331180E+01  0.0000000E+00  0.5183882E+00 -0.1472212E+01 -0.5102209E-01  0.5158711E+00
 -0.4761110E+01  0.8907400E+01  0.0000000E+00  0.4946703E+00 -0.1472195E+01 -0.4869595E-01  0.4922676E+00
 -0.5611260E+01  0.8397840E+01  0.0000000E+00  0.4657143E+00 -0.1472124E+01 -0.4587860E-01  0.4634490E+00
 -0.6407370E+01  0.7807410E+01  0.0000000E+00  0.4330539E+00 -0.1472134E+01 -0.4265688E-01  0.4309479E+00
 -0.7141780E+01  0.7141780E+01  0.0000000E+00  0.3967584E+00 -0.1472213E+01 -0.3905043E-01  0.3948320E+00
 -0.7807410E+01  0.6407370E+01  0.0000000E+00  0.3560480E+00 -0.1472226E+01 -0.3503907E-01  0.3543197E+00
 -0.8397840E+01  0.5611260E+01  0.0000000E+00  0.3111852E+00 -0.1472124E+01 -0.3065566E-01  0.3096715E+00
 -0.8907410E+01  0.4761110E+01  0.0000000E+00  0.2638342E+00 -0.1472085E+01 -0.2600118E-01  0.2625498E+00
 -0.9331180E+01  0.3865100E+01  0.0000000E+00  0.2147230E+00 -0.1472210E+01 -0.2113441E-01  0.2136804E+00
 -0.9665100E+01  0.2931880E+01  0.0000000E+00  0.1632258E+00 -0.1472314E+01 -0.1604883E-01  0.1624349E+00
 -0.9905930E+01  0.1970410E+01  0.0000000E+00  0.1092682E+00 -0.1472118E+01 -0.1076494E-01  0.1087367E+00
 -0.1005140E+02  0.9899730E+00  0.0000000E+00  0.5444922E-01 -0.1471691E+01 -0.5387384E-02  0.5418204E-01
 -0.1010000E+02 -0.8829700E-06  0.0000000E+00  0.1020887E-05 -0.5713990E+00 -0.8587147E-06  0.5521055E-06
 -0.1005140E+02 -0.9899740E+00  0.0000000E+00  0.5444757E-01  0.1669872E+01  0.5385603E-02 -0.5418056E-01
 -0.9905930E+01 -0.1970410E+01  0.0000000E+00  0.1092668E+00  0.1669459E+01  0.1076305E-01 -0.1087354E+00
 -0.9665100E+01 -0.2931880E+01  0.0000000E+00  0.1632243E+00  0.1669269E+01  0.1604713E-01 -0.1624336E+00
 -0.9331180E+01 -0.3865100E+01  0.0000000E+00  0.2147215E+00  0.1669375E+01  0.2113276E-01 -0.2136791E+00
 -0.8907400E+01 -0.4761110E+01  0.0000000E+00  0.2638328E+00  0.1669501E+01  0.2599932E-01 -0.2625486E+00
 -0.8397840E+01 -0.5611260E+01  0.0000000E+00  0.3111830E+00  0.1669464E+01  0.3065391E-01 -0.3096695E+00
 -0.7807400E+01 -0.6407370E+01  0.0000000E+00  0.3560467E+00  0.1669363E+01  0.3503763E-01 -0.3543185E+00
 -0.7141780E+01 -0.7141780E+01  0.0000000E+00  0.3967569E+00  0.1669376E+01  0.3904879E-01 -0.3948306E+00
 -0.6407370E+01 -0.7807410E+01  0.0000000E+00  0.4330520E+00  0.1669456E+01  0.4265542E-01 -0.4309461E+00
 -0.5611260E+01 -0.8397850E+01  0.0000000E+00  0.4657132E+00  0.1669465E+01  0.4587692E-01 -0.4634480E+00
 -0.4761110E+01 -0.8907410E+01  0.0000000E+00  0.4946678E+00  0.1669395E+01  0.4869467E-01 -0.4922652E+00
 -0.3865100E+01 -0.9331190E+01  0.0000000E+00  0.5183851E+00  0.1669378E+01  0.5102045E-01 -0.5158682E+00
 -0.2931870E+01 -0.9665100E+01  0.0000000E+00  0.5363423E+00  0.1669433E+01  0.5281748E-01 -0.5337353E+00
 -0.1970410E+01 -0.9905930E+01  0.0000000E+00  0.5493488E+00  0.1669465E+01  0.5411575E-01 -0.5466768E+00
 -0.9899710E+00 -0.1005140E+02  0.0000000E+00  0.5579755E+00  0.1669415E+01  0.5493777E-01 -0.5552643E+00
  0.1204410E-06 -0.1010000E+02  0.0000000E+00  0.5610983E+00  0.1669377E+01  0.5522386E-01 -0.5583740E+00
  0.9899760E+00 -0.1005140E+02  0.0000000E+00  0.5579754E+00  0.1669415E+01  0.5493764E-01 -0.5552642E+00
  0.1970410E+01 -0.9905930E+01  0.0000000E+00  0.5493493E+00  0.1669466E+01  0.5411598E-01 -0.5466774E+00
  0.2931880E+01 -0.9665100E+01  0.0000000E+00  0.5363415E+00  0.1669433E+01  0.5281707E-01 -0.5337346E+00
  0.3865100E+01 -0.9331180E+01  0.0000000E+00  0.5183860E+00  0.1669377E+01  0.5102009E-01 -0.5158692E+00
  0.4761110E+01 -0.8907410E+01  0.0000000E+00  0.4946687E+00  0.1669394E+01  0.4869438E-01 -0.4922661E+00
  0.5611260E+01 -0.8397840E+01  0.0000000E+00  0.4657133E+00  0.1669465E+01  0.4587689E-01 -0.4634481E+00
  0.6407370E+01 -0.7807410E+01  0.0000000E+00  0.4330521E+00  0.1669456E+01  0.4265542E-01 -0.4309462E+00
  0.7141780E+01 -0.7141780E+01  0.0000000E+00  0.3967566E+00  0.1669376E+01  0.3904890E-01 -0.3948303E+00
  0.7807410E+01 -0.6407370E+01  0.0000000E+00  0.3560461E+00  0.1669363E+01  0.3503756E-01 -0.3543180E+00
  0.8397840E+01 -0.5611260E+01  0.0000000E+00  0.3111831E+00  0.1669464E+01  0.3065402E-01 -0.3096696E+00
  0.8907410E+01 -0.4761110E+01  0.0000000E+00  0.2638320E+00  0.1669503E+01  0.2599979E-01 -0.2625478E+00
  0.9331180E+01 -0.3865100E+01  0.0000000E+00  0.2147216E+00  0.1669375E+01  0.2113263E-01 -0.2136791E+00
  0.9665100E+01 -0.2931870E+01  0.0000000E+00  0.1632238E+00  0.1669267E+01  0.1604681E-01 -0.1624331E+00
  0.9905930E+01 -0.1970410E+01  0.0000000E+00  0.1092670E+00  0.1669464E+01  0.1076359E-01 -0.1087356E+00
  0.1005140E+02 -0.9899690E+00  0.0000000E+00  0.5444748E-01  0.1669873E+01  0.5385663E-02 -0.5418047E-01
  0.1010000E+02  0.0000000E+00 -0.2568960E-01  0.8871883E-06 -0.4945977E+00 -0.7808674E-06  0.4211284E-06
  0.1005140E+02  0.9899730E+00 -0.2568960E-01  0.5441461E-01 -0.1471713E+01 -0.5382780E-02  0.5414772E-01
  0.9905930E+01  0.1970410E+01 -0.2568960E-01  0.1091723E+00 -0.1472119E+01 -0.1075540E-01  0.1086412E+00
  0.9665100E+01  0.2931880E+01 -0.2568960E-01  0.1631032E+00 -0.1472324E+01 -0.1603515E-01  0.1623131E+00
  0.9331180E+01  0.3865100E+01 -0.2568960E-01  0.2145387E+00 -0.1472214E+01 -0.2111558E-01  0.2134970E+00
  0.8907400E+01  0.4761110E+01 -0.2568960E-01  0.2636491E+00 -0.1472095E+01 -0.2598028E-01  0.2623659E+00
  0.8397840E+01  0.5611260E+01 -0.2568960E-01  0.3109116E+00 -0.1472125E+01 -0.3062828E-01  0.3093993E+00
  0.7807410E+01  0.6407370E+01 -0.2568960E-01  0.3557877E+00 -0.1472234E+01 -0.3501039E-01  0.3540610E+00
  0.7141780E+01  0.7141780E+01 -0.2568960E-01  0.3964189E+00 -0.1472215E+01 -0.3901608E-01  0.3944942E+00
  0.6407370E+01  0.7807410E+01 -0.2568960E-01  0.4327453E+00 -0.1472144E+01 -0.4262200E-01  0.4306412E+00
  0.5611260E+01  0.8397840E+01 -0.2568960E-01  0.4653068E+00 -0.1472126E+01 -0.4583728E-01  0.4630435E+00
  0.4761110E+01  0.8907410E+01 -0.2568960E-01  0.4943118E+00 -0.1472205E+01 -0.4865599E-01  0.4919113E+00
  0.3865100E+01  0.9331180E+01 -0.2568960E-01  0.5179447E+00 -0.1472216E+01 -0.5097663E-01  0.5154300E+00
  0.2931870E+01  0.9665100E+01 -0.2568960E-01  0.5359590E+00 -0.1472168E+01 -0.5277527E-01  0.5333543E+00
  0.1970410E+01  0.9905930E+01 -0.2568960E-01  0.5488699E+00 -0.1472128E+01 -0.5406849E-01  0.5462003E+00
  0.9899730E+00  0.1005140E+02 -0.2568960E-01  0.5575748E+00 -0.1472185E+01 -0.5489418E-01  0.5548660E+00
 -0.4414850E-06  0.1010000E+02 -0.2568960E-01  0.5606205E+00 -0.1472216E+01 -0.5517643E-01  0.5578987E+00
 -0.9899740E+00  0.1005140E+02 -0.2568960E-01  0.5575740E+00 -0.1472185E+01 -0.5489400E-01  0.5548652E+00
 -0.1970410E+01  0.9905930E+01 -0.2568960E-01  0.5488706E+00 -0.1472127E+01 -0.5406895E-01  0.5462009E+00
 -0.2931880E+01  0.9665100E+01 -0.2568960E-01  0.5359591E+00 -0.1472167E+01 -0.5277543E-01  0.5333544E+00
 -0.3865100E+01  0.9331180E+01 -0.2568960E-01  0.5179449E+00 -0.1472215E+01 -0.5097688E-01  0.5154302E+00
 -0.4761110E+01  0.8907400E+01 -0.2568960E-01  0.4943128E+00 -0.1472204E+01 -0.4865631E-01  0.4919123E+00
 -0.5611260E+01  0.8397840E+01 -0.2568960E-01  0.4653069E+00 -0.1472126E+01 -0.4583745E-01  0.4630437E+00
 -0.6407370E+01  0.7807410E+01 -0.2568960E-01  0.4327461E+00 -0.1472145E+01 -0.4262183E-01  0.4306420E+00
 -0.7141780E+01  0.7141780E+01 -0.2568960E-01  0.3964194E+00 -0.1472216E+01 -0.3901606E-01  0.3944948E+00
 -0.7807410E+01  0.6407370E+01 -0.2568960E-01  0.3557880E+00 -0.1472235E+01 -0.3501034E-01  0.3540613E+00
 -0.8397840E+01  0.5611260E+01 -0.2568960E-01  0.3109115E+00 -0.1472126E+01 -0.3062814E-01  0.3093992E+00
 -0.8907410E+01  0.4761110E+01 -0.2568960E-01  0.2636494E+00 -0.1472096E+01 -0.2598001E-01  0.2623662E+00
 -0.9331180E+01  0.3865100E+01 -0.2568960E-01  0.2145394E+00 -0.1472215E+01 -0.2111544E-01  0.2134978E+00
 -0.9665100E+01  0.2931880E+01 -0.2568960E-01  0.1631033E+00 -0.1472324E+01 -0.1603526E-01  0.1623132E+00
 -0.9905930E+01  0.1970410E+01 -0.2568960E-01  0.1091726E+00 -0.1472117E+01 -0.1075563E-01  0.1086415E+00
 -0.1005140E+02  0.9899730E+00 -0.2568960E-01  0.5441498E-01 -0.1471711E+01 -0.5382923E-02  0.5414808E-01
 -0.1010000E+02 -0.8829700E-06 -0.2568960E-01  0.9113587E-06 -0.6175320E+00 -0.7430398E-06  0.5276992E-06
 -0.1005140E+02 -0.9899740E+00 -0.2568960E-01  0.5441354E-01  0.1669854E+01  0.5381289E-02 -0.5414679E-01
 -0.9905930E+01 -0.1970410E+01 -0.2568960E-01  0.1091710E+00  0.1669461E+01  0.1075389E-01 -0.1086401E+00
 -0.9665100E+01 -0.2931880E+01 -0.2568960E-01  0.1631022E+00  0.1669258E+01  0.1603344E-01 -0.1623122E+00
 -0.9331180E+01 -0.3865100E+01 -0.2568960E-01  0.2145381E+00  0.1669371E+01  0.2111385E-01 -0.2134966E+00
 -0.8907400E+01 -0.4761110E+01 -0.2568960E-01  0.2636479E+00  0.1669491E+01  0.2597841E-01 -0.2623649E+00
 -0.8397840E+01 -0.5611260E+01 -0.2568960E-01  0.3109108E+00  0.1669462E+01  0.3062641E-01 -0.3093987E+00
 -0.7807400E+01 -0.6407370E+01 -0.2568960E-01  0.3557869E+00  0.1669353E+01  0.3500858E-01 -0.3540604E+00
 -0.7141780E+01 -0.7141780E+01 -0.2568960E-01  0.3964176E+00  0.1669373E+01  0.3901444E-01 -0.3944931E+00
 -0.6407370E+01 -0.7807410E+01 -0.2568960E-01  0.4327443E+00  0.1669445E+01  0.4262046E-01 -0.4306404E+00
 -0.5611260E+01 -0.8397850E+01 -0.2568960E-01  0.4653050E+00  0.1669463E+01  0.4583580E-01 -0.4630420E+00
 -0.4761110E+01 -0.8907410E+01 -0.2568960E-01  0.4943105E+00  0.1669385E+01  0.4865465E-01 -0.4919102E+00
 -0.3865100E+01 -0.9331190E+01 -0.2568960E-01  0.5179421E+00  0.1669374E+01  0.5097513E-01 -0.5154276E+00
 -0.2931870E+01 -0.9665100E+01 -0.2568960E-01  0.5359578E+00  0.1669422E+01  0.5277344E-01 -0.5333533E+00
 -0.1970410E+01 -0.9905930E+01 -0.2568960E-01  0.5488676E+00  0.1669463E+01  0.5406719E-01 -0.5461981E+00
 -0.9899710E+00 -0.1005140E+02 -0.2568960E-01  0.5575740E+00  0.1669405E+01  0.5489254E-01 -0.5548654E+00
  0.1204410E-06 -0.1010000E+02 -0.2568960E-01  0.5606185E+00  0.1669374E+01  0.5517473E-01 -0.5578969E+00
  0.9899760E+00 -0.1005140E+02 -0.2568960E-01  0.5575742E+00  0.1669405E+01  0.5489258E-01 -0.5548656E+00
  0.1970410E+01 -0.9905930E+01 -0.2568960E-01  0.5488680E+00  0.1669463E+01  0.5406706E-01 -0.5461985E+00
  0.2931880E+01 -0.9665100E+01 -0.2568960E-01  0.5359580E+00  0.1669422E+01  0.5277367E-01 -0.5333534E+00
  0.3865100E+01 -0.9331180E+01 -0.2568960E-01  0.5179431E+00  0.1669374E+01  0.5097492E-01 -0.5154286E+00
  0.4761110E+01 -0.8907410E+01 -0.2568960E-01  0.4943111E+00  0.1669385E+01  0.4865442E-01 -0.4919107E+00
  0.5611260E+01 -0.8397840E+01 -0.2568960E-01  0.4653055E+00  0.1669464E+01  0.4583595E-01 -0.4630424E+00
  0.6407370E+01 -0.7807410E+01 -0.2568960E-01  0.4327441E+00  0.1669446E+01  0.4262063E-01 -0.4306402E+00
  0.7141780E+01 -0.7141780E+01 -0.2568960E-01  0.3964175E+00  0.1669373E+01  0.3901432E-01 -0.3944930E+00
  0.7807410E+01 -0.6407370E+01 -0.2568960E-01  0.3557864E+00  0.1669355E+01  0.3500893E-01 -0.3540598E+00
  0.8397840E+01 -0.5611260E+01 -0.2568960E-01  0.3109105E+00  0.1669463E+01  0.3062668E-01 -0.3093984E+00
  0.8907410E+01 -0.4761110E+01 -0.2568960E-01  0.2636476E+00  0.1669492E+01  0.2597873E-01 -0.2623645E+00
  0.9331180E+01 -0.3865100E+01 -0.2568960E-01  0.2145382E+00  0.1669373E+01  0.2111421E-01 -0.2134966E+00
  0.9665100E+01 -0.2931870E+01 -0.2568960E-01  0.1631019E+00  0.1669259E+01  0.1603358E-01 -0.1623119E+00
  0.9905930E+01 -0.1970410E+01 -0.2568960E-01  0.1091712E+00  0.1669459E+01  0.1075370E-01 -0.1086403E+00
  0.1005140E+02 -0.9899690E+00 -0.2568960E-01  0.5441364E-01  0.1669850E+01  0.5381055E-02 -0.5414691E-01
  0.1010000E+02  0.0000000E+00 -0.1027320E+00  0.8988040E-06 -0.4420193E+00 -0.8124197E-06  0.3844774E-06
  0.1005140E+02  0.9899730E+00 -0.1027320E+00  0.5429484E-01 -0.1471738E+01 -0.5369576E-02  0.5402867E-01
  0.9905930E+01  0.1970410E+01 -0.1027320E+00  0.1088761E+00 -0.1472125E+01 -0.1072555E-01  0.1083465E+00
  0.9665100E+01  0.2931880E+01 -0.1027320E+00  0.1626705E+00 -0.1472331E+01 -0.1599157E-01  0.1618825E+00
  0.9331180E+01  0.3865100E+01 -0.1027320E+00  0.2139694E+00 -0.1472220E+01 -0.2105825E-01  0.2129306E+00
  0.8907400E+01  0.4761110E+01 -0.1027320E+00  0.2629957E+00 -0.1472111E+01 -0.2591158E-01  0.2617161E+00
  0.8397840E+01  0.5611260E+01 -0.1027320E+00  0.3100688E+00 -0.1472129E+01 -0.3054395E-01  0.3085608E+00
  0.7807410E+01  0.6407370E+01 -0.1027320E+00  0.3548691E+00 -0.1472244E+01 -0.3491655E-01  0.3531471E+00
  0.7141780E+01  0.7141780E+01 -0.1027320E+00  0.3953660E+00 -0.1472222E+01 -0.3890993E-01  0.3934467E+00
  0.6407370E+01  0.7807410E+01 -0.1027320E+00  0.4316581E+00 -0.1472158E+01 -0.4250911E-01  0.4295599E+00
  0.5611260E+01  0.8397840E+01 -0.1027320E+00  0.4640456E+00 -0.1472130E+01 -0.4571150E-01  0.4617887E+00
  0.4761110E+01  0.8907410E+01 -0.1027320E+00  0.4930464E+00 -0.1472216E+01 -0.4852596E-01  0.4906526E+00
  0.3865100E+01  0.9331180E+01 -0.1027320E+00  0.5165679E+00 -0.1472222E+01 -0.5083768E-01  0.5140602E+00
  0.2931870E+01  0.9665100E+01 -0.1027320E+00  0.5346042E+00 -0.1472180E+01 -0.5263531E-01  0.5320067E+00
  0.1970410E+01  0.9905930E+01 -0.1027320E+00  0.5473817E+00 -0.1472131E+01 -0.5392012E-01  0.5447195E+00
  0.9899730E+00  0.1005140E+02 -0.1027320E+00  0.5561564E+00 -0.1472197E+01 -0.5474783E-01  0.5534552E+00
 -0.4414850E-06  0.1010000E+02 -0.1027320E+00  0.5591301E+00 -0.1472222E+01 -0.5502655E-01  0.5564158E+00
 -0.9899740E+00  0.1005140E+02 -0.1027320E+00  0.5561569E+00 -0.1472198E+01 -0.5474752E-01  0.5534557E+00
 -0.1970410E+01  0.9905930E+01 -0.1027320E+00  0.5473819E+00 -0.1472131E+01 -0.5392001E-01  0.5447197E+00
 -0.2931880E+01  0.9665100E+01 -0.1027320E+00  0.5346035E+00 -0.1472180E+01 -0.5263518E-01  0.5320061E+00
 -0.3865100E+01  0.9331180E+01 -0.1027320E+00  0.5165678E+00 -0.1472222E+01 -0.5083802E-01  0.5140601E+00
 -0.4761110E+01  0.8907400E+01 -0.1027320E+00  0.4930470E+00 -0.1472216E+01 -0.4852607E-01  0.4906532E+00
 -0.5611260E+01  0.8397840E+01 -0.1027320E+00  0.4640456E+00 -0.1472130E+01 -0.4571158E-01  0.4617887E+00
 -0.6407370E+01  0.7807410E+01 -0.1027320E+00  0.4316577E+00 -0.1472157E+01 -0.4250924E-01  0.4295595E+00
 -0.7141780E+01  0.7141780E+01 -0.1027320E+00  0.3953656E+00 -0.1472222E+01 -0.3890970E-01  0.3934463E+00
 -0.7807410E+01  0.6407370E+01 -0.1027320E+00  0.3548694E+00 -0.1472244E+01 -0.3491658E-01  0.3531475E+00
 -0.8397840E+01  0.5611260E+01 -0.1027320E+00  0.3100694E+00 -0.1472130E+01 -0.3054368E-01  0.3085613E+00
 -0.8907410E+01  0.4761110E+01 -0.1027320E+00  0.2629954E+00 -0.1472111E+01 -0.2591166E-01  0.2617158E+00
 -0.9331180E+01  0.3865100E+01 -0.1027320E+00  0.2139696E+00 -0.1472219E+01 -0.2105831E-01  0.2129308E+00
 -0.9665100E+01  0.2931880E+01 -0.1027320E+00  0.1626714E+00 -0.1472333E+01 -0.1599136E-01  0.1618835E+00
 -0.9905930E+01  0.1970410E+01 -0.1027320E+00  0.1088765E+00 -0.1472121E+01 -0.1072599E-01  0.1083469E+00
 -0.1005140E+02  0.9899730E+00 -0.1027320E+00  0.5429517E-01 -0.1471738E+01 -0.5369613E-02  0.5402900E-01
 -0.1010000E+02 -0.8829700E-06 -0.1027320E+00  0.1071916E-05 -0.7372261E+00 -0.7935783E-06  0.7205816E-06
 -0.1005140E+02 -0.9899740E+00 -0.1027320E+00  0.5429378E-01  0.1669828E+01  0.5367994E-02 -0.5402777E-01
 -0.9905930E+01 -0.1970410E+01 -0.1027320E+00  0.1088752E+00  0.1669459E+01  0.1072451E-01 -0.1083457E+00
 -0.9665100E+01 -0.2931880E+01 -0.1027320E+00  0.1626697E+00  0.1669251E+01  0.1598979E-01 -0.1618819E+00
 -0.9331180E+01 -0.3865100E+01 -0.1027320E+00  0.2139679E+00  0.1669365E+01  0.2105644E-01 -0.2129293E+00
 -0.8907400E+01 -0.4761110E+01 -0.1027320E+00  0.2629942E+00  0.1669476E+01  0.2591005E-01 -0.2617148E+00
 -0.8397840E+01 -0.5611260E+01 -0.1027320E+00  0.3100679E+00  0.1669458E+01  0.3054216E-01 -0.3085600E+00
 -0.7807400E+01 -0.6407370E+01 -0.1027320E+00  0.3548689E+00  0.1669344E+01  0.3491489E-01 -0.3531471E+00
 -0.7141780E+01 -0.7141780E+01 -0.1027320E+00  0.3953640E+00  0.1669367E+01  0.3890807E-01 -0.3934449E+00
 -0.6407370E+01 -0.7807410E+01 -0.1027320E+00  0.4316565E+00  0.1669432E+01  0.4250757E-01 -0.4295584E+00
 -0.5611260E+01 -0.8397850E+01 -0.1027320E+00  0.4640438E+00  0.1669459E+01  0.4570967E-01 -0.4617870E+00
 -0.4761110E+01 -0.8907410E+01 -0.1027320E+00  0.4930458E+00  0.1669373E+01  0.4852410E-01 -0.4906522E+00
 -0.3865100E+01 -0.9331190E+01 -0.1027320E+00  0.5165663E+00  0.1669368E+01  0.5083649E-01 -0.5140587E+00
 -0.2931870E+01 -0.9665100E+01 -0.1027320E+00  0.5346015E+00  0.1669410E+01  0.5263360E-01 -0.5320042E+00
 -0.1970410E+01 -0.9905930E+01 -0.1027320E+00  0.5473805E+00  0.1669459E+01  0.5391822E-01 -0.5447185E+00
 -0.9899710E+00 -0.1005140E+02 -0.1027320E+00  0.5561550E+00  0.1669393E+01  0.5474619E-01 -0.5534539E+00
  0.1204410E-06 -0.1010000E+02 -0.1027320E+00  0.5591286E+00  0.1669368E+01  0.5502482E-01 -0.5564145E+00
  0.9899760E+00 -0.1005140E+02 -0.1027320E+00  0.5561548E+00  0.1669393E+01  0.5474612E-01 -0.5534537E+00
  0.1970410E+01 -0.9905930E+01 -0.1027320E+00  0.5473806E+00  0.1669459E+01  0.5391850E-01 -0.5447185E+00
  0.2931880E+01 -0.9665100E+01 -0.1027320E+00  0.5346012E+00  0.1669410E+01  0.5263339E-01 -0.5320039E+00
  0.3865100E+01 -0.9331180E+01 -0.1027320E+00  0.5165665E+00  0.1669368E+01  0.5083631E-01 -0.5140589E+00
  0.4761110E+01 -0.8907410E+01 -0.1027320E+00  0.4930459E+00  0.1669373E+01  0.4852429E-01 -0.4906523E+00
  0.5611260E+01 -0.8397840E+01 -0.1027320E+00  0.4640439E+00  0.1669459E+01  0.4570954E-01 -0.4617871E+00
  0.6407370E+01 -0.7807410E+01 -0.1027320E+00  0.4316560E+00  0.1669431E+01  0.4250744E-01 -0.4295580E+00
  0.7141780E+01 -0.7141780E+01 -0.1027320E+00  0.3953639E+00  0.1669367E+01  0.3890814E-01 -0.3934447E+00
  0.7807410E+01 -0.6407370E+01 -0.1027320E+00  0.3548678E+00  0.1669343E+01  0.3491460E-01 -0.3531460E+00
  0.8397840E+01 -0.5611260E+01 -0.1027320E+00  0.3100676E+00  0.1669459E+01  0.3054239E-01 -0.3085597E+00
