 VARIABLES="X" "Y" "Z" "abs(eta) (m)" "angle(phi) (rad)" "PRE1" "PRE2"
ZONE N=   3200 ,E =    3136 ,F=FEPOINT,ET=QUADRILATERAL
  0.1010000E+02  0.0000000E+00  0.0000000E+00  0.2383549E+00  0.2234103E+01  0.1467612E+00 -0.1878143E+00
  0.1005140E+02  0.9899730E+00  0.0000000E+00  0.2413182E+00  0.2232533E+01  0.1482871E+00 -0.1903822E+00
  0.9905930E+01  0.1970410E+01  0.0000000E+00  0.2413652E+00  0.2232918E+01  0.1483892E+00 -0.1903623E+00
  0.9665100E+01  0.2931880E+01  0.0000000E+00  0.2389466E+00  0.2234020E+01  0.1471100E+00 -0.1882927E+00
  0.9331180E+01  0.3865100E+01  0.0000000E+00  0.2336867E+00  0.2237301E+01  0.1444751E+00 -0.1836748E+00
  0.8907400E+01  0.4761110E+01  0.0000000E+00  0.2252004E+00  0.2244277E+01  0.1404598E+00 -0.1760291E+00
  0.8397840E+01  0.5611260E+01  0.0000000E+00  0.2137963E+00  0.2254904E+01  0.1351154E+00 -0.1656886E+00
  0.7807410E+01  0.6407370E+01  0.0000000E+00  0.2002860E+00  0.2269337E+01  0.1288041E+00 -0.1533754E+00
  0.7141780E+01  0.7141780E+01  0.0000000E+00  0.1847657E+00  0.2290973E+01  0.1218563E+00 -0.1388864E+00
  0.6407370E+01  0.7807410E+01  0.0000000E+00  0.1669561E+00  0.2324724E+01  0.1142827E+00 -0.1217120E+00
  0.5611260E+01  0.8397840E+01  0.0000000E+00  0.1472258E+00  0.2375938E+01  0.1061393E+00 -0.1020288E+00
  0.4761110E+01  0.8907410E+01  0.0000000E+00  0.1268844E+00  0.2452395E+01  0.9792386E-01 -0.8068806E-01
  0.3865100E+01  0.9331180E+01  0.0000000E+00  0.1070909E+00  0.2570282E+01  0.9008408E-01 -0.5790781E-01
  0.2931870E+01  0.9665100E+01  0.0000000E+00  0.8909637E-01  0.2759078E+01  0.8265727E-01 -0.3325566E-01
  0.1970410E+01  0.9905930E+01  0.0000000E+00  0.7597552E-01  0.3052902E+01  0.7567690E-01 -0.6729478E-02
  0.9899730E+00  0.1005140E+02  0.0000000E+00  0.7254677E-01 -0.2851914E+01  0.6952416E-01  0.2072255E-01
 -0.4414850E-06  0.1010000E+02  0.0000000E+00  0.8067705E-01 -0.2497032E+01  0.6449033E-01  0.4847456E-01
 -0.9899740E+00  0.1005140E+02  0.0000000E+00  0.9785099E-01 -0.2238824E+01  0.6061268E-01  0.7681743E-01
 -0.1970410E+01  0.9905930E+01  0.0000000E+00  0.1206968E+00 -0.2071004E+01  0.5788708E-01  0.1059094E+00
 -0.2931880E+01  0.9665100E+01  0.0000000E+00  0.1462026E+00 -0.1966603E+01  0.5636887E-01  0.1348991E+00
 -0.3865100E+01  0.9331180E+01  0.0000000E+00  0.1722523E+00 -0.1902068E+01  0.5602440E-01  0.1628868E+00
 -0.4761110E+01  0.8907400E+01  0.0000000E+00  0.1983332E+00 -0.1861593E+01  0.5686515E-01  0.1900063E+00
 -0.5611260E+01  0.8397840E+01  0.0000000E+00  0.2244330E+00 -0.1836123E+01  0.5885188E-01  0.2165793E+00
 -0.6407370E+01  0.7807410E+01  0.0000000E+00  0.2497834E+00 -0.1820430E+01  0.6170879E-01  0.2420408E+00
 -0.7141780E+01  0.7141780E+01  0.0000000E+00  0.2733366E+00 -0.1811325E+01  0.6511322E-01  0.2654678E+00
 -0.7807410E+01  0.6407370E+01  0.0000000E+00  0.2950141E+00 -0.1807054E+01  0.6905285E-01  0.2868187E+00
 -0.8397840E+01  0.5611260E+01  0.0000000E+00  0.3152304E+00 -0.1806053E+01  0.7347776E-01  0.3065472E+00
 -0.8907410E+01  0.4761110E+01  0.0000000E+00  0.3337666E+00 -0.1806611E+01  0.7797976E-01  0.3245293E+00
 -0.9331180E+01  0.3865100E+01  0.0000000E+00  0.3497145E+00 -0.1807939E+01  0.8215716E-01  0.3399270E+00
 -0.9665100E+01  0.2931880E+01  0.0000000E+00  0.3628752E+00 -0.1810039E+01  0.8598930E-01  0.3525397E+00
 -0.9905930E+01  0.1970410E+01  0.0000000E+00  0.3737387E+00 -0.1812473E+01  0.8944722E-01  0.3628771E+00
 -0.1005140E+02  0.9899730E+00  0.0000000E+00  0.3824930E+00 -0.1814361E+01  0.9224343E-01  0.3712035E+00
 -0.1010000E+02 -0.8829700E-06  0.0000000E+00  0.3884224E+00 -0.1815606E+01  0.9414266E-01  0.3768410E+00
 -0.1005140E+02 -0.9899740E+00  0.0000000E+00  0.3911576E+00 -0.1816458E+01  0.9512877E-01  0.3794137E+00
 -0.9905930E+01 -0.1970410E+01  0.0000000E+00  0.3911581E+00 -0.1816651E+01  0.9520229E-01  0.3793958E+00
 -0.9665100E+01 -0.2931880E+01  0.0000000E+00  0.3889412E+00 -0.1815857E+01  0.9436306E-01  0.3773206E+00
 -0.9331180E+01 -0.3865100E+01  0.0000000E+00  0.3840435E+00 -0.1814510E+01  0.9267295E-01  0.3726944E+00
 -0.8907400E+01 -0.4761110E+01  0.0000000E+00  0.3760013E+00 -0.1812885E+01  0.9013905E-01  0.3650369E+00
 -0.8397840E+01 -0.5611260E+01  0.0000000E+00  0.3651424E+00 -0.1810745E+01  0.8677698E-01  0.3546811E+00
 -0.7807400E+01 -0.6407370E+01  0.0000000E+00  0.3522362E+00 -0.1808302E+01  0.8287387E-01  0.3423482E+00
 -0.7141780E+01 -0.7141780E+01  0.0000000E+00  0.3371654E+00 -0.1806560E+01  0.7875691E-01  0.3278382E+00
 -0.6407370E+01 -0.7807410E+01  0.0000000E+00  0.3194419E+00 -0.1806059E+01  0.7446142E-01  0.3106422E+00
 -0.5611260E+01 -0.8397850E+01  0.0000000E+00  0.2992419E+00 -0.1806938E+01  0.7000851E-01  0.2909373E+00
 -0.4761110E+01 -0.8907410E+01  0.0000000E+00  0.2774881E+00 -0.1810214E+01  0.6580263E-01  0.2695732E+00
 -0.3865100E+01 -0.9331190E+01  0.0000000E+00  0.2545018E+00 -0.1817895E+01  0.6224904E-01  0.2467716E+00
 -0.2931870E+01 -0.9665100E+01  0.0000000E+00  0.2299059E+00 -0.1832114E+01  0.5939693E-01  0.2221007E+00
 -0.1970410E+01 -0.9905930E+01  0.0000000E+00  0.2037683E+00 -0.1855611E+01  0.5725474E-01  0.1955593E+00
 -0.9899710E+00 -0.1005140E+02  0.0000000E+00  0.1772080E+00 -0.1892926E+01  0.5610177E-01  0.1680931E+00
  0.1204410E-06 -0.1010000E+02  0.0000000E+00  0.1511506E+00 -0.1951450E+01  0.5615664E-01  0.1403315E+00
  0.9899760E+00 -0.1005140E+02  0.0000000E+00  0.1258630E+00 -0.2044835E+01  0.5745430E-01  0.1119843E+00
  0.1970410E+01 -0.9905930E+01  0.0000000E+00  0.1023154E+00 -0.2197148E+01  0.5997656E-01  0.8289304E-01
  0.2931880E+01 -0.9665100E+01  0.0000000E+00  0.8343906E-01 -0.2439187E+01  0.6368822E-01  0.5390629E-01
  0.3865100E+01 -0.9331180E+01  0.0000000E+00  0.7320540E-01 -0.2779584E+01  0.6846077E-01  0.2592592E-01
  0.4761110E+01 -0.8907410E+01  0.0000000E+00  0.7429878E-01  0.3125704E+01  0.7428940E-01 -0.1180431E-02
  0.5611260E+01 -0.8397840E+01  0.0000000E+00  0.8574605E-01  0.2812193E+01  0.8113606E-01 -0.2773670E-01
  0.6407370E+01 -0.7807410E+01  0.0000000E+00  0.1033829E+00  0.2601282E+01  0.8865588E-01 -0.5318043E-01
  0.7141780E+01 -0.7141780E+01  0.0000000E+00  0.1231409E+00  0.2470365E+01  0.9642659E-01 -0.7658719E-01
  0.7807410E+01 -0.6407370E+01  0.0000000E+00  0.1431380E+00  0.2388270E+01  0.1044077E+00 -0.9791590E-01
  0.8397840E+01 -0.5611260E+01  0.0000000E+00  0.1628038E+00  0.2334230E+01  0.1125636E+00 -0.1176202E+00
  0.8907410E+01 -0.4761110E+01  0.0000000E+00  0.1813585E+00  0.2297178E+01  0.1204526E+00 -0.1355805E+00
  0.9331180E+01 -0.3865100E+01  0.0000000E+00  0.1976488E+00  0.2272462E+01  0.1275806E+00 -0.1509578E+00
  0.9665100E+01 -0.2931870E+01  0.0000000E+00  0.2113677E+00  0.2256808E+01  0.1338922E+00 -0.1635518E+00
  0.9905930E+01 -0.1970410E+01  0.0000000E+00  0.2228441E+00  0.2246547E+01  0.1393853E+00 -0.1738713E+00
  0.1005140E+02 -0.9899690E+00  0.0000000E+00  0.2320846E+00  0.2238901E+01  0.1437762E+00 -0.1821858E+00
  0.1010000E+02  0.0000000E+00 -0.2568960E-01  0.2381565E+00  0.2234072E+01  0.1466333E+00 -0.1876624E+00
  0.1005140E+02  0.9899730E+00 -0.2568960E-01  0.2411587E+00  0.2232430E+01  0.1481694E+00 -0.1902717E+00
  0.9905930E+01  0.1970410E+01 -0.2568960E-01  0.2411572E+00  0.2232899E+01  0.1482578E+00 -0.1902009E+00
  0.9665100E+01  0.2931880E+01 -0.2568960E-01  0.2387888E+00  0.2233914E+01  0.1469929E+00 -0.1881839E+00
  0.9331180E+01  0.3865100E+01 -0.2568960E-01  0.2334923E+00  0.2237270E+01  0.1443492E+00 -0.1835265E+00
  0.8907400E+01  0.4761110E+01 -0.2568960E-01  0.2250496E+00  0.2244161E+01  0.1403453E+00 -0.1759275E+00
  0.8397840E+01  0.5611260E+01 -0.2568960E-01  0.2136120E+00  0.2254882E+01  0.1349952E+00 -0.1655487E+00
  0.7807410E+01  0.6407370E+01 -0.2568960E-01  0.2001543E+00  0.2269197E+01  0.1286980E+00 -0.1532924E+00
  0.7141780E+01  0.7141780E+01 -0.2568960E-01  0.1846119E+00  0.2290926E+01  0.1217482E+00 -0.1387765E+00
  0.6407370E+01  0.7807410E+01 -0.2568960E-01  0.1668415E+00  0.2324548E+01  0.1141828E+00 -0.1216485E+00
  0.5611260E+01  0.8397840E+01 -0.2568960E-01  0.1470986E+00  0.2375896E+01  0.1060433E+00 -0.1019452E+00
  0.4761110E+01  0.8907410E+01 -0.2568960E-01  0.1267966E+00  0.2452139E+01  0.9783544E-01 -0.8065725E-01
  0.3865100E+01  0.9331180E+01 -0.2568960E-01  0.1069994E+00  0.2570185E+01  0.9000152E-01 -0.5786699E-01
  0.2931870E+01  0.9665100E+01 -0.2568960E-01  0.8901979E-01  0.2758761E+01  0.8257571E-01 -0.3325319E-01
  0.1970410E+01  0.9905930E+01 -0.2568960E-01  0.7590585E-01  0.3052824E+01  0.7560698E-01 -0.6729252E-02
  0.9899730E+00  0.1005140E+02 -0.2568960E-01  0.7246638E-01 -0.2852167E+01  0.6945236E-01  0.2068203E-01
 -0.4414850E-06  0.1010000E+02 -0.2568960E-01  0.8059811E-01 -0.2497063E+01  0.6442873E-01  0.4842513E-01
 -0.9899740E+00  0.1005140E+02 -0.2568960E-01  0.9775233E-01 -0.2238753E+01  0.6054613E-01  0.7674427E-01
 -0.1970410E+01  0.9905930E+01 -0.2568960E-01  0.1205847E+00 -0.2070997E+01  0.5783257E-01  0.1058114E+00
 -0.2931880E+01  0.9665100E+01 -0.2568960E-01  0.1460686E+00 -0.1966522E+01  0.5630625E-01  0.1347800E+00
 -0.3865100E+01  0.9331180E+01 -0.2568960E-01  0.1720970E+00 -0.1902048E+01  0.5597060E-01  0.1627411E+00
 -0.4761110E+01  0.8907400E+01 -0.2568960E-01  0.1981711E+00 -0.1861518E+01  0.5680456E-01  0.1898553E+00
 -0.5611260E+01  0.8397840E+01 -0.2568960E-01  0.2242308E+00 -0.1836116E+01  0.5879741E-01  0.2163847E+00
 -0.6407370E+01  0.7807410E+01 -0.2568960E-01  0.2495812E+00 -0.1820377E+01  0.6164597E-01  0.2418482E+00
 -0.7141780E+01  0.7141780E+01 -0.2568960E-01  0.2730961E+00 -0.1811316E+01  0.6505338E-01  0.2652349E+00
 -0.7807410E+01  0.6407370E+01 -0.2568960E-01  0.2947861E+00 -0.1807020E+01  0.6898952E-01  0.2865995E+00
 -0.8397840E+01  0.5611260E+01 -0.2568960E-01  0.3149489E+00 -0.1806051E+01  0.7341160E-01  0.3062737E+00
 -0.8907410E+01  0.4761110E+01 -0.2568960E-01  0.3335079E+00 -0.1806587E+01  0.7791126E-01  0.3242798E+00
 -0.9331180E+01  0.3865100E+01 -0.2568960E-01  0.3494092E+00 -0.1807937E+01  0.8208477E-01  0.3396305E+00
 -0.9665100E+01  0.2931880E+01 -0.2568960E-01  0.3625996E+00 -0.1810026E+01  0.8591939E-01  0.3522731E+00
 -0.9905930E+01  0.1970410E+01 -0.2568960E-01  0.3734060E+00 -0.1812475E+01  0.8936824E-01  0.3625539E+00
 -0.1005140E+02  0.9899730E+00 -0.2568960E-01  0.3822017E+00 -0.1814352E+01  0.9216966E-01  0.3709217E+00
 -0.1010000E+02 -0.8829700E-06 -0.2568960E-01  0.3880843E+00 -0.1815608E+01  0.9406143E-01  0.3765127E+00
 -0.1005140E+02 -0.9899740E+00 -0.2568960E-01  0.3908614E+00 -0.1816452E+01  0.9505443E-01  0.3791270E+00
 -0.9905930E+01 -0.1970410E+01 -0.2568960E-01  0.3908096E+00 -0.1816655E+01  0.9511875E-01  0.3790575E+00
 -0.9665100E+01 -0.2931880E+01 -0.2568960E-01  0.3886461E+00 -0.1815851E+01  0.9428926E-01  0.3770349E+00
 -0.9331180E+01 -0.3865100E+01 -0.2568960E-01  0.3837087E+00 -0.1814512E+01  0.9259289E-01  0.3723694E+00
 -0.8907400E+01 -0.4761110E+01 -0.2568960E-01  0.3757143E+00 -0.1812873E+01  0.9006605E-01  0.3647593E+00
 -0.8397840E+01 -0.5611260E+01 -0.2568960E-01  0.3648172E+00 -0.1810746E+01  0.8670020E-01  0.3543652E+00
 -0.7807400E+01 -0.6407370E+01 -0.2568960E-01  0.3519686E+00 -0.1808286E+01  0.8280522E-01  0.3420895E+00
 -0.7141780E+01 -0.7141780E+01 -0.2568960E-01  0.3368709E+00 -0.1806557E+01  0.7868715E-01  0.3275520E+00
 -0.6407370E+01 -0.7807410E+01 -0.2568960E-01  0.3191928E+00 -0.1806029E+01  0.7439417E-01  0.3104023E+00
 -0.5611260E+01 -0.8397850E+01 -0.2568960E-01  0.2989740E+00 -0.1806935E+01  0.6994516E-01  0.2906770E+00
 -0.4761110E+01 -0.8907410E+01 -0.2568960E-01  0.2772718E+00 -0.1810173E+01  0.6574047E-01  0.2693657E+00
 -0.3865100E+01 -0.9331190E+01 -0.2568960E-01  0.2542768E+00 -0.1817883E+01  0.6219107E-01  0.2465542E+00
 -0.2931870E+01 -0.9665100E+01 -0.2568960E-01  0.2297169E+00 -0.1832054E+01  0.5933481E-01  0.2219217E+00
 -0.1970410E+01 -0.9905930E+01 -0.2568960E-01  0.2035842E+00 -0.1855602E+01  0.5720131E-01  0.1953831E+00
 -0.9899710E+00 -0.1005140E+02 -0.2568960E-01  0.1770595E+00 -0.1892843E+01  0.5604079E-01  0.1679569E+00
  0.1204410E-06 -0.1010000E+02 -0.2568960E-01  0.1510127E+00 -0.1951429E+01  0.5610241E-01  0.1402047E+00
  0.9899760E+00 -0.1005140E+02 -0.2568960E-01  0.1257419E+00 -0.2044759E+01  0.5739057E-01  0.1118809E+00
  0.1970410E+01 -0.9905930E+01 -0.2568960E-01  0.1022192E+00 -0.2197148E+01  0.5992018E-01  0.8281512E-01
  0.2931880E+01 -0.9665100E+01 -0.2568960E-01  0.8334927E-01 -0.2439179E+01  0.6361923E-01  0.5384881E-01
  0.3865100E+01 -0.9331180E+01 -0.2568960E-01  0.7313392E-01 -0.2779655E+01  0.6839575E-01  0.2589578E-01
  0.4761110E+01 -0.8907410E+01 -0.2568960E-01  0.7422461E-01  0.3125347E+01  0.7421481E-01 -0.1205751E-02
  0.5611260E+01 -0.8397840E+01 -0.2568960E-01  0.8566936E-01  0.2812116E+01  0.8106136E-01 -0.2771815E-01
  0.6407370E+01 -0.7807410E+01 -0.2568960E-01  0.1033015E+00  0.2600991E+01  0.8857068E-01 -0.5316431E-01
  0.7141780E+01 -0.7141780E+01 -0.2568960E-01  0.1230368E+00  0.2470283E+01  0.9633873E-01 -0.7653043E-01
  0.7807410E+01 -0.6407370E+01 -0.2568960E-01  0.1430415E+00  0.2388047E+01  0.1043155E+00 -0.9787308E-01
  0.8397840E+01 -0.5611260E+01 -0.2568960E-01  0.1626635E+00  0.2334195E+01  0.1124624E+00 -0.1175229E+00
  0.8907410E+01 -0.4761110E+01 -0.2568960E-01  0.1812352E+00  0.2297019E+01  0.1203493E+00 -0.1355074E+00
  0.9331180E+01 -0.3865100E+01 -0.2568960E-01  0.1974841E+00  0.2272419E+01  0.1274678E+00 -0.1508375E+00
  0.9665100E+01 -0.2931870E+01 -0.2568960E-01  0.2112288E+00  0.2256680E+01  0.1337833E+00 -0.1634614E+00
  0.9905930E+01 -0.1970410E+01 -0.2568960E-01  0.2226522E+00  0.2246526E+01  0.1392616E+00 -0.1737245E+00
  0.1005140E+02 -0.9899690E+00 -0.2568960E-01  0.2319298E+00  0.2238789E+01  0.1436599E+00 -0.1820803E+00
  0.1010000E+02  0.0000000E+00 -0.1027320E+00  0.2375340E+00  0.2234082E+01  0.1462520E+00 -0.1871704E+00
  0.1005140E+02  0.9899730E+00 -0.1027320E+00  0.2405629E+00  0.2232378E+01  0.1477936E+00 -0.1898093E+00
  0.9905930E+01  0.1970410E+01 -0.1027320E+00  0.2405096E+00  0.2232937E+01  0.1478669E+00 -0.1896846E+00
  0.9665100E+01  0.2931880E+01 -0.1027320E+00  0.2381999E+00  0.2233859E+01  0.1466200E+00 -0.1877278E+00
  0.9331180E+01  0.3865100E+01 -0.1027320E+00  0.2328822E+00  0.2237276E+01  0.1439731E+00 -0.1830460E+00
  0.8907400E+01  0.4761110E+01 -0.1027320E+00  0.2244890E+00  0.2244088E+01  0.1399831E+00 -0.1754995E+00
  0.8397840E+01  0.5611260E+01 -0.1027320E+00  0.2130378E+00  0.2254907E+01  0.1346366E+00 -0.1651003E+00
  0.7807410E+01  0.6407370E+01 -0.1027320E+00  0.1996646E+00  0.2269093E+01  0.1283671E+00 -0.1529308E+00
  0.7141780E+01  0.7141780E+01 -0.1027320E+00  0.1841280E+00  0.2290892E+01  0.1214245E+00 -0.1384168E+00
  0.6407370E+01  0.7807410E+01 -0.1027320E+00  0.1664177E+00  0.2324400E+01  0.1138749E+00 -0.1213564E+00
  0.5611260E+01  0.8397840E+01 -0.1027320E+00  0.1467019E+00  0.2375879E+01  0.1057557E+00 -0.1016720E+00
  0.4761110E+01  0.8907410E+01 -0.1027320E+00  0.1264834E+00  0.2451860E+01  0.9757140E-01 -0.8048529E-01
  0.3865100E+01  0.9331180E+01 -0.1027320E+00  0.1067126E+00  0.2570042E+01  0.8975201E-01 -0.5772478E-01
  0.2931870E+01  0.9665100E+01 -0.1027320E+00  0.8877280E-01  0.2758481E+01  0.8233731E-01 -0.3318399E-01
  0.1970410E+01  0.9905930E+01 -0.1027320E+00  0.7569337E-01  0.3052737E+01  0.7539475E-01 -0.6716968E-02
  0.9899730E+00  0.1005140E+02 -0.1027320E+00  0.7224683E-01 -0.2852535E+01  0.6924952E-01  0.2059392E-01
 -0.4414850E-06  0.1010000E+02 -0.1027320E+00  0.8036300E-01 -0.2497067E+01  0.6424095E-01  0.4828366E-01
 -0.9899740E+00  0.1005140E+02 -0.1027320E+00  0.9747411E-01 -0.2238587E+01  0.6036113E-01  0.7653586E-01
 -0.1970410E+01  0.9905930E+01 -0.1027320E+00  0.1202457E+00 -0.2070960E+01  0.5766614E-01  0.1055161E+00
 -0.2931880E+01  0.9665100E+01 -0.1027320E+00  0.1456539E+00 -0.1966424E+01  0.5613324E-01  0.1344028E+00
 -0.3865100E+01  0.9331180E+01 -0.1027320E+00  0.1716220E+00 -0.1901990E+01  0.5580674E-01  0.1622951E+00
 -0.4761110E+01  0.8907400E+01 -0.1027320E+00  0.1976482E+00 -0.1861425E+01  0.5663693E-01  0.1893597E+00
 -0.5611260E+01  0.8397840E+01 -0.1027320E+00  0.2236111E+00 -0.1836105E+01  0.5863253E-01  0.2157873E+00
 -0.6407370E+01  0.7807410E+01 -0.1027320E+00  0.2489096E+00 -0.1820320E+01  0.6146628E-01  0.2412009E+00
 -0.7141780E+01  0.7141780E+01 -0.1027320E+00  0.2723540E+00 -0.1811306E+01  0.6487413E-01  0.2645147E+00
 -0.7807410E+01  0.6407370E+01 -0.1027320E+00  0.2940190E+00 -0.1807003E+01  0.6880517E-01  0.2858549E+00
 -0.8397840E+01  0.5611260E+01 -0.1027320E+00  0.3140826E+00 -0.1806070E+01  0.7321551E-01  0.3054298E+00
 -0.8907410E+01  0.4761110E+01 -0.1027320E+00  0.3326274E+00 -0.1806581E+01  0.7770376E-01  0.3234240E+00
 -0.9331180E+01  0.3865100E+01 -0.1027320E+00  0.3484646E+00 -0.1807962E+01  0.8187127E-01  0.3387103E+00
 -0.9665100E+01  0.2931880E+01 -0.1027320E+00  0.3616578E+00 -0.1810048E+01  0.8570419E-01  0.3513561E+00
 -0.9905930E+01  0.1970410E+01 -0.1027320E+00  0.3723805E+00 -0.1812513E+01  0.8913644E-01  0.3615549E+00
 -0.1005140E+02  0.9899730E+00 -0.1027320E+00  0.3812031E+00 -0.1814377E+01  0.9193835E-01  0.3699501E+00
 -0.1010000E+02 -0.8829700E-06 -0.1027320E+00  0.3870365E+00 -0.1815650E+01  0.9382313E-01  0.3754923E+00
 -0.1005140E+02 -0.9899740E+00 -0.1027320E+00  0.3898433E+00 -0.1816487E+01  0.9482020E-01  0.3781361E+00
 -0.9905930E+01 -0.1970410E+01 -0.1027320E+00  0.3897370E+00 -0.1816697E+01  0.9487379E-01  0.3780131E+00
 -0.9665100E+01 -0.2931880E+01 -0.1027320E+00  0.3876353E+00 -0.1815885E+01  0.9405688E-01  0.3760511E+00
 -0.9331180E+01 -0.3865100E+01 -0.1027320E+00  0.3826734E+00 -0.1814551E+01  0.9235754E-01  0.3713611E+00
 -0.8907400E+01 -0.4761110E+01 -0.1027320E+00  0.3747303E+00 -0.1812895E+01  0.8983795E-01  0.3638020E+00
 -0.8397840E+01 -0.5611260E+01 -0.1027320E+00  0.3638151E+00 -0.1810781E+01  0.8647431E-01  0.3533887E+00
 -0.7807400E+01 -0.6407370E+01 -0.1027320E+00  0.3510540E+00 -0.1808304E+01  0.8259617E-01  0.3411990E+00
 -0.7141780E+01 -0.7141780E+01 -0.1027320E+00  0.3359595E+00 -0.1806576E+01  0.7848062E-01  0.3266643E+00
 -0.6407370E+01 -0.7807410E+01 -0.1027320E+00  0.3183483E+00 -0.1806014E+01  0.7419261E-01  0.3095821E+00
 -0.5611260E+01 -0.8397850E+01 -0.1027320E+00  0.2981511E+00 -0.1806949E+01  0.6975654E-01  0.2898760E+00
 -0.4761110E+01 -0.8907410E+01 -0.1027320E+00  0.2765498E+00 -0.1810143E+01  0.6556115E-01  0.2686662E+00
 -0.3865100E+01 -0.9331190E+01 -0.1027320E+00  0.2535847E+00 -0.1817865E+01  0.6201737E-01  0.2458842E+00
 -0.2931870E+01 -0.9665100E+01 -0.1027320E+00  0.2290948E+00 -0.1831985E+01  0.5915898E-01  0.2213247E+00
 -0.1970410E+01 -0.9905930E+01 -0.1027320E+00  0.2030203E+00 -0.1855585E+01  0.5703954E-01  0.1948428E+00
 -0.9899710E+00 -0.1005140E+02 -0.1027320E+00  0.1765895E+00 -0.1892727E+01  0.5587273E-01  0.1675174E+00
  0.1204410E-06 -0.1010000E+02 -0.1027320E+00  0.1505927E+00 -0.1951364E+01  0.5593731E-01  0.1398184E+00
  0.9899760E+00 -0.1005140E+02 -0.1027320E+00  0.1253774E+00 -0.2044674E+01  0.5721473E-01  0.1115615E+00
  0.1970410E+01 -0.9905930E+01 -0.1027320E+00  0.1019300E+00 -0.2197117E+01  0.5974806E-01  0.8258265E-01
  0.2931880E+01 -0.9665100E+01 -0.1027320E+00  0.8310483E-01 -0.2439056E+01  0.6342609E-01  0.5369863E-01
  0.3865100E+01 -0.9331180E+01 -0.1027320E+00  0.7292030E-01 -0.2779742E+01  0.6819821E-01  0.2581423E-01
  0.4761110E+01 -0.8907410E+01 -0.1027320E+00  0.7401183E-01  0.3124865E+01  0.7400147E-01 -0.1237957E-02
  0.5611260E+01 -0.8397840E+01 -0.1027320E+00  0.8543289E-01  0.2812032E+01  0.8083529E-01 -0.2764841E-01
  0.6407370E+01 -0.7807410E+01 -0.1027320E+00  0.1030240E+00  0.2600726E+01  0.8831862E-01 -0.5304493E-01
  0.7141780E+01 -0.7141780E+01 -0.1027320E+00  0.1227103E+00  0.2470170E+01  0.9607447E-01 -0.7633819E-01
  0.7807410E+01 -0.6407370E+01 -0.1027320E+00  0.1426904E+00  0.2387821E+01  0.1040374E+00 -0.9765633E-01
  0.8397840E+01 -0.5611260E+01 -0.1027320E+00  0.1622254E+00  0.2334190E+01  0.1121589E+00 -0.1172069E+00
