 VARIABLES="X" "Y" "Z" "abs(eta) (m)" "angle(phi) (rad)" "PRE1" "PRE2"
ZONE N=   3200 ,E =    3136 ,F=FEPOINT,ET=QUADRILATERAL
  0.1010000E+02  0.0000000E+00  0.0000000E+00  0.2287917E+00  0.2368429E+01  0.1637473E+00 -0.1597889E+00
  0.1005140E+02  0.9899730E+00  0.0000000E+00  0.2494669E+00  0.2347355E+01  0.1748336E+00 -0.1779521E+00
  0.9905930E+01  0.1970410E+01  0.0000000E+00  0.2669314E+00  0.2334455E+01  0.1846015E+00 -0.1928073E+00
  0.9665100E+01  0.2931880E+01  0.0000000E+00  0.2815841E+00  0.2325371E+01  0.1928791E+00 -0.2051518E+00
  0.9331180E+01  0.3865100E+01  0.0000000E+00  0.2921341E+00  0.2320340E+01  0.1990323E+00 -0.2138422E+00
  0.8907400E+01  0.4761110E+01  0.0000000E+00  0.2995474E+00  0.2316840E+01  0.2033145E+00 -0.2199815E+00
  0.8397840E+01  0.5611260E+01  0.0000000E+00  0.3027199E+00  0.2315883E+01  0.2052549E+00 -0.2225079E+00
  0.7807410E+01  0.6407370E+01  0.0000000E+00  0.3026084E+00  0.2315644E+01  0.2051261E+00 -0.2224750E+00
  0.7141780E+01  0.7141780E+01  0.0000000E+00  0.2981832E+00  0.2317695E+01  0.2025755E+00 -0.2188067E+00
  0.6407370E+01  0.7807410E+01  0.0000000E+00  0.2905403E+00  0.2320848E+01  0.1980545E+00 -0.2125749E+00
  0.5611260E+01  0.8397840E+01  0.0000000E+00  0.2786737E+00  0.2327214E+01  0.1912595E+00 -0.2026792E+00
  0.4761110E+01  0.8907410E+01  0.0000000E+00  0.2638279E+00  0.2336191E+01  0.1827857E+00 -0.1902486E+00
  0.3865100E+01  0.9331180E+01  0.0000000E+00  0.2454641E+00  0.2351304E+01  0.1727183E+00 -0.1744161E+00
  0.2931870E+01  0.9665100E+01  0.0000000E+00  0.2246462E+00  0.2373125E+01  0.1615154E+00 -0.1561368E+00
  0.1970410E+01  0.9905930E+01  0.0000000E+00  0.2007968E+00  0.2408130E+01  0.1491640E+00 -0.1344227E+00
  0.9899730E+00  0.1005140E+02  0.0000000E+00  0.1754344E+00  0.2460719E+01  0.1363166E+00 -0.1104310E+00
 -0.4414850E-06  0.1010000E+02  0.0000000E+00  0.1491511E+00  0.2545488E+01  0.1234268E+00 -0.8373681E-01
 -0.9899740E+00  0.1005140E+02  0.0000000E+00  0.1237083E+00  0.2680011E+01  0.1107621E+00 -0.5509528E-01
 -0.1970410E+01  0.9905930E+01  0.0000000E+00  0.1014289E+00  0.2903929E+01  0.9857785E-01 -0.2387966E-01
 -0.2931880E+01  0.9665100E+01  0.0000000E+00  0.8770971E-01 -0.3040747E+01  0.8726409E-01  0.8830158E-02
 -0.3865100E+01  0.9331180E+01  0.0000000E+00  0.8842985E-01 -0.2635907E+01  0.7736220E-01  0.4283606E-01
 -0.4761110E+01  0.8907400E+01  0.0000000E+00  0.1038056E+00 -0.2295845E+01  0.6884099E-01  0.7769510E-01
 -0.5611260E+01  0.8397840E+01  0.0000000E+00  0.1293835E+00 -0.2070805E+01  0.6203076E-01  0.1135442E+00
 -0.6407370E+01  0.7807410E+01  0.0000000E+00  0.1599925E+00 -0.1934261E+01  0.5687967E-01  0.1495403E+00
 -0.7141780E+01  0.7141780E+01  0.0000000E+00  0.1925836E+00 -0.1853221E+01  0.5367023E-01  0.1849539E+00
 -0.7807410E+01  0.6407370E+01  0.0000000E+00  0.2258924E+00 -0.1803680E+01  0.5213248E-01  0.2197945E+00
 -0.8397840E+01  0.5611260E+01  0.0000000E+00  0.2590717E+00 -0.1774645E+01  0.5244641E-01  0.2537075E+00
 -0.8907410E+01  0.4761110E+01  0.0000000E+00  0.2914609E+00 -0.1757813E+01  0.5419079E-01  0.2863788E+00
 -0.9331180E+01  0.3865100E+01  0.0000000E+00  0.3218779E+00 -0.1749578E+01  0.5723982E-01  0.3167475E+00
 -0.9665100E+01  0.2931880E+01  0.0000000E+00  0.3507394E+00 -0.1746435E+01  0.6128705E-01  0.3453433E+00
 -0.9905930E+01  0.1970410E+01  0.0000000E+00  0.3773341E+00 -0.1747308E+01  0.6625855E-01  0.3714712E+00
 -0.1005140E+02  0.9899730E+00  0.0000000E+00  0.4018591E+00 -0.1750088E+01  0.7166455E-01  0.3954175E+00
 -0.1010000E+02 -0.8829700E-06  0.0000000E+00  0.4231326E+00 -0.1754007E+01  0.7708928E-01  0.4160510E+00
 -0.1005140E+02 -0.9899740E+00  0.0000000E+00  0.4420293E+00 -0.1758310E+01  0.8240154E-01  0.4342809E+00
 -0.9905930E+01 -0.1970410E+01  0.0000000E+00  0.4576116E+00 -0.1762813E+01  0.8733011E-01  0.4492013E+00
 -0.9665100E+01 -0.2931880E+01  0.0000000E+00  0.4706054E+00 -0.1766771E+01  0.9163736E-01  0.4615972E+00
 -0.9331180E+01 -0.3865100E+01  0.0000000E+00  0.4798067E+00 -0.1769852E+01  0.9487864E-01  0.4703324E+00
 -0.8907400E+01 -0.4761110E+01  0.0000000E+00  0.4863046E+00 -0.1771982E+01  0.9717878E-01  0.4764960E+00
 -0.8397840E+01 -0.5611260E+01  0.0000000E+00  0.4890054E+00 -0.1773046E+01  0.9822851E-01  0.4790381E+00
 -0.7807400E+01 -0.6407370E+01  0.0000000E+00  0.4889566E+00 -0.1772934E+01  0.9816471E-01  0.4790013E+00
 -0.7141780E+01 -0.7141780E+01  0.0000000E+00  0.4850725E+00 -0.1771664E+01  0.9678141E-01  0.4753196E+00
 -0.6407370E+01 -0.7807410E+01  0.0000000E+00  0.4784537E+00 -0.1769343E+01  0.9437227E-01  0.4690542E+00
 -0.5611260E+01 -0.8397850E+01  0.0000000E+00  0.4680035E+00 -0.1765984E+01  0.9076952E-01  0.4591168E+00
 -0.4761110E+01 -0.8907410E+01  0.0000000E+00  0.4549063E+00 -0.1761856E+01  0.8638641E-01  0.4466287E+00
 -0.3865100E+01 -0.9331190E+01  0.0000000E+00  0.4383568E+00 -0.1757547E+01  0.8138832E-01  0.4307350E+00
 -0.2931870E+01 -0.9665100E+01  0.0000000E+00  0.4193387E+00 -0.1753211E+01  0.7607002E-01  0.4123813E+00
 -0.1970410E+01 -0.9905930E+01  0.0000000E+00  0.3969075E+00 -0.1749392E+01  0.7050959E-01  0.3905944E+00
 -0.9899710E+00 -0.1005140E+02  0.0000000E+00  0.3722700E+00 -0.1746725E+01  0.6515553E-01  0.3665238E+00
  0.1204410E-06 -0.1010000E+02  0.0000000E+00  0.3450977E+00 -0.1746918E+01  0.6046543E-01  0.3397593E+00
  0.9899760E+00 -0.1005140E+02  0.0000000E+00  0.3161454E+00 -0.1750678E+01  0.5656260E-01  0.3110444E+00
  0.1970410E+01 -0.9905930E+01  0.0000000E+00  0.2848809E+00 -0.1760550E+01  0.5373336E-01  0.2797675E+00
  0.2931880E+01 -0.9665100E+01  0.0000000E+00  0.2524534E+00 -0.1778973E+01  0.5217605E-01  0.2470028E+00
  0.3865100E+01 -0.9331180E+01  0.0000000E+00  0.2193014E+00 -0.1811866E+01  0.5235638E-01  0.2129599E+00
  0.4761110E+01 -0.8907410E+01  0.0000000E+00  0.1861173E+00 -0.1865955E+01  0.5413997E-01  0.1780688E+00
  0.5611260E+01 -0.8397840E+01  0.0000000E+00  0.1535155E+00 -0.1957003E+01  0.5782585E-01  0.1422082E+00
  0.6407370E+01 -0.7807410E+01  0.0000000E+00  0.1235964E+00 -0.2107609E+01  0.6320716E-01  0.1062118E+00
  0.7141780E+01 -0.7141780E+01  0.0000000E+00  0.9987590E-01 -0.2353426E+01  0.7042711E-01  0.7081819E-01
  0.7807410E+01 -0.6407370E+01  0.0000000E+00  0.8697159E-01 -0.2714774E+01  0.7916912E-01  0.3600427E-01
  0.8397840E+01 -0.5611260E+01  0.0000000E+00  0.8954586E-01 -0.3117723E+01  0.8952035E-01  0.2137179E-02
  0.8907410E+01 -0.4761110E+01  0.0000000E+00  0.1054721E+00  0.2848413E+01  0.1009716E+00 -0.3048113E-01
  0.9331180E+01 -0.3865100E+01  0.0000000E+00  0.1284935E+00  0.2648860E+01  0.1132083E+00 -0.6078191E-01
  0.9665100E+01 -0.2931870E+01  0.0000000E+00  0.1543968E+00  0.2524762E+01  0.1259439E+00 -0.8931124E-01
  0.9905930E+01 -0.1970410E+01  0.0000000E+00  0.1806100E+00  0.2448745E+01  0.1389668E+00 -0.1153611E+00
  0.1005140E+02 -0.9899690E+00  0.0000000E+00  0.2059640E+00  0.2399264E+01  0.1517741E+00 -0.1392328E+00
  0.1010000E+02  0.0000000E+00 -0.2568960E-01  0.2285650E+00  0.2368381E+01  0.1635773E+00 -0.1596384E+00
  0.1005140E+02  0.9899730E+00 -0.2568960E-01  0.2491555E+00  0.2347480E+01  0.1746375E+00 -0.1777082E+00
  0.9905930E+01  0.1970410E+01 -0.2568960E-01  0.2665683E+00  0.2334640E+01  0.1843859E+00 -0.1925110E+00
  0.9665100E+01  0.2931880E+01 -0.2568960E-01  0.2812344E+00  0.2325491E+01  0.1926643E+00 -0.2048738E+00
  0.9331180E+01  0.3865100E+01 -0.2568960E-01  0.2918476E+00  0.2320335E+01  0.1988361E+00 -0.2136334E+00
  0.8907400E+01  0.4761110E+01 -0.2568960E-01  0.2991748E+00  0.2316959E+01  0.2030876E+00 -0.2196837E+00
  0.8397840E+01  0.5611260E+01 -0.2568960E-01  0.3023084E+00  0.2316053E+01  0.2050136E+00 -0.2221707E+00
  0.7807410E+01  0.6407370E+01 -0.2568960E-01  0.3022326E+00  0.2315764E+01  0.2048980E+00 -0.2221742E+00
  0.7141780E+01  0.7141780E+01 -0.2568960E-01  0.2978910E+00  0.2317696E+01  0.2023774E+00 -0.2185920E+00
  0.6407370E+01  0.7807410E+01 -0.2568960E-01  0.2901793E+00  0.2320968E+01  0.1978340E+00 -0.2122870E+00
  0.5611260E+01  0.8397840E+01 -0.2568960E-01  0.2782946E+00  0.2327392E+01  0.1910353E+00 -0.2023695E+00
  0.4761110E+01  0.8907410E+01 -0.2568960E-01  0.2634984E+00  0.2336313E+01  0.1825805E+00 -0.1899889E+00
  0.3865100E+01  0.9331180E+01 -0.2568960E-01  0.2452216E+00  0.2351270E+01  0.1725418E+00 -0.1742497E+00
  0.2931870E+01  0.9665100E+01 -0.2568960E-01  0.2243673E+00  0.2373253E+01  0.1613348E+00 -0.1559223E+00
  0.1970410E+01  0.9905930E+01 -0.2568960E-01  0.2005252E+00  0.2408353E+01  0.1489922E+00 -0.1342075E+00
  0.9899730E+00  0.1005140E+02 -0.2568960E-01  0.1752149E+00  0.2460864E+01  0.1361620E+00 -0.1102731E+00
 -0.4414850E-06  0.1010000E+02 -0.2568960E-01  0.1489961E+00  0.2545358E+01  0.1232877E+00 -0.8366588E-01
 -0.9899740E+00  0.1005140E+02 -0.2568960E-01  0.1235590E+00  0.2680176E+01  0.1106376E+00 -0.5501055E-01
 -0.1970410E+01  0.9905930E+01 -0.2568960E-01  0.1013082E+00  0.2904290E+01  0.9846910E-01 -0.2381573E-01
 -0.2931880E+01  0.9665100E+01 -0.2568960E-01  0.8761058E-01 -0.3040548E+01  0.8716370E-01  0.8837566E-02
 -0.3865100E+01  0.9331180E+01 -0.2568960E-01  0.8831237E-01 -0.2635927E+01  0.7726027E-01  0.4277762E-01
 -0.4761110E+01  0.8907400E+01 -0.2568960E-01  0.1036917E+00 -0.2295805E+01  0.6876234E-01  0.7761257E-01
 -0.5611260E+01  0.8397840E+01 -0.2568960E-01  0.1292445E+00 -0.2070834E+01  0.6196742E-01  0.1134204E+00
 -0.6407370E+01  0.7807410E+01 -0.2568960E-01  0.1598112E+00 -0.1934257E+01  0.5681466E-01  0.1493711E+00
 -0.7141780E+01  0.7141780E+01 -0.2568960E-01  0.1923686E+00 -0.1853124E+01  0.5359242E-01  0.1847526E+00
 -0.7807410E+01  0.6407370E+01 -0.2568960E-01  0.2256254E+00 -0.1803693E+01  0.5207358E-01  0.2195340E+00
 -0.8397840E+01  0.5611260E+01 -0.2568960E-01  0.2587525E+00 -0.1774696E+01  0.5239480E-01  0.2533922E+00
 -0.8907410E+01  0.4761110E+01 -0.2568960E-01  0.2911146E+00 -0.1757831E+01  0.5413175E-01  0.2860375E+00
 -0.9331180E+01  0.3865100E+01 -0.2568960E-01  0.3215353E+00 -0.1749546E+01  0.5716888E-01  0.3164122E+00
 -0.9665100E+01  0.2931880E+01 -0.2568960E-01  0.3503156E+00 -0.1746457E+01  0.6122072E-01  0.3449247E+00
 -0.9905930E+01  0.1970410E+01 -0.2568960E-01  0.3768526E+00 -0.1747349E+01  0.6618924E-01  0.3709944E+00
 -0.1005140E+02  0.9899730E+00 -0.2568960E-01  0.4013731E+00 -0.1750118E+01  0.7158961E-01  0.3949371E+00
 -0.1010000E+02 -0.8829700E-06 -0.2568960E-01  0.4226869E+00 -0.1754018E+01  0.7701284E-01  0.4156119E+00
 -0.1005140E+02 -0.9899740E+00 -0.2568960E-01  0.4414907E+00 -0.1758342E+01  0.8231492E-01  0.4337490E+00
 -0.9905930E+01 -0.1970410E+01 -0.2568960E-01  0.4570202E+00 -0.1762851E+01  0.8723449E-01  0.4486174E+00
 -0.9665100E+01 -0.2931880E+01 -0.2568960E-01  0.4700315E+00 -0.1766807E+01  0.9154245E-01  0.4610310E+00
 -0.9331180E+01 -0.3865100E+01 -0.2568960E-01  0.4793018E+00 -0.1769886E+01  0.9479494E-01  0.4698341E+00
 -0.8907400E+01 -0.4761110E+01 -0.2568960E-01  0.4857098E+00 -0.1772020E+01  0.9707797E-01  0.4759095E+00
 -0.8397840E+01 -0.5611260E+01 -0.2568960E-01  0.4883702E+00 -0.1773084E+01  0.9811901E-01  0.4784121E+00
 -0.7807400E+01 -0.6407370E+01 -0.2568960E-01  0.4883586E+00 -0.1772972E+01  0.9806282E-01  0.4784118E+00
 -0.7141780E+01 -0.7141780E+01 -0.2568960E-01  0.4845622E+00 -0.1771701E+01  0.9669707E-01  0.4748159E+00
 -0.6407370E+01 -0.7807410E+01 -0.2568960E-01  0.4778693E+00 -0.1769380E+01  0.9427478E-01  0.4684776E+00
 -0.5611260E+01 -0.8397850E+01 -0.2568960E-01  0.4673972E+00 -0.1766022E+01  0.9066935E-01  0.4585184E+00
 -0.4761110E+01 -0.8907410E+01 -0.2568960E-01  0.4543509E+00 -0.1761889E+01  0.8629575E-01  0.4460805E+00
 -0.3865100E+01 -0.9331190E+01 -0.2568960E-01  0.4378952E+00 -0.1757565E+01  0.8131026E-01  0.4302800E+00
 -0.2931870E+01 -0.9665100E+01 -0.2568960E-01  0.4188306E+00 -0.1753242E+01  0.7599070E-01  0.4118792E+00
 -0.1970410E+01 -0.9905930E+01 -0.2568960E-01  0.3963988E+00 -0.1749432E+01  0.7043488E-01  0.3900909E+00
 -0.9899710E+00 -0.1005140E+02 -0.2568960E-01  0.3718188E+00 -0.1746749E+01  0.6508561E-01  0.3660780E+00
  0.1204410E-06 -0.1010000E+02 -0.2568960E-01  0.3447314E+00 -0.1746897E+01  0.6039405E-01  0.3393999E+00
  0.9899760E+00 -0.1005140E+02 -0.2568960E-01  0.3157679E+00 -0.1750700E+01  0.5650193E-01  0.3106717E+00
  0.1970410E+01 -0.9905930E+01 -0.2568960E-01  0.2845260E+00 -0.1760598E+01  0.5367996E-01  0.2794163E+00
  0.2931880E+01 -0.9665100E+01 -0.2568960E-01  0.2521521E+00 -0.1778987E+01  0.5211742E-01  0.2467073E+00
  0.3865100E+01 -0.9331180E+01 -0.2568960E-01  0.2190601E+00 -0.1811784E+01  0.5228120E-01  0.2127299E+00
  0.4761110E+01 -0.8907410E+01 -0.2568960E-01  0.1859033E+00 -0.1865960E+01  0.5407857E-01  0.1778639E+00
  0.5611260E+01 -0.8397840E+01 -0.2568960E-01  0.1533426E+00 -0.1957052E+01  0.5776765E-01  0.1420453E+00
  0.6407370E+01 -0.7807410E+01 -0.2568960E-01  0.1234577E+00 -0.2107597E+01  0.6313492E-01  0.1060933E+00
  0.7141780E+01 -0.7141780E+01 -0.2568960E-01  0.9974714E-01 -0.2353360E+01  0.7033166E-01  0.7073153E-01
  0.7807410E+01 -0.6407370E+01 -0.2568960E-01  0.8687795E-01 -0.2714621E+01  0.7907840E-01  0.3597755E-01
  0.8397840E+01 -0.5611260E+01 -0.2568960E-01  0.8944907E-01 -0.3117381E+01  0.8942285E-01  0.2165491E-02
  0.8907410E+01 -0.4761110E+01 -0.2568960E-01  0.1053469E+00  0.2848588E+01  0.1008570E+00 -0.3042735E-01
  0.9331180E+01 -0.3865100E+01 -0.2568960E-01  0.1283554E+00  0.2648699E+01  0.1130769E+00 -0.6073477E-01
  0.9665100E+01 -0.2931870E+01 -0.2568960E-01  0.1542044E+00  0.2524920E+01  0.1258011E+00 -0.8918007E-01
  0.9905930E+01 -0.1970410E+01 -0.2568960E-01  0.1803665E+00  0.2448989E+01  0.1388076E+00 -0.1151718E+00
  0.1005140E+02 -0.9899690E+00 -0.2568960E-01  0.2057089E+00  0.2399396E+01  0.1516045E+00 -0.1390404E+00
  0.1010000E+02  0.0000000E+00 -0.1027320E+00  0.2279454E+00  0.2367942E+01  0.1630640E+00 -0.1592773E+00
  0.1005140E+02  0.9899730E+00 -0.1027320E+00  0.2483589E+00  0.2347381E+01  0.1740616E+00 -0.1771572E+00
  0.9905930E+01  0.1970410E+01 -0.1027320E+00  0.2657638E+00  0.2334471E+01  0.1837970E+00 -0.1919611E+00
  0.9665100E+01  0.2931880E+01 -0.1027320E+00  0.2803464E+00  0.2325417E+01  0.1920407E+00 -0.2042413E+00
  0.9331180E+01  0.3865100E+01 -0.1027320E+00  0.2910651E+00  0.2320037E+01  0.1982395E+00 -0.2131196E+00
  0.8907400E+01  0.4761110E+01 -0.1027320E+00  0.2982261E+00  0.2316893E+01  0.2024291E+00 -0.2190006E+00
  0.8397840E+01  0.5611260E+01 -0.1027320E+00  0.3013986E+00  0.2315922E+01  0.2043677E+00 -0.2215287E+00
  0.7807410E+01  0.6407370E+01 -0.1027320E+00  0.3012743E+00  0.2315701E+01  0.2042344E+00 -0.2214826E+00
  0.7141780E+01  0.7141780E+01 -0.1027320E+00  0.2970926E+00  0.2317409E+01  0.2017722E+00 -0.2180641E+00
  0.6407370E+01  0.7807410E+01 -0.1027320E+00  0.2892621E+00  0.2320898E+01  0.1971939E+00 -0.2116298E+00
  0.5611260E+01  0.8397840E+01 -0.1027320E+00  0.2774557E+00  0.2327237E+01  0.1904282E+00 -0.2017890E+00
  0.4761110E+01  0.8907410E+01 -0.1027320E+00  0.2626582E+00  0.2336224E+01  0.1819815E+00 -0.1893993E+00
  0.3865100E+01  0.9331180E+01 -0.1027320E+00  0.2445593E+00  0.2350874E+01  0.1720071E+00 -0.1738472E+00
  0.2931870E+01  0.9665100E+01 -0.1027320E+00  0.2236587E+00  0.2373135E+01  0.1608069E+00 -0.1554489E+00
  0.1970410E+01  0.9905930E+01 -0.1027320E+00  0.1999132E+00  0.2408090E+01  0.1485024E+00 -0.1338370E+00
  0.9899730E+00  0.1005140E+02 -0.1027320E+00  0.1746451E+00  0.2460704E+01  0.1357017E+00 -0.1099362E+00
 -0.4414850E-06  0.1010000E+02 -0.1027320E+00  0.1485673E+00  0.2544613E+01  0.1228707E+00 -0.8351674E-01
 -0.9899740E+00  0.1005140E+02 -0.1027320E+00  0.1231576E+00  0.2679889E+01  0.1102624E+00 -0.5486353E-01
 -0.1970410E+01  0.9905930E+01 -0.1027320E+00  0.1009640E+00  0.2903790E+01  0.9812266E-01 -0.2378381E-01
 -0.2931880E+01  0.9665100E+01 -0.1027320E+00  0.8729786E-01 -0.3040665E+01  0.8685361E-01  0.8795797E-02
 -0.3865100E+01  0.9331180E+01 -0.1027320E+00  0.8795266E-01 -0.2636239E+01  0.7695887E-01  0.4257937E-01
 -0.4761110E+01  0.8907400E+01 -0.1027320E+00  0.1033190E+00 -0.2295793E+01  0.6851422E-01  0.7733446E-01
 -0.5611260E+01  0.8397840E+01 -0.1027320E+00  0.1287915E+00 -0.2070646E+01  0.6172891E-01  0.1130344E+00
 -0.6407370E+01  0.7807410E+01 -0.1027320E+00  0.1592789E+00 -0.1934111E+01  0.5660358E-01  0.1488818E+00
 -0.7141780E+01  0.7141780E+01 -0.1027320E+00  0.1917416E+00 -0.1852819E+01  0.5336157E-01  0.1841667E+00
 -0.7807410E+01  0.6407370E+01 -0.1027320E+00  0.2248695E+00 -0.1803600E+01  0.5187892E-01  0.2188033E+00
 -0.8397840E+01  0.5611260E+01 -0.1027320E+00  0.2579165E+00 -0.1774570E+01  0.5219368E-01  0.2525801E+00
 -0.8907410E+01  0.4761110E+01 -0.1027320E+00  0.2901681E+00 -0.1757773E+01  0.5393897E-01  0.2851107E+00
 -0.9331180E+01  0.3865100E+01 -0.1027320E+00  0.3205645E+00 -0.1749398E+01  0.5694953E-01  0.3154653E+00
 -0.9665100E+01  0.2931880E+01 -0.1027320E+00  0.3491667E+00 -0.1746413E+01  0.6100470E-01  0.3437961E+00
 -0.9905930E+01  0.1970410E+01 -0.1027320E+00  0.3756595E+00 -0.1747301E+01  0.6596189E-01  0.3698231E+00
 -0.1005140E+02  0.9899730E+00 -0.1027320E+00  0.4000732E+00 -0.1750105E+01  0.7135293E-01  0.3936589E+00
 -0.1010000E+02 -0.8829700E-06 -0.1027320E+00  0.4214403E+00 -0.1753972E+01  0.7676677E-01  0.4143897E+00
 -0.1005140E+02 -0.9899740E+00 -0.1027320E+00  0.4400534E+00 -0.1758333E+01  0.8204309E-01  0.4323378E+00
 -0.9905930E+01 -0.1970410E+01 -0.1027320E+00  0.4555824E+00 -0.1762848E+01  0.8695873E-01  0.4472063E+00
 -0.9665100E+01 -0.2931880E+01 -0.1027320E+00  0.4685096E+00 -0.1766817E+01  0.9125042E-01  0.4595374E+00
 -0.9331180E+01 -0.3865100E+01 -0.1027320E+00  0.4778986E+00 -0.1769891E+01  0.9451985E-01  0.4684582E+00
 -0.8907400E+01 -0.4761110E+01 -0.1027320E+00  0.4841348E+00 -0.1772029E+01  0.9676752E-01  0.4743654E+00
 -0.8397840E+01 -0.5611260E+01 -0.1027320E+00  0.4868367E+00 -0.1773098E+01  0.9781732E-01  0.4769086E+00
 -0.7807400E+01 -0.6407370E+01 -0.1027320E+00  0.4867761E+00 -0.1772984E+01  0.9775072E-01  0.4768603E+00
 -0.7141780E+01 -0.7141780E+01 -0.1027320E+00  0.4831448E+00 -0.1771710E+01  0.9641856E-01  0.4734263E+00
 -0.6407370E+01 -0.7807410E+01 -0.1027320E+00  0.4763225E+00 -0.1769391E+01  0.9397466E-01  0.4669602E+00
 -0.5611260E+01 -0.8397850E+01 -0.1027320E+00  0.4659284E+00 -0.1766024E+01  0.9038547E-01  0.4570774E+00
 -0.4761110E+01 -0.8907410E+01 -0.1027320E+00  0.4528733E+00 -0.1761885E+01  0.8601312E-01  0.4446302E+00
 -0.3865100E+01 -0.9331190E+01 -0.1027320E+00  0.4366063E+00 -0.1757533E+01  0.8105747E-01  0.4290160E+00
 -0.2931870E+01 -0.9665100E+01 -0.1027320E+00  0.4174745E+00 -0.1753236E+01  0.7574229E-01  0.4105461E+00
 -0.1970410E+01 -0.9905930E+01 -0.1027320E+00  0.3951462E+00 -0.1749395E+01  0.7019814E-01  0.3888608E+00
 -0.9899710E+00 -0.1005140E+02 -0.1027320E+00  0.3706015E+00 -0.1746713E+01  0.6485920E-01  0.3648818E+00
  0.1204410E-06 -0.1010000E+02 -0.1027320E+00  0.3436976E+00 -0.1746775E+01  0.6017160E-01  0.3383894E+00
  0.9899760E+00 -0.1005140E+02 -0.1027320E+00  0.3147429E+00 -0.1750652E+01  0.5630362E-01  0.3096659E+00
  0.1970410E+01 -0.9905930E+01 -0.1027320E+00  0.2836128E+00 -0.1760489E+01  0.5347731E-01  0.2785254E+00
  0.2931880E+01 -0.9665100E+01 -0.1027320E+00  0.2513132E+00 -0.1778904E+01  0.5192358E-01  0.2458908E+00
  0.3865100E+01 -0.9331180E+01 -0.1027320E+00  0.2183637E+00 -0.1811510E+01  0.5205690E-01  0.2120678E+00
  0.4761110E+01 -0.8907410E+01 -0.1027320E+00  0.1852896E+00 -0.1865834E+01  0.5387768E-01  0.1772835E+00
  0.5611260E+01 -0.8397840E+01 -0.1027320E+00  0.1528196E+00 -0.1956854E+01  0.5754261E-01  0.1415721E+00
  0.6407370E+01 -0.7807410E+01 -0.1027320E+00  0.1230227E+00 -0.2107521E+01  0.6290443E-01  0.1057243E+00
  0.7141780E+01 -0.7141780E+01 -0.1027320E+00  0.9935287E-01 -0.2353288E+01  0.7004861E-01  0.7045698E-01
  0.7807410E+01 -0.6407370E+01 -0.1027320E+00  0.8656575E-01 -0.2714608E+01  0.7879377E-01  0.3584928E-01
  0.8397840E+01 -0.5611260E+01 -0.1027320E+00  0.8912755E-01 -0.3117825E+01  0.8910237E-01  0.2118177E-02
