 VARIABLES="X" "Y" "Z" "abs(eta) (m)" "angle(phi) (rad)" "PRE1" "PRE2"
ZONE N=   3200 ,E =    3136 ,F=FEPOINT,ET=QUADRILATERAL
  0.1010000E+02  0.0000000E+00  0.0000000E+00  0.4676698E+00  0.2572667E+01  0.3940025E+00 -0.2519466E+00
  0.1005140E+02  0.9899730E+00  0.0000000E+00  0.4648064E+00  0.2572712E+01  0.3916015E+00 -0.2503862E+00
  0.9905930E+01  0.1970410E+01  0.0000000E+00  0.4552619E+00  0.2573705E+01  0.3838035E+00 -0.2448637E+00
  0.9665100E+01  0.2931880E+01  0.0000000E+00  0.4395803E+00  0.2576011E+01  0.3711276E+00 -0.2355741E+00
  0.9331180E+01  0.3865100E+01  0.0000000E+00  0.4180215E+00  0.2580762E+01  0.3539864E+00 -0.2223413E+00
  0.8907400E+01  0.4761110E+01  0.0000000E+00  0.3915143E+00  0.2588124E+01  0.3330637E+00 -0.2057961E+00
  0.8397840E+01  0.5611260E+01  0.0000000E+00  0.3592991E+00  0.2601041E+01  0.3080721E+00 -0.1848986E+00
  0.7807410E+01  0.6407370E+01  0.0000000E+00  0.3227169E+00  0.2622732E+01  0.2802424E+00 -0.1600324E+00
  0.7141780E+01  0.7141780E+01  0.0000000E+00  0.2830585E+00  0.2659240E+01  0.2507632E+00 -0.1313009E+00
  0.6407370E+01  0.7807410E+01  0.0000000E+00  0.2414701E+00  0.2718272E+01  0.2201555E+00 -0.9919356E-01
  0.5611260E+01  0.8397840E+01  0.0000000E+00  0.1987552E+00  0.2820250E+01  0.1885813E+00 -0.6277506E-01
  0.4761110E+01  0.8907410E+01  0.0000000E+00  0.1590354E+00  0.2997041E+01  0.1573768E+00 -0.2290879E-01
  0.3865100E+01  0.9331180E+01  0.0000000E+00  0.1294354E+00 -0.2989367E+01  0.1279386E+00  0.1962735E-01
  0.2931870E+01  0.9665100E+01  0.0000000E+00  0.1193307E+00 -0.2570748E+01  0.1004102E+00  0.6447954E-01
  0.1970410E+01  0.9905930E+01  0.0000000E+00  0.1350794E+00 -0.2161606E+01  0.7524373E-01  0.1121821E+00
  0.9899730E+00  0.1005140E+02  0.0000000E+00  0.1698712E+00 -0.1889122E+01  0.5316582E-01  0.1613370E+00
 -0.4414850E-06  0.1010000E+02  0.0000000E+00  0.2134648E+00 -0.1735349E+01  0.3496799E-01  0.2105812E+00
 -0.9899740E+00  0.1005140E+02  0.0000000E+00  0.2606764E+00 -0.1649068E+01  0.2038288E-01  0.2598783E+00
 -0.1970410E+01  0.9905930E+01  0.0000000E+00  0.3093944E+00 -0.1602491E+01  0.9804518E-02  0.3092390E+00
 -0.2931880E+01  0.9665100E+01  0.0000000E+00  0.3573094E+00 -0.1579035E+01  0.2943840E-02  0.3572973E+00
 -0.3865100E+01  0.9331180E+01  0.0000000E+00  0.4026294E+00 -0.1569810E+01 -0.3972534E-03  0.4026292E+00
 -0.4761110E+01  0.8907400E+01  0.0000000E+00  0.4457116E+00 -0.1569310E+01 -0.6625656E-03  0.4457110E+00
 -0.5611260E+01  0.8397840E+01  0.0000000E+00  0.4862249E+00 -0.1575373E+01  0.2225314E-02  0.4862199E+00
 -0.6407370E+01  0.7807410E+01  0.0000000E+00  0.5234017E+00 -0.1584714E+01  0.7284170E-02  0.5233511E+00
 -0.7141780E+01  0.7141780E+01  0.0000000E+00  0.5563668E+00 -0.1595307E+01  0.1363560E-01  0.5561997E+00
 -0.7807410E+01  0.6407370E+01  0.0000000E+00  0.5860170E+00 -0.1606662E+01  0.2101336E-01  0.5856401E+00
 -0.8397840E+01  0.5611260E+01  0.0000000E+00  0.6119017E+00 -0.1618503E+01  0.2918077E-01  0.6112055E+00
 -0.8907410E+01  0.4761110E+01  0.0000000E+00  0.6338522E+00 -0.1629519E+01  0.3720010E-01  0.6327597E+00
 -0.9331180E+01  0.3865100E+01  0.0000000E+00  0.6513820E+00 -0.1638664E+01  0.4417394E-01  0.6498824E+00
 -0.9665100E+01  0.2931880E+01  0.0000000E+00  0.6654580E+00 -0.1646272E+01  0.5017850E-01  0.6635634E+00
 -0.9905930E+01  0.1970410E+01  0.0000000E+00  0.6754229E+00 -0.1652072E+01  0.5483487E-01  0.6731933E+00
 -0.1005140E+02  0.9899730E+00  0.0000000E+00  0.6813922E+00 -0.1655708E+01  0.5778890E-01  0.6789373E+00
 -0.1010000E+02 -0.8829700E-06  0.0000000E+00  0.6831062E+00 -0.1656785E+01  0.5866740E-01  0.6805822E+00
 -0.1005140E+02 -0.9899740E+00  0.0000000E+00  0.6813923E+00 -0.1655708E+01  0.5778891E-01  0.6789374E+00
 -0.9905930E+01 -0.1970410E+01  0.0000000E+00  0.6754232E+00 -0.1652072E+01  0.5483485E-01  0.6731936E+00
 -0.9665100E+01 -0.2931880E+01  0.0000000E+00  0.6654577E+00 -0.1646272E+01  0.5017849E-01  0.6635632E+00
 -0.9331180E+01 -0.3865100E+01  0.0000000E+00  0.6513819E+00 -0.1638664E+01  0.4417395E-01  0.6498823E+00
 -0.8907400E+01 -0.4761110E+01  0.0000000E+00  0.6338525E+00 -0.1629519E+01  0.3720033E-01  0.6327600E+00
 -0.8397840E+01 -0.5611260E+01  0.0000000E+00  0.6119017E+00 -0.1618503E+01  0.2918077E-01  0.6112055E+00
 -0.7807400E+01 -0.6407370E+01  0.0000000E+00  0.5860185E+00 -0.1606662E+01  0.2101364E-01  0.5856416E+00
 -0.7141780E+01 -0.7141780E+01  0.0000000E+00  0.5563663E+00 -0.1595307E+01  0.1363566E-01  0.5561991E+00
 -0.6407370E+01 -0.7807410E+01  0.0000000E+00  0.5234017E+00 -0.1584714E+01  0.7284172E-02  0.5233510E+00
 -0.5611260E+01 -0.8397850E+01  0.0000000E+00  0.4862245E+00 -0.1575373E+01  0.2225256E-02  0.4862194E+00
 -0.4761110E+01 -0.8907410E+01  0.0000000E+00  0.4457113E+00 -0.1569309E+01 -0.6627869E-03  0.4457108E+00
 -0.3865100E+01 -0.9331190E+01  0.0000000E+00  0.4026293E+00 -0.1569810E+01 -0.3972418E-03  0.4026291E+00
 -0.2931870E+01 -0.9665100E+01  0.0000000E+00  0.3573097E+00 -0.1579036E+01  0.2944174E-02  0.3572976E+00
 -0.1970410E+01 -0.9905930E+01  0.0000000E+00  0.3093946E+00 -0.1602491E+01  0.9804585E-02  0.3092392E+00
 -0.9899710E+00 -0.1005140E+02  0.0000000E+00  0.2606766E+00 -0.1649068E+01  0.2038284E-01  0.2598785E+00
  0.1204410E-06 -0.1010000E+02  0.0000000E+00  0.2134651E+00 -0.1735349E+01  0.3496799E-01  0.2105815E+00
  0.9899760E+00 -0.1005140E+02  0.0000000E+00  0.1698712E+00 -0.1889123E+01  0.5316594E-01  0.1613369E+00
  0.1970410E+01 -0.9905930E+01  0.0000000E+00  0.1350796E+00 -0.2161605E+01  0.7524374E-01  0.1121823E+00
  0.2931880E+01 -0.9665100E+01  0.0000000E+00  0.1193307E+00 -0.2570750E+01  0.1004103E+00  0.6447934E-01
  0.3865100E+01 -0.9331180E+01  0.0000000E+00  0.1294356E+00 -0.2989364E+01  0.1279388E+00  0.1962775E-01
  0.4761110E+01 -0.8907410E+01  0.0000000E+00  0.1590350E+00  0.2997043E+01  0.1573765E+00 -0.2290847E-01
  0.5611260E+01 -0.8397840E+01  0.0000000E+00  0.1987548E+00  0.2820251E+01  0.1885811E+00 -0.6277459E-01
  0.6407370E+01 -0.7807410E+01  0.0000000E+00  0.2414695E+00  0.2718273E+01  0.2201550E+00 -0.9919317E-01
  0.7141780E+01 -0.7141780E+01  0.0000000E+00  0.2830584E+00  0.2659242E+01  0.2507634E+00 -0.1313004E+00
  0.7807410E+01 -0.6407370E+01  0.0000000E+00  0.3227165E+00  0.2622732E+01  0.2802421E+00 -0.1600322E+00
  0.8397840E+01 -0.5611260E+01  0.0000000E+00  0.3592987E+00  0.2601041E+01  0.3080716E+00 -0.1848985E+00
  0.8907410E+01 -0.4761110E+01  0.0000000E+00  0.3915135E+00  0.2588125E+01  0.3330632E+00 -0.2057955E+00
  0.9331180E+01 -0.3865100E+01  0.0000000E+00  0.4180213E+00  0.2580763E+01  0.3539864E+00 -0.2223408E+00
  0.9665100E+01 -0.2931870E+01  0.0000000E+00  0.4395801E+00  0.2576012E+01  0.3711277E+00 -0.2355736E+00
  0.9905930E+01 -0.1970410E+01  0.0000000E+00  0.4552613E+00  0.2573705E+01  0.3838032E+00 -0.2448633E+00
  0.1005140E+02 -0.9899690E+00  0.0000000E+00  0.4648062E+00  0.2572712E+01  0.3916013E+00 -0.2503861E+00
  0.1010000E+02  0.0000000E+00 -0.2568960E-01  0.4669903E+00  0.2572606E+01  0.3934148E+00 -0.2516043E+00
  0.1005140E+02  0.9899730E+00 -0.2568960E-01  0.4641501E+00  0.2572632E+01  0.3910286E+00 -0.2500639E+00
  0.9905930E+01  0.1970410E+01 -0.2568960E-01  0.4545300E+00  0.2573723E+01  0.3831909E+00 -0.2444633E+00
  0.9665100E+01  0.2931880E+01 -0.2568960E-01  0.4389606E+00  0.2575925E+01  0.3705841E+00 -0.2352740E+00
  0.9331180E+01  0.3865100E+01 -0.2568960E-01  0.4174158E+00  0.2580689E+01  0.3534572E+00 -0.2220448E+00
  0.8907400E+01  0.4761110E+01 -0.2568960E-01  0.3909624E+00  0.2588019E+01  0.3325726E+00 -0.2055409E+00
  0.8397840E+01  0.5611260E+01 -0.2568960E-01  0.3587263E+00  0.2601061E+01  0.3075846E+00 -0.1845975E+00
  0.7807410E+01  0.6407370E+01 -0.2568960E-01  0.3222633E+00  0.2622593E+01  0.2798263E+00 -0.1598463E+00
  0.7141780E+01  0.7141780E+01 -0.2568960E-01  0.2826494E+00  0.2659115E+01  0.2503844E+00 -0.1311423E+00
  0.6407370E+01  0.7807410E+01 -0.2568960E-01  0.2411266E+00  0.2718075E+01  0.2198227E+00 -0.9909578E-01
  0.5611260E+01  0.8397840E+01 -0.2568960E-01  0.1984470E+00  0.2820267E+01  0.1882900E+00 -0.6267450E-01
  0.4761110E+01  0.8907410E+01 -0.2568960E-01  0.1587972E+00  0.2996729E+01  0.1571339E+00 -0.2292358E-01
  0.3865100E+01  0.9331180E+01 -0.2568960E-01  0.1292295E+00 -0.2989645E+01  0.1277406E+00  0.1956064E-01
  0.2931870E+01  0.9665100E+01 -0.2568960E-01  0.1191193E+00 -0.2570999E+01  0.1002485E+00  0.6434007E-01
  0.1970410E+01  0.9905930E+01 -0.2568960E-01  0.1348664E+00 -0.2161726E+01  0.7513858E-01  0.1119962E+00
  0.9899730E+00  0.1005140E+02 -0.2568960E-01  0.1695766E+00 -0.1889126E+01  0.5307423E-01  0.1610570E+00
 -0.4414850E-06  0.1010000E+02 -0.2568960E-01  0.2131112E+00 -0.1735351E+01  0.3491037E-01  0.2102323E+00
 -0.9899740E+00  0.1005140E+02 -0.2568960E-01  0.2602553E+00 -0.1649037E+01  0.2034177E-01  0.2594592E+00
 -0.1970410E+01  0.9905930E+01 -0.2568960E-01  0.3088863E+00 -0.1602547E+01  0.9805797E-02  0.3087306E+00
 -0.2931880E+01  0.9665100E+01 -0.2568960E-01  0.3567493E+00 -0.1579018E+01  0.2932956E-02  0.3567372E+00
 -0.3865100E+01  0.9331180E+01 -0.2568960E-01  0.4019967E+00 -0.1569814E+01 -0.3947328E-03  0.4019965E+00
 -0.4761110E+01  0.8907400E+01 -0.2568960E-01  0.4450249E+00 -0.1569311E+01 -0.6612130E-03  0.4450244E+00
 -0.5611260E+01  0.8397840E+01 -0.2568960E-01  0.4854264E+00 -0.1575406E+01  0.2237701E-02  0.4854212E+00
 -0.6407370E+01  0.7807410E+01 -0.2568960E-01  0.5226008E+00 -0.1584728E+01  0.7280671E-02  0.5225500E+00
 -0.7141780E+01  0.7141780E+01 -0.2568960E-01  0.5555040E+00 -0.1595330E+01  0.1362717E-01  0.5553368E+00
 -0.7807410E+01  0.6407370E+01 -0.2568960E-01  0.5851259E+00 -0.1606690E+01  0.2099775E-01  0.5847490E+00
 -0.8397840E+01  0.5611260E+01 -0.2568960E-01  0.6108980E+00 -0.1618527E+01  0.2914731E-01  0.6102023E+00
 -0.8907410E+01  0.4761110E+01 -0.2568960E-01  0.6328886E+00 -0.1629555E+01  0.3716619E-01  0.6317964E+00
 -0.9331180E+01  0.3865100E+01 -0.2568960E-01  0.6503762E+00 -0.1638699E+01  0.4412821E-01  0.6488774E+00
 -0.9665100E+01  0.2931880E+01 -0.2568960E-01  0.6644471E+00 -0.1646315E+01  0.5013062E-01  0.6625533E+00
 -0.9905930E+01  0.1970410E+01 -0.2568960E-01  0.6743152E+00 -0.1652091E+01  0.5475817E-01  0.6720882E+00
 -0.1005140E+02  0.9899730E+00 -0.2568960E-01  0.6803588E+00 -0.1655754E+01  0.5773211E-01  0.6779049E+00
 -0.1010000E+02 -0.8829700E-06 -0.2568960E-01  0.6820536E+00 -0.1656824E+01  0.5860335E-01  0.6795312E+00
 -0.1005140E+02 -0.9899740E+00 -0.2568960E-01  0.6803582E+00 -0.1655754E+01  0.5773209E-01  0.6779044E+00
 -0.9905930E+01 -0.1970410E+01 -0.2568960E-01  0.6743156E+00 -0.1652092E+01  0.5475821E-01  0.6720886E+00
 -0.9665100E+01 -0.2931880E+01 -0.2568960E-01  0.6644481E+00 -0.1646315E+01  0.5013069E-01  0.6625543E+00
 -0.9331180E+01 -0.3865100E+01 -0.2568960E-01  0.6503761E+00 -0.1638699E+01  0.4412825E-01  0.6488774E+00
 -0.8907400E+01 -0.4761110E+01 -0.2568960E-01  0.6328889E+00 -0.1629555E+01  0.3716644E-01  0.6317967E+00
 -0.8397840E+01 -0.5611260E+01 -0.2568960E-01  0.6108978E+00 -0.1618527E+01  0.2914721E-01  0.6102021E+00
 -0.7807400E+01 -0.6407370E+01 -0.2568960E-01  0.5851258E+00 -0.1606690E+01  0.2099794E-01  0.5847489E+00
 -0.7141780E+01 -0.7141780E+01 -0.2568960E-01  0.5555047E+00 -0.1595330E+01  0.1362722E-01  0.5553375E+00
 -0.6407370E+01 -0.7807410E+01 -0.2568960E-01  0.5226010E+00 -0.1584729E+01  0.7280768E-02  0.5225503E+00
 -0.5611260E+01 -0.8397850E+01 -0.2568960E-01  0.4854262E+00 -0.1575406E+01  0.2237600E-02  0.4854211E+00
 -0.4761110E+01 -0.8907410E+01 -0.2568960E-01  0.4450242E+00 -0.1569311E+01 -0.6611738E-03  0.4450237E+00
 -0.3865100E+01 -0.9331190E+01 -0.2568960E-01  0.4019964E+00 -0.1569814E+01 -0.3948167E-03  0.4019962E+00
 -0.2931870E+01 -0.9665100E+01 -0.2568960E-01  0.3567489E+00 -0.1579018E+01  0.2933118E-02  0.3567368E+00
 -0.1970410E+01 -0.9905930E+01 -0.2568960E-01  0.3088865E+00 -0.1602547E+01  0.9805734E-02  0.3087308E+00
 -0.9899710E+00 -0.1005140E+02 -0.2568960E-01  0.2602553E+00 -0.1649037E+01  0.2034192E-01  0.2594591E+00
  0.1204410E-06 -0.1010000E+02 -0.2568960E-01  0.2131112E+00 -0.1735351E+01  0.3491040E-01  0.2102324E+00
  0.9899760E+00 -0.1005140E+02 -0.2568960E-01  0.1695767E+00 -0.1889127E+01  0.5307435E-01  0.1610571E+00
  0.1970410E+01 -0.9905930E+01 -0.2568960E-01  0.1348666E+00 -0.2161725E+01  0.7513850E-01  0.1119964E+00
  0.2931880E+01 -0.9665100E+01 -0.2568960E-01  0.1191193E+00 -0.2571002E+01  0.1002487E+00  0.6433988E-01
  0.3865100E+01 -0.9331180E+01 -0.2568960E-01  0.1292296E+00 -0.2989643E+01  0.1277406E+00  0.1956094E-01
  0.4761110E+01 -0.8907410E+01 -0.2568960E-01  0.1587972E+00  0.2996732E+01  0.1571340E+00 -0.2292318E-01
  0.5611260E+01 -0.8397840E+01 -0.2568960E-01  0.1984468E+00  0.2820270E+01  0.1882900E+00 -0.6267387E-01
  0.6407370E+01 -0.7807410E+01 -0.2568960E-01  0.2411264E+00  0.2718074E+01  0.2198226E+00 -0.9909584E-01
  0.7141780E+01 -0.7141780E+01 -0.2568960E-01  0.2826490E+00  0.2659116E+01  0.2503842E+00 -0.1311419E+00
  0.7807410E+01 -0.6407370E+01 -0.2568960E-01  0.3222630E+00  0.2622594E+01  0.2798262E+00 -0.1598459E+00
  0.8397840E+01 -0.5611260E+01 -0.2568960E-01  0.3587258E+00  0.2601061E+01  0.3075842E+00 -0.1845973E+00
  0.8907410E+01 -0.4761110E+01 -0.2568960E-01  0.3909618E+00  0.2588020E+01  0.3325723E+00 -0.2055402E+00
  0.9331180E+01 -0.3865100E+01 -0.2568960E-01  0.4174150E+00  0.2580691E+01  0.3534569E+00 -0.2220439E+00
  0.9665100E+01 -0.2931870E+01 -0.2568960E-01  0.4389606E+00  0.2575925E+01  0.3705842E+00 -0.2352738E+00
  0.9905930E+01 -0.1970410E+01 -0.2568960E-01  0.4545299E+00  0.2573723E+01  0.3831908E+00 -0.2444633E+00
  0.1005140E+02 -0.9899690E+00 -0.2568960E-01  0.4641501E+00  0.2572633E+01  0.3910288E+00 -0.2500636E+00
  0.1010000E+02  0.0000000E+00 -0.1027320E+00  0.4650075E+00  0.2572353E+01  0.3916810E+00 -0.2506351E+00
  0.1005140E+02  0.9899730E+00 -0.1027320E+00  0.4620965E+00  0.2572464E+01  0.3892567E+00 -0.2490228E+00
  0.9905930E+01  0.1970410E+01 -0.1027320E+00  0.4524622E+00  0.2573621E+01  0.3814229E+00 -0.2433899E+00
  0.9665100E+01  0.2931880E+01 -0.1027320E+00  0.4370221E+00  0.2575743E+01  0.3689049E+00 -0.2343021E+00
  0.9331180E+01  0.3865100E+01 -0.1027320E+00  0.4156428E+00  0.2580388E+01  0.3518893E+00 -0.2212078E+00
  0.8907400E+01  0.4761110E+01 -0.1027320E+00  0.3892308E+00  0.2587797E+01  0.3310543E+00 -0.2047040E+00
  0.8397840E+01  0.5611260E+01 -0.1027320E+00  0.3570953E+00  0.2600908E+01  0.3061579E+00 -0.1838053E+00
  0.7807410E+01  0.6407370E+01 -0.1027320E+00  0.3208413E+00  0.2622305E+01  0.2785457E+00 -0.1592214E+00
  0.7141780E+01  0.7141780E+01 -0.1027320E+00  0.2814397E+00  0.2658607E+01  0.2492464E+00 -0.1307078E+00
  0.6407370E+01  0.7807410E+01 -0.1027320E+00  0.2400473E+00  0.2717666E+01  0.2187985E+00 -0.9874159E-01
  0.5611260E+01  0.8397840E+01 -0.1027320E+00  0.1975369E+00  0.2819931E+01  0.1874055E+00 -0.6245011E-01
  0.4761110E+01  0.8907410E+01 -0.1027320E+00  0.1580651E+00  0.2996077E+01  0.1563945E+00 -0.2291992E-01
  0.3865100E+01  0.9331180E+01 -0.1027320E+00  0.1285835E+00 -0.2990610E+01  0.1271207E+00  0.1934018E-01
  0.2931870E+01  0.9665100E+01 -0.1027320E+00  0.1185005E+00 -0.2571454E+01  0.9975681E-01  0.6396046E-01
  0.1970410E+01  0.9905930E+01 -0.1027320E+00  0.1341783E+00 -0.2161884E+01  0.7477275E-01  0.1114130E+00
  0.9899730E+00  0.1005140E+02 -0.1027320E+00  0.1687096E+00 -0.1889114E+01  0.5280098E-01  0.1602342E+00
 -0.4414850E-06  0.1010000E+02 -0.1027320E+00  0.2120504E+00 -0.1735170E+01  0.3469874E-01  0.2091922E+00
 -0.9899740E+00  0.1005140E+02 -0.1027320E+00  0.2589970E+00 -0.1648949E+01  0.2022075E-01  0.2582064E+00
 -0.1970410E+01  0.9905930E+01 -0.1027320E+00  0.3073953E+00 -0.1602521E+01  0.9750498E-02  0.3072406E+00
 -0.2931880E+01  0.9665100E+01 -0.1027320E+00  0.3550501E+00 -0.1578964E+01  0.2899749E-02  0.3550383E+00
 -0.3865100E+01  0.9331180E+01 -0.1027320E+00  0.4001322E+00 -0.1569740E+01 -0.4227636E-03  0.4001320E+00
 -0.4761110E+01  0.8907400E+01 -0.1027320E+00  0.4429384E+00 -0.1569304E+01 -0.6608920E-03  0.4429379E+00
 -0.5611260E+01  0.8397840E+01 -0.1027320E+00  0.4831191E+00 -0.1575427E+01  0.2236933E-02  0.4831139E+00
 -0.6407370E+01  0.7807410E+01 -0.1027320E+00  0.5201573E+00 -0.1584746E+01  0.7255578E-02  0.5201067E+00
 -0.7141780E+01  0.7141780E+01 -0.1027320E+00  0.5529737E+00 -0.1595362E+01  0.1358293E-01  0.5528069E+00
 -0.7807410E+01  0.6407370E+01 -0.1027320E+00  0.5824050E+00 -0.1606745E+01  0.2093189E-01  0.5820287E+00
 -0.8397840E+01  0.5611260E+01 -0.1027320E+00  0.6080073E+00 -0.1618584E+01  0.2904406E-01  0.6073132E+00
 -0.8907410E+01  0.4761110E+01 -0.1027320E+00  0.6299475E+00 -0.1629622E+01  0.3703560E-01  0.6288579E+00
 -0.9331180E+01  0.3865100E+01 -0.1027320E+00  0.6474289E+00 -0.1638794E+01  0.4398954E-01  0.6459327E+00
 -0.9665100E+01  0.2931880E+01 -0.1027320E+00  0.6613660E+00 -0.1646402E+01  0.4995532E-01  0.6594766E+00
 -0.9905930E+01  0.1970410E+01 -0.1027320E+00  0.6711299E+00 -0.1652167E+01  0.5455037E-01  0.6689093E+00
 -0.1005140E+02  0.9899730E+00 -0.1027320E+00  0.6772030E+00 -0.1655844E+01  0.5752532E-01  0.6747553E+00
 -0.1010000E+02 -0.8829700E-06 -0.1027320E+00  0.6789668E+00 -0.1656940E+01  0.5841637E-01  0.6764492E+00
 -0.1005140E+02 -0.9899740E+00 -0.1027320E+00  0.6772026E+00 -0.1655844E+01  0.5752543E-01  0.6747549E+00
 -0.9905930E+01 -0.1970410E+01 -0.1027320E+00  0.6711301E+00 -0.1652168E+01  0.5455052E-01  0.6689094E+00
 -0.9665100E+01 -0.2931880E+01 -0.1027320E+00  0.6613656E+00 -0.1646402E+01  0.4995527E-01  0.6594763E+00
 -0.9331180E+01 -0.3865100E+01 -0.1027320E+00  0.6474292E+00 -0.1638794E+01  0.4398957E-01  0.6459330E+00
 -0.8907400E+01 -0.4761110E+01 -0.1027320E+00  0.6299480E+00 -0.1629622E+01  0.3703579E-01  0.6288584E+00
 -0.8397840E+01 -0.5611260E+01 -0.1027320E+00  0.6080079E+00 -0.1618584E+01  0.2904418E-01  0.6073138E+00
 -0.7807400E+01 -0.6407370E+01 -0.1027320E+00  0.5824050E+00 -0.1606745E+01  0.2093213E-01  0.5820287E+00
 -0.7141780E+01 -0.7141780E+01 -0.1027320E+00  0.5529739E+00 -0.1595363E+01  0.1358309E-01  0.5528070E+00
 -0.6407370E+01 -0.7807410E+01 -0.1027320E+00  0.5201575E+00 -0.1584746E+01  0.7255676E-02  0.5201069E+00
 -0.5611260E+01 -0.8397850E+01 -0.1027320E+00  0.4831189E+00 -0.1575426E+01  0.2236811E-02  0.4831137E+00
 -0.4761110E+01 -0.8907410E+01 -0.1027320E+00  0.4429379E+00 -0.1569304E+01 -0.6609412E-03  0.4429373E+00
 -0.3865100E+01 -0.9331190E+01 -0.1027320E+00  0.4001322E+00 -0.1569740E+01 -0.4227390E-03  0.4001320E+00
 -0.2931870E+01 -0.9665100E+01 -0.1027320E+00  0.3550502E+00 -0.1578964E+01  0.2899868E-02  0.3550384E+00
 -0.1970410E+01 -0.9905930E+01 -0.1027320E+00  0.3073954E+00 -0.1602521E+01  0.9750455E-02  0.3072407E+00
 -0.9899710E+00 -0.1005140E+02 -0.1027320E+00  0.2589973E+00 -0.1648950E+01  0.2022103E-01  0.2582067E+00
  0.1204410E-06 -0.1010000E+02 -0.1027320E+00  0.2120506E+00 -0.1735170E+01  0.3469871E-01  0.2091924E+00
  0.9899760E+00 -0.1005140E+02 -0.1027320E+00  0.1687097E+00 -0.1889115E+01  0.5280117E-01  0.1602342E+00
  0.1970410E+01 -0.9905930E+01 -0.1027320E+00  0.1341786E+00 -0.2161882E+01  0.7477275E-01  0.1114133E+00
  0.2931880E+01 -0.9665100E+01 -0.1027320E+00  0.1185007E+00 -0.2571456E+01  0.9975709E-01  0.6396040E-01
  0.3865100E+01 -0.9331180E+01 -0.1027320E+00  0.1285836E+00 -0.2990607E+01  0.1271208E+00  0.1934057E-01
  0.4761110E+01 -0.8907410E+01 -0.1027320E+00  0.1580652E+00  0.2996079E+01  0.1563947E+00 -0.2291956E-01
  0.5611260E+01 -0.8397840E+01 -0.1027320E+00  0.1975365E+00  0.2819932E+01  0.1874052E+00 -0.6244973E-01
  0.6407370E+01 -0.7807410E+01 -0.1027320E+00  0.2400472E+00  0.2717668E+01  0.2187986E+00 -0.9874117E-01
  0.7141780E+01 -0.7141780E+01 -0.1027320E+00  0.2814392E+00  0.2658608E+01  0.2492461E+00 -0.1307073E+00
  0.7807410E+01 -0.6407370E+01 -0.1027320E+00  0.3208411E+00  0.2622306E+01  0.2785456E+00 -0.1592210E+00
  0.8397840E+01 -0.5611260E+01 -0.1027320E+00  0.3570950E+00  0.2600908E+01  0.3061577E+00 -0.1838050E+00
