 VARIABLES="X" "Y" "Z" "abs(eta) (m)" "angle(phi) (rad)" "PRE1" "PRE2"
ZONE N=   3200 ,E =    3136 ,F=FEPOINT,ET=QUADRILATERAL
  0.1100000E+02  0.0000000E+00  0.0000000E+00  0.5092986E+00 -0.1673961E+01  0.5244866E-01  0.5065908E+00
  0.1094700E+02  0.1078190E+01  0.0000000E+00  0.5233858E+00 -0.1679074E+01  0.5656010E-01  0.5203207E+00
  0.1078860E+02  0.2145990E+01  0.0000000E+00  0.5345133E+00 -0.1683422E+01  0.6007251E-01  0.5311269E+00
  0.1052630E+02  0.3193130E+01  0.0000000E+00  0.5423941E+00 -0.1686598E+01  0.6266966E-01  0.5387614E+00
  0.1016270E+02  0.4209520E+01  0.0000000E+00  0.5471655E+00 -0.1688446E+01  0.6422541E-01  0.5433831E+00
  0.9701130E+01  0.5185360E+01  0.0000000E+00  0.5478221E+00 -0.1688831E+01  0.6451216E-01  0.5440103E+00
  0.9146170E+01  0.6111270E+01  0.0000000E+00  0.5453753E+00 -0.1687828E+01  0.6368082E-01  0.5416447E+00
  0.8503110E+01  0.6978330E+01  0.0000000E+00  0.5396395E+00 -0.1685422E+01  0.6172135E-01  0.5360982E+00
  0.7778170E+01  0.7778170E+01  0.0000000E+00  0.5308615E+00 -0.1681864E+01  0.5884059E-01  0.5275905E+00
  0.6978330E+01  0.8503110E+01  0.0000000E+00  0.5180688E+00 -0.1677217E+01  0.5502927E-01  0.5151379E+00
  0.6111270E+01  0.9146170E+01  0.0000000E+00  0.5022265E+00 -0.1671703E+01  0.5059179E-01  0.4996719E+00
  0.5185360E+01  0.9701130E+01  0.0000000E+00  0.4832847E+00 -0.1665776E+01  0.4583306E-01  0.4811064E+00
  0.4209520E+01  0.1016270E+02  0.0000000E+00  0.4616020E+00 -0.1660122E+01  0.4117813E-01  0.4597617E+00
  0.3193130E+01  0.1052630E+02  0.0000000E+00  0.4364417E+00 -0.1655351E+01  0.3685926E-01  0.4348825E+00
  0.2145990E+01  0.1078860E+02  0.0000000E+00  0.4086158E+00 -0.1652029E+01  0.3315644E-01  0.4072684E+00
  0.1078190E+01  0.1094700E+02  0.0000000E+00  0.3783218E+00 -0.1651554E+01  0.3051922E-01  0.3770888E+00
 -0.4808250E-06  0.1100000E+02  0.0000000E+00  0.3461044E+00 -0.1655658E+01  0.2933571E-01  0.3448589E+00
 -0.1078190E+01  0.1094700E+02  0.0000000E+00  0.3117008E+00 -0.1666950E+01  0.2992504E-01  0.3102610E+00
 -0.2145990E+01  0.1078860E+02  0.0000000E+00  0.2758343E+00 -0.1688421E+01  0.3237018E-01  0.2739283E+00
 -0.3193130E+01  0.1052630E+02  0.0000000E+00  0.2392182E+00 -0.1725915E+01  0.3695856E-01  0.2363460E+00
 -0.4209520E+01  0.1016270E+02  0.0000000E+00  0.2029503E+00 -0.1788112E+01  0.4375799E-01  0.1981768E+00
 -0.5185370E+01  0.9701130E+01  0.0000000E+00  0.1681474E+00 -0.1890979E+01  0.5292277E-01  0.1596018E+00
 -0.6111270E+01  0.9146160E+01  0.0000000E+00  0.1369565E+00 -0.2059188E+01  0.6426086E-01  0.1209447E+00
 -0.6978330E+01  0.8503120E+01  0.0000000E+00  0.1135676E+00 -0.2323693E+01  0.7765248E-01  0.8287158E-01
 -0.7778170E+01  0.7778170E+01  0.0000000E+00  0.1035066E+00 -0.2681549E+01  0.9274535E-01  0.4595565E-01
 -0.8503120E+01  0.6978330E+01  0.0000000E+00  0.1098872E+00 -0.3043539E+01  0.1093593E+00  0.1075757E-01
 -0.9146170E+01  0.6111270E+01  0.0000000E+00  0.1291841E+00  0.2963579E+01  0.1271426E+00 -0.2287531E-01
 -0.9701130E+01  0.5185360E+01  0.0000000E+00  0.1554021E+00  0.2784294E+01  0.1455877E+00 -0.5435112E-01
 -0.1016270E+02  0.4209520E+01  0.0000000E+00  0.1840796E+00  0.2671463E+01  0.1641088E+00 -0.8338843E-01
 -0.1052630E+02  0.3193130E+01  0.0000000E+00  0.2124541E+00  0.2601652E+01  0.1822302E+00 -0.1092195E+00
 -0.1078860E+02  0.2145990E+01  0.0000000E+00  0.2396450E+00  0.2555821E+01  0.1996928E+00 -0.1324860E+00
 -0.1094700E+02  0.1078190E+01  0.0000000E+00  0.2644728E+00  0.2525633E+01  0.2158678E+00 -0.1527971E+00
 -0.1100000E+02 -0.9616510E-06  0.0000000E+00  0.2863301E+00  0.2505164E+01  0.2302734E+00 -0.1701737E+00
 -0.1094700E+02 -0.1078190E+01  0.0000000E+00  0.3040934E+00  0.2492922E+01  0.2423281E+00 -0.1837113E+00
 -0.1078860E+02 -0.2146000E+01  0.0000000E+00  0.3183051E+00  0.2484728E+01  0.2520693E+00 -0.1943688E+00
 -0.1052630E+02 -0.3193130E+01  0.0000000E+00  0.3284483E+00  0.2479581E+01  0.2590659E+00 -0.2018989E+00
 -0.1016270E+02 -0.4209520E+01  0.0000000E+00  0.3345092E+00  0.2476379E+01  0.2631868E+00 -0.2064682E+00
 -0.9701130E+01 -0.5185360E+01  0.0000000E+00  0.3355001E+00  0.2476410E+01  0.2639728E+00 -0.2070716E+00
 -0.9146160E+01 -0.6111270E+01  0.0000000E+00  0.3323381E+00  0.2477872E+01  0.2617846E+00 -0.2047375E+00
 -0.8503110E+01 -0.6978330E+01  0.0000000E+00  0.3248735E+00  0.2481253E+01  0.2565798E+00 -0.1992726E+00
 -0.7778170E+01 -0.7778180E+01  0.0000000E+00  0.3134785E+00  0.2486834E+01  0.2486495E+00 -0.1908984E+00
 -0.6978330E+01 -0.8503110E+01  0.0000000E+00  0.2974122E+00  0.2497460E+01  0.2378170E+00 -0.1785975E+00
 -0.6111270E+01 -0.9146170E+01  0.0000000E+00  0.2777402E+00  0.2512947E+01  0.2246431E+00 -0.1633251E+00
 -0.5185360E+01 -0.9701130E+01  0.0000000E+00  0.2547648E+00  0.2536211E+01  0.2094893E+00 -0.1449804E+00
 -0.4209510E+01 -0.1016270E+02  0.0000000E+00  0.2292857E+00  0.2570801E+01  0.1929378E+00 -0.1238827E+00
 -0.3193130E+01 -0.1052630E+02  0.0000000E+00  0.2013058E+00  0.2626100E+01  0.1751460E+00 -0.9923650E-01
 -0.2145990E+01 -0.1078860E+02  0.0000000E+00  0.1723538E+00  0.2711503E+01  0.1566572E+00 -0.7186332E-01
 -0.1078190E+01 -0.1094700E+02  0.0000000E+00  0.1442804E+00  0.2846824E+01  0.1380575E+00 -0.4191614E-01
  0.1311740E-06 -0.1100000E+02  0.0000000E+00  0.1203506E+00  0.3059171E+01  0.1199420E+00 -0.9908272E-02
  0.1078190E+01 -0.1094700E+02  0.0000000E+00  0.1055453E+00 -0.2907155E+01  0.1026581E+00  0.2451777E-01
  0.2145990E+01 -0.1078860E+02  0.0000000E+00  0.1056908E+00 -0.2529780E+01  0.8651935E-01  0.6070371E-01
  0.3193140E+01 -0.1052630E+02  0.0000000E+00  0.1217541E+00 -0.2203608E+01  0.7200709E-01  0.9817859E-01
  0.4209520E+01 -0.1016270E+02  0.0000000E+00  0.1486646E+00 -0.1981955E+01  0.5941698E-01  0.1362747E+00
  0.5185360E+01 -0.9701130E+01  0.0000000E+00  0.1815899E+00 -0.1844188E+01  0.4902897E-01  0.1748458E+00
  0.6111270E+01 -0.9146160E+01  0.0000000E+00  0.2174038E+00 -0.1759649E+01  0.4081376E-01  0.2135384E+00
  0.6978330E+01 -0.8503110E+01  0.0000000E+00  0.2540952E+00 -0.1708486E+01  0.3487572E-01  0.2516904E+00
  0.7778180E+01 -0.7778170E+01  0.0000000E+00  0.2903862E+00 -0.1678006E+01  0.3107249E-01  0.2887190E+00
  0.8503120E+01 -0.6978320E+01  0.0000000E+00  0.3254238E+00 -0.1661360E+01  0.2943139E-01  0.3240902E+00
  0.9146170E+01 -0.6111270E+01  0.0000000E+00  0.3591473E+00 -0.1653501E+01  0.2966919E-01  0.3579197E+00
  0.9701130E+01 -0.5185360E+01  0.0000000E+00  0.3908851E+00 -0.1651465E+01  0.3149797E-01  0.3896140E+00
  0.1016270E+02 -0.4209520E+01  0.0000000E+00  0.4202949E+00 -0.1652958E+01  0.3449348E-01  0.4188771E+00
  0.1052630E+02 -0.3193130E+01  0.0000000E+00  0.4466199E+00 -0.1656964E+01  0.3843651E-01  0.4449629E+00
  0.1078860E+02 -0.2145990E+01  0.0000000E+00  0.4704451E+00 -0.1662396E+01  0.4303240E-01  0.4684729E+00
  0.1094700E+02 -0.1078180E+01  0.0000000E+00  0.4913476E+00 -0.1668303E+01  0.4783402E-01  0.4890136E+00
  0.1100000E+02  0.0000000E+00 -0.2568960E-01  0.5086041E+00 -0.1673989E+01  0.5239124E-01  0.5058985E+00
  0.1094700E+02  0.1078190E+01 -0.2568960E-01  0.5227013E+00 -0.1679107E+01  0.5650336E-01  0.5196384E+00
  0.1078860E+02  0.2145990E+01 -0.2568960E-01  0.5338179E+00 -0.1683455E+01  0.6001208E-01  0.5304340E+00
  0.1052630E+02  0.3193130E+01 -0.2568960E-01  0.5416840E+00 -0.1686629E+01  0.6260458E-01  0.5380542E+00
  0.1016270E+02  0.4209520E+01 -0.2568960E-01  0.5464195E+00 -0.1688472E+01  0.6415213E-01  0.5426406E+00
  0.9701130E+01  0.5185360E+01 -0.2568960E-01  0.5471048E+00 -0.1688864E+01  0.6444557E-01  0.5432959E+00
  0.9146170E+01  0.6111270E+01 -0.2568960E-01  0.5446662E+00 -0.1687863E+01  0.6361648E-01  0.5409383E+00
  0.8503110E+01  0.6978330E+01 -0.2568960E-01  0.5389339E+00 -0.1685456E+01  0.6165850E-01  0.5353952E+00
  0.7778170E+01  0.7778170E+01 -0.2568960E-01  0.5301383E+00 -0.1681891E+01  0.5877431E-01  0.5268702E+00
  0.6978330E+01  0.8503110E+01 -0.2568960E-01  0.5173892E+00 -0.1677245E+01  0.5497154E-01  0.5144606E+00
  0.6111270E+01  0.9146170E+01 -0.2568960E-01  0.5015734E+00 -0.1671732E+01  0.5054083E-01  0.4990205E+00
  0.5185360E+01  0.9701130E+01 -0.2568960E-01  0.4826533E+00 -0.1665807E+01  0.4578809E-01  0.4804764E+00
  0.4209520E+01  0.1016270E+02 -0.2568960E-01  0.4609739E+00 -0.1660151E+01  0.4113526E-01  0.4591349E+00
  0.3193130E+01  0.1052630E+02 -0.2568960E-01  0.4358659E+00 -0.1655372E+01  0.3681952E-01  0.4343080E+00
  0.2145990E+01  0.1078860E+02 -0.2568960E-01  0.4080826E+00 -0.1652049E+01  0.3312137E-01  0.4067363E+00
  0.1078190E+01  0.1094700E+02 -0.2568960E-01  0.3778270E+00 -0.1651578E+01  0.3048837E-01  0.3765949E+00
 -0.4808250E-06  0.1100000E+02 -0.2568960E-01  0.3456331E+00 -0.1655694E+01  0.2930804E-01  0.3443882E+00
 -0.1078190E+01  0.1094700E+02 -0.2568960E-01  0.3112839E+00 -0.1666965E+01  0.2988948E-01  0.3098455E+00
 -0.2145990E+01  0.1078860E+02 -0.2568960E-01  0.2754687E+00 -0.1688432E+01  0.3233018E-01  0.2735649E+00
 -0.3193130E+01  0.1052630E+02 -0.2568960E-01  0.2389013E+00 -0.1725931E+01  0.3691337E-01  0.2360323E+00
 -0.4209520E+01  0.1016270E+02 -0.2568960E-01  0.2026748E+00 -0.1788169E+01  0.4370990E-01  0.1979053E+00
 -0.5185370E+01  0.9701130E+01 -0.2568960E-01  0.1679135E+00 -0.1891023E+01  0.5285611E-01  0.1593774E+00
 -0.6111270E+01  0.9146160E+01 -0.2568960E-01  0.1367655E+00 -0.2059239E+01  0.6417741E-01  0.1207728E+00
 -0.6978330E+01  0.8503120E+01 -0.2568960E-01  0.1134118E+00 -0.2323763E+01  0.7755169E-01  0.8275247E-01
 -0.7778170E+01  0.7778170E+01 -0.2568960E-01  0.1033752E+00 -0.2681621E+01  0.9263092E-01  0.4589065E-01
 -0.8503120E+01  0.6978330E+01 -0.2568960E-01  0.1097466E+00 -0.3043728E+01  0.1092215E+00  0.1072314E-01
 -0.9146170E+01  0.6111270E+01 -0.2568960E-01  0.1290225E+00  0.2963424E+01  0.1269801E+00 -0.2286638E-01
 -0.9701130E+01  0.5185360E+01 -0.2568960E-01  0.1552073E+00  0.2784205E+01  0.1454004E+00 -0.5429585E-01
 -0.1016270E+02  0.4209520E+01 -0.2568960E-01  0.1838413E+00  0.2671482E+01  0.1638979E+00 -0.8327740E-01
 -0.1052630E+02  0.3193130E+01 -0.2568960E-01  0.2121959E+00  0.2601588E+01  0.1820017E+00 -0.1090984E+00
 -0.1078860E+02  0.2145990E+01 -0.2568960E-01  0.2393534E+00  0.2555759E+01  0.1994416E+00 -0.1323370E+00
 -0.1094700E+02  0.1078190E+01 -0.2568960E-01  0.2641441E+00  0.2525592E+01  0.2155933E+00 -0.1526159E+00
 -0.1100000E+02 -0.9616510E-06 -0.2568960E-01  0.2859520E+00  0.2505188E+01  0.2299733E+00 -0.1699436E+00
 -0.1094700E+02 -0.1078190E+01 -0.2568960E-01  0.3037191E+00  0.2492892E+01  0.2420245E+00 -0.1834924E+00
 -0.1078860E+02 -0.2146000E+01 -0.2568960E-01  0.3179159E+00  0.2484695E+01  0.2517546E+00 -0.1941395E+00
 -0.1052630E+02 -0.3193130E+01 -0.2568960E-01  0.3280401E+00  0.2479556E+01  0.2587390E+00 -0.2016543E+00
 -0.1016270E+02 -0.4209520E+01 -0.2568960E-01  0.3340657E+00  0.2476403E+01  0.2628427E+00 -0.2061883E+00
 -0.9701130E+01 -0.5185360E+01 -0.2568960E-01  0.3350842E+00  0.2476389E+01  0.2636412E+00 -0.2068205E+00
 -0.9146160E+01 -0.6111270E+01 -0.2568960E-01  0.3319312E+00  0.2477842E+01  0.2614580E+00 -0.2044946E+00
 -0.8503110E+01 -0.6978330E+01 -0.2568960E-01  0.3244720E+00  0.2481229E+01  0.2562580E+00 -0.1990323E+00
 -0.7778170E+01 -0.7778180E+01 -0.2568960E-01  0.3130635E+00  0.2486858E+01  0.2483249E+00 -0.1906397E+00
 -0.6978330E+01 -0.8503110E+01 -0.2568960E-01  0.2970425E+00  0.2497429E+01  0.2375158E+00 -0.1783829E+00
 -0.6111270E+01 -0.9146170E+01 -0.2568960E-01  0.2774017E+00  0.2512900E+01  0.2243616E+00 -0.1631366E+00
 -0.5185360E+01 -0.9701130E+01 -0.2568960E-01  0.2544537E+00  0.2536168E+01  0.2092272E+00 -0.1448125E+00
 -0.4209510E+01 -0.1016270E+02 -0.2568960E-01  0.2289859E+00  0.2570823E+01  0.1926883E+00 -0.1237165E+00
 -0.3193130E+01 -0.1052630E+02 -0.2568960E-01  0.2010552E+00  0.2626038E+01  0.1749220E+00 -0.9912377E-01
 -0.2145990E+01 -0.1078860E+02 -0.2568960E-01  0.1721438E+00  0.2711398E+01  0.1564588E+00 -0.7179217E-01
 -0.1078190E+01 -0.1094700E+02 -0.2568960E-01  0.1441049E+00  0.2846696E+01  0.1378842E+00 -0.4188272E-01
  0.1311740E-06 -0.1100000E+02 -0.2568960E-01  0.1201991E+00  0.3059156E+01  0.1197909E+00 -0.9897567E-02
  0.1078190E+01 -0.1094700E+02 -0.2568960E-01  0.1054056E+00 -0.2907278E+01  0.1025252E+00  0.2447268E-01
  0.2145990E+01 -0.1078860E+02 -0.2568960E-01  0.1055437E+00 -0.2529919E+01  0.8640737E-01  0.6060721E-01
  0.3193140E+01 -0.1052630E+02 -0.2568960E-01  0.1215824E+00 -0.2203715E+01  0.7191607E-01  0.9803246E-01
  0.4209520E+01 -0.1016270E+02 -0.2568960E-01  0.1484649E+00 -0.1982031E+01  0.5934757E-01  0.1360871E+00
  0.5185360E+01 -0.9701130E+01 -0.2568960E-01  0.1813463E+00 -0.1844207E+01  0.4896655E-01  0.1746103E+00
  0.6111270E+01 -0.9146160E+01 -0.2568960E-01  0.2171109E+00 -0.1759661E+01  0.4076123E-01  0.2132503E+00
  0.6978330E+01 -0.8503110E+01 -0.2568960E-01  0.2537515E+00 -0.1708502E+01  0.3483276E-01  0.2513494E+00
  0.7778180E+01 -0.7778170E+01 -0.2568960E-01  0.2899911E+00 -0.1678047E+01  0.3104219E-01  0.2883249E+00
  0.8503120E+01 -0.6978320E+01 -0.2568960E-01  0.3249973E+00 -0.1661381E+01  0.2939938E-01  0.3236648E+00
  0.9146170E+01 -0.6111270E+01 -0.2568960E-01  0.3586765E+00 -0.1653517E+01  0.2963614E-01  0.3574501E+00
  0.9701130E+01 -0.5185360E+01 -0.2568960E-01  0.3903678E+00 -0.1651482E+01  0.3146296E-01  0.3890978E+00
  0.1016270E+02 -0.4209520E+01 -0.2568960E-01  0.4197229E+00 -0.1652989E+01  0.3445948E-01  0.4183059E+00
  0.1052630E+02 -0.3193130E+01 -0.2568960E-01  0.4460364E+00 -0.1656992E+01  0.3839900E-01  0.4443804E+00
  0.1078860E+02 -0.2145990E+01 -0.2568960E-01  0.4698334E+00 -0.1662422E+01  0.4298880E-01  0.4678626E+00
  0.1094700E+02 -0.1078180E+01 -0.2568960E-01  0.4907021E+00 -0.1668329E+01  0.4778363E-01  0.4883700E+00
  0.1100000E+02  0.0000000E+00 -0.1027320E+00  0.5065505E+00 -0.1674066E+01  0.5221830E-01  0.5038518E+00
  0.1094700E+02  0.1078190E+01 -0.1027320E+00  0.5206810E+00 -0.1679202E+01  0.5633435E-01  0.5176245E+00
  0.1078860E+02  0.2145990E+01 -0.1027320E+00  0.5317765E+00 -0.1683554E+01  0.5983498E-01  0.5283995E+00
  0.1052630E+02  0.3193130E+01 -0.1027320E+00  0.5395866E+00 -0.1686725E+01  0.6241344E-01  0.5359648E+00
  0.1016270E+02  0.4209520E+01 -0.1027320E+00  0.5442141E+00 -0.1688554E+01  0.6393719E-01  0.5404451E+00
  0.9701130E+01  0.5185360E+01 -0.1027320E+00  0.5449887E+00 -0.1688965E+01  0.6425066E-01  0.5411881E+00
  0.9146170E+01  0.6111270E+01 -0.1027320E+00  0.5425831E+00 -0.1687967E+01  0.6342960E-01  0.5388628E+00
  0.8503110E+01  0.6978330E+01 -0.1027320E+00  0.5368504E+00 -0.1685556E+01  0.6147372E-01  0.5333192E+00
  0.7778170E+01  0.7778170E+01 -0.1027320E+00  0.5279986E+00 -0.1681970E+01  0.5857896E-01  0.5247390E+00
  0.6978330E+01  0.8503110E+01 -0.1027320E+00  0.5153826E+00 -0.1677326E+01  0.5479990E-01  0.5124609E+00
  0.6111270E+01  0.9146170E+01 -0.1027320E+00  0.4996532E+00 -0.1671813E+01  0.5038776E-01  0.4971060E+00
  0.5185360E+01  0.9701130E+01 -0.1027320E+00  0.4807878E+00 -0.1665887E+01  0.4564934E-01  0.4786158E+00
  0.4209520E+01  0.1016270E+02 -0.1027320E+00  0.4591123E+00 -0.1660222E+01  0.4100168E-01  0.4572778E+00
  0.3193130E+01  0.1052630E+02 -0.1027320E+00  0.4341655E+00 -0.1655412E+01  0.3669341E-01  0.4326122E+00
  0.2145990E+01  0.1078860E+02 -0.1027320E+00  0.4065092E+00 -0.1652080E+01  0.3300616E-01  0.4051670E+00
  0.1078190E+01  0.1094700E+02 -0.1027320E+00  0.3763600E+00 -0.1651612E+01  0.3038266E-01  0.3751316E+00
 -0.4808250E-06  0.1100000E+02 -0.1027320E+00  0.3442356E+00 -0.1655757E+01  0.2921124E-01  0.3429939E+00
 -0.1078190E+01  0.1094700E+02 -0.1027320E+00  0.3100485E+00 -0.1666954E+01  0.2976754E-01  0.3086162E+00
 -0.2145990E+01  0.1078860E+02 -0.1027320E+00  0.2743830E+00 -0.1688393E+01  0.3219217E-01  0.2724880E+00
 -0.3193130E+01  0.1052630E+02 -0.1027320E+00  0.2379556E+00 -0.1725899E+01  0.3675980E-01  0.2350991E+00
 -0.4209520E+01  0.1016270E+02 -0.1027320E+00  0.2018507E+00 -0.1788253E+01  0.4354858E-01  0.1970969E+00
 -0.5185370E+01  0.9701130E+01 -0.1027320E+00  0.1672098E+00 -0.1891042E+01  0.5263768E-01  0.1587086E+00
 -0.6111270E+01  0.9146160E+01 -0.1027320E+00  0.1361826E+00 -0.2059281E+01  0.6390893E-01  0.1202554E+00
 -0.6978330E+01  0.8503120E+01 -0.1027320E+00  0.1129313E+00 -0.2323899E+01  0.7723439E-01  0.8239136E-01
 -0.7778170E+01  0.7778170E+01 -0.1027320E+00  0.1029661E+00 -0.2681827E+01  0.9227371E-01  0.4568997E-01
 -0.8503120E+01  0.6978330E+01 -0.1027320E+00  0.1093122E+00 -0.3044362E+01  0.1087959E+00  0.1061181E-01
 -0.9146170E+01  0.6111270E+01 -0.1027320E+00  0.1285327E+00  0.2962826E+01  0.1264844E+00 -0.2285521E-01
 -0.9701130E+01  0.5185360E+01 -0.1027320E+00  0.1546224E+00  0.2783833E+01  0.1448323E+00 -0.5414515E-01
 -0.1016270E+02  0.4209520E+01 -0.1027320E+00  0.1831303E+00  0.2671456E+01  0.1632618E+00 -0.8295945E-01
 -0.1052630E+02  0.3193130E+01 -0.1027320E+00  0.2114298E+00  0.2601316E+01  0.1813151E+00 -0.1087539E+00
 -0.1078860E+02  0.2145990E+01 -0.1027320E+00  0.2384968E+00  0.2555485E+01  0.1986917E+00 -0.1319179E+00
 -0.1094700E+02  0.1078190E+01 -0.1027320E+00  0.2631755E+00  0.2525414E+01  0.2147755E+00 -0.1520947E+00
 -0.1100000E+02 -0.9616510E-06 -0.1027320E+00  0.2848366E+00  0.2505212E+01  0.2290803E+00 -0.1692752E+00
 -0.1094700E+02 -0.1078190E+01 -0.1027320E+00  0.3026176E+00  0.2492760E+01  0.2411225E+00 -0.1828588E+00
 -0.1078860E+02 -0.2146000E+01 -0.1027320E+00  0.3167796E+00  0.2484535E+01  0.2508239E+00 -0.1934857E+00
 -0.1052630E+02 -0.3193130E+01 -0.1027320E+00  0.3268421E+00  0.2479445E+01  0.2577718E+00 -0.2009464E+00
 -0.1016270E+02 -0.4209520E+01 -0.1027320E+00  0.3327590E+00  0.2476439E+01  0.2618221E+00 -0.2053722E+00
 -0.9701130E+01 -0.5185360E+01 -0.1027320E+00  0.3338623E+00  0.2476284E+01  0.2626582E+00 -0.2060939E+00
 -0.9146160E+01 -0.6111270E+01 -0.1027320E+00  0.3307444E+00  0.2477697E+01  0.2604936E+00 -0.2038012E+00
 -0.8503110E+01 -0.6978330E+01 -0.1027320E+00  0.3232925E+00  0.2481117E+01  0.2553042E+00 -0.1983376E+00
 -0.7778170E+01 -0.7778180E+01 -0.1027320E+00  0.3118400E+00  0.2486889E+01  0.2473603E+00 -0.1898870E+00
 -0.6978330E+01 -0.8503110E+01 -0.1027320E+00  0.2959553E+00  0.2497287E+01  0.2366213E+00 -0.1777636E+00
 -0.6111270E+01 -0.9146170E+01 -0.1027320E+00  0.2764101E+00  0.2512688E+01  0.2235253E+00 -0.1626007E+00
 -0.5185360E+01 -0.9701130E+01 -0.1027320E+00  0.2535343E+00  0.2535972E+01  0.2084429E+00 -0.1443301E+00
 -0.4209510E+01 -0.1016270E+02 -0.1027320E+00  0.2280963E+00  0.2570825E+01  0.1919399E+00 -0.1232355E+00
 -0.3193130E+01 -0.1052630E+02 -0.1027320E+00  0.2003119E+00  0.2625765E+01  0.1742483E+00 -0.9880480E-01
 -0.2145990E+01 -0.1078860E+02 -0.1027320E+00  0.1715181E+00  0.2710960E+01  0.1558588E+00 -0.7159951E-01
 -0.1078190E+01 -0.1094700E+02 -0.1027320E+00  0.1435732E+00  0.2846211E+01  0.1373552E+00 -0.4179489E-01
  0.1311740E-06 -0.1100000E+02 -0.1027320E+00  0.1197348E+00  0.3059027E+01  0.1193269E+00 -0.9874709E-02
  0.1078190E+01 -0.1094700E+02 -0.1027320E+00  0.1049720E+00 -0.2907701E+01  0.1021138E+00  0.2432885E-01
  0.2145990E+01 -0.1078860E+02 -0.1027320E+00  0.1050865E+00 -0.2530313E+01  0.8605688E-01  0.6031077E-01
  0.3193140E+01 -0.1052630E+02 -0.1027320E+00  0.1210566E+00 -0.2203931E+01  0.7162610E-01  0.9759307E-01
  0.4209520E+01 -0.1016270E+02 -0.1027320E+00  0.1478602E+00 -0.1982154E+01  0.5912257E-01  0.1355255E+00
  0.5185360E+01 -0.9701130E+01 -0.1027320E+00  0.1806136E+00 -0.1844165E+01  0.4876141E-01  0.1739068E+00
  0.6111270E+01 -0.9146160E+01 -0.1027320E+00  0.2162371E+00 -0.1759603E+01  0.4058495E-01  0.2123943E+00
  0.6978330E+01 -0.8503110E+01 -0.1027320E+00  0.2527294E+00 -0.1708477E+01  0.3468622E-01  0.2503378E+00
  0.7778180E+01 -0.7778170E+01 -0.1027320E+00  0.2888161E+00 -0.1678111E+01  0.3093476E-01  0.2871546E+00
  0.8503120E+01 -0.6978320E+01 -0.1027320E+00  0.3237298E+00 -0.1661389E+01  0.2928752E-01  0.3224023E+00
  0.9146170E+01 -0.6111270E+01 -0.1027320E+00  0.3572854E+00 -0.1653521E+01  0.2952256E-01  0.3560636E+00
