 VARIABLES="X" "Y" "Z" "abs(eta) (m)" "angle(phi) (rad)" "PRE1" "PRE2"
ZONE N=   3200 ,E =    3136 ,F=FEPOINT,ET=QUADRILATERAL
  0.1010000E+02  0.0000000E+00  0.0000000E+00  0.3968815E+00  0.2586533E+01  0.3372974E+00 -0.2091541E+00
  0.1005140E+02  0.9899730E+00  0.0000000E+00  0.3663390E+00  0.2597947E+01  0.3135234E+00 -0.1894923E+00
  0.9905930E+01  0.1970410E+01  0.0000000E+00  0.3305674E+00  0.2617508E+01  0.2861994E+00 -0.1654229E+00
  0.9665100E+01  0.2931880E+01  0.0000000E+00  0.2910828E+00  0.2650062E+01  0.2566219E+00 -0.1373842E+00
  0.9331180E+01  0.3865100E+01  0.0000000E+00  0.2495382E+00  0.2704625E+01  0.2260914E+00 -0.1056030E+00
  0.8907400E+01  0.4761110E+01  0.0000000E+00  0.2074311E+00  0.2794551E+01  0.1950647E+00 -0.7055095E-01
  0.8397840E+01  0.5611260E+01  0.0000000E+00  0.1667486E+00  0.2952549E+01  0.1637778E+00 -0.3133538E-01
  0.7807410E+01  0.6407370E+01  0.0000000E+00  0.1339685E+00 -0.3059129E+01  0.1335132E+00  0.1103502E-01
  0.7141780E+01  0.7141780E+01  0.0000000E+00  0.1193664E+00 -0.2656503E+01  0.1055955E+00  0.5565906E-01
  0.6407370E+01  0.7807410E+01  0.0000000E+00  0.1298575E+00 -0.2235364E+01  0.8008553E-01  0.1022217E+00
  0.5611260E+01  0.8397840E+01  0.0000000E+00  0.1616900E+00 -0.1934082E+01  0.5745614E-01  0.1511371E+00
  0.4761110E+01  0.8907410E+01  0.0000000E+00  0.2045889E+00 -0.1758785E+01  0.3823421E-01  0.2009844E+00
  0.3865100E+01  0.9331180E+01  0.0000000E+00  0.2513731E+00 -0.1662535E+01  0.2302832E-01  0.2503160E+00
  0.2931870E+01  0.9665100E+01  0.0000000E+00  0.2994156E+00 -0.1609235E+01  0.1150621E-01  0.2991944E+00
  0.1970410E+01  0.9905930E+01  0.0000000E+00  0.3475723E+00 -0.1582340E+01  0.4012271E-02  0.3475492E+00
  0.9899730E+00  0.1005140E+02  0.0000000E+00  0.3940722E+00 -0.1570976E+01  0.7088312E-04  0.3940722E+00
 -0.4414850E-06  0.1010000E+02  0.0000000E+00  0.4374371E+00 -0.1569202E+01 -0.6974326E-03  0.4374365E+00
 -0.9899740E+00  0.1005140E+02  0.0000000E+00  0.4782062E+00 -0.1573460E+01  0.1274017E-02  0.4782045E+00
 -0.1970410E+01  0.9905930E+01  0.0000000E+00  0.5160503E+00 -0.1582405E+01  0.5990744E-02  0.5160155E+00
 -0.2931880E+01  0.9665100E+01  0.0000000E+00  0.5503641E+00 -0.1593370E+01  0.1242247E-01  0.5502239E+00
 -0.3865100E+01  0.9331180E+01  0.0000000E+00  0.5803497E+00 -0.1604624E+01  0.1962837E-01  0.5800177E+00
 -0.4761110E+01  0.8907400E+01  0.0000000E+00  0.6069562E+00 -0.1615968E+01  0.2740819E-01  0.6063371E+00
 -0.5611260E+01  0.8397840E+01  0.0000000E+00  0.6296870E+00 -0.1627178E+01  0.3548377E-01  0.6286864E+00
 -0.6407370E+01  0.7807410E+01  0.0000000E+00  0.6484432E+00 -0.1637155E+01  0.4299811E-01  0.6470160E+00
 -0.7141780E+01  0.7141780E+01  0.0000000E+00  0.6628098E+00 -0.1644989E+01  0.4913061E-01  0.6609864E+00
 -0.7807410E+01  0.6407370E+01  0.0000000E+00  0.6737245E+00 -0.1651059E+01  0.5401677E-01  0.6715556E+00
 -0.8397840E+01  0.5611260E+01  0.0000000E+00  0.6804985E+00 -0.1655059E+01  0.5727287E-01  0.6780841E+00
 -0.8907410E+01  0.4761110E+01  0.0000000E+00  0.6832822E+00 -0.1656804E+01  0.5869523E-01  0.6807565E+00
 -0.9331180E+01  0.3865100E+01  0.0000000E+00  0.6818370E+00 -0.1656028E+01  0.5804371E-01  0.6793619E+00
 -0.9665100E+01  0.2931880E+01  0.0000000E+00  0.6769691E+00 -0.1653124E+01  0.5567066E-01  0.6746762E+00
 -0.9905930E+01  0.1970410E+01  0.0000000E+00  0.6678039E+00 -0.1647670E+01  0.5128581E-01  0.6658317E+00
 -0.1005140E+02  0.9899730E+00  0.0000000E+00  0.6546425E+00 -0.1640202E+01  0.4539930E-01  0.6530663E+00
 -0.1010000E+02 -0.8829700E-06  0.0000000E+00  0.6374136E+00 -0.1631244E+01  0.3850667E-01  0.6362494E+00
 -0.1005140E+02 -0.9899740E+00  0.0000000E+00  0.6167228E+00 -0.1621034E+01  0.3096980E-01  0.6159447E+00
 -0.9905930E+01 -0.1970410E+01  0.0000000E+00  0.5916104E+00 -0.1609321E+01  0.2278583E-01  0.5911714E+00
 -0.9665100E+01 -0.2931880E+01  0.0000000E+00  0.5626069E+00 -0.1597270E+01  0.1489230E-01  0.5624098E+00
 -0.9331180E+01 -0.3865100E+01  0.0000000E+00  0.5299826E+00 -0.1586455E+01  0.8298474E-02  0.5299176E+00
 -0.8907400E+01 -0.4761110E+01  0.0000000E+00  0.4941542E+00 -0.1577246E+01  0.3187006E-02  0.4941439E+00
 -0.8397840E+01 -0.5611260E+01  0.0000000E+00  0.4542572E+00 -0.1570531E+01 -0.1204850E-03  0.4542572E+00
 -0.7807400E+01 -0.6407370E+01  0.0000000E+00  0.4113078E+00 -0.1568788E+01 -0.8259365E-03  0.4113070E+00
 -0.7141780E+01 -0.7141780E+01  0.0000000E+00  0.3662223E+00 -0.1576158E+01  0.1963709E-02  0.3662170E+00
 -0.6407370E+01 -0.7807410E+01  0.0000000E+00  0.3193707E+00 -0.1596172E+01  0.8103508E-02  0.3192678E+00
 -0.5611260E+01 -0.8397850E+01  0.0000000E+00  0.2707041E+00 -0.1637446E+01  0.1802896E-01  0.2701031E+00
 -0.4761110E+01 -0.8907410E+01  0.0000000E+00  0.2224393E+00 -0.1713999E+01  0.3174504E-01  0.2201624E+00
 -0.3865100E+01 -0.9331190E+01  0.0000000E+00  0.1778733E+00 -0.1851878E+01  0.4934112E-01  0.1708928E+00
 -0.2931870E+01 -0.9665100E+01  0.0000000E+00  0.1410014E+00 -0.2093418E+01  0.7038132E-01  0.1221797E+00
 -0.1970410E+01 -0.9905930E+01  0.0000000E+00  0.1205565E+00 -0.2479243E+01  0.9506481E-01  0.7413880E-01
 -0.9899710E+00 -0.1005140E+02  0.0000000E+00  0.1255963E+00 -0.2916208E+01  0.1224197E+00  0.2806847E-01
  0.1204410E-06 -0.1010000E+02  0.0000000E+00  0.1522658E+00  0.3044681E+01  0.1515513E+00 -0.1473330E-01
  0.9899760E+00 -0.1005140E+02  0.0000000E+00  0.1901350E+00  0.2848731E+01  0.1820394E+00 -0.5489070E-01
  0.1970410E+01 -0.9905930E+01  0.0000000E+00  0.2326226E+00  0.2734931E+01  0.2136514E+00 -0.9201285E-01
  0.2931880E+01 -0.9665100E+01  0.0000000E+00  0.2752443E+00  0.2668209E+01  0.2449759E+00 -0.1254839E+00
  0.3865100E+01 -0.9331180E+01  0.0000000E+00  0.3151209E+00  0.2629048E+01  0.2746277E+00 -0.1545343E+00
  0.4761110E+01 -0.8907410E+01  0.0000000E+00  0.3521186E+00  0.2604484E+01  0.3025374E+00 -0.1801628E+00
  0.5611260E+01 -0.8397840E+01  0.0000000E+00  0.3852512E+00  0.2590100E+01  0.3281351E+00 -0.2018560E+00
  0.6407370E+01 -0.7807410E+01  0.0000000E+00  0.4134765E+00  0.2581712E+01  0.3503461E+00 -0.2195914E+00
  0.7141780E+01 -0.7141780E+01  0.0000000E+00  0.4356422E+00  0.2577096E+01  0.3680559E+00 -0.2330644E+00
  0.7807410E+01 -0.6407370E+01  0.0000000E+00  0.4525701E+00  0.2574065E+01  0.3816220E+00 -0.2432785E+00
  0.8397840E+01 -0.5611260E+01  0.0000000E+00  0.4633220E+00  0.2572749E+01  0.3903600E+00 -0.2495723E+00
  0.8907410E+01 -0.4761110E+01  0.0000000E+00  0.4678133E+00  0.2572377E+01  0.3940504E+00 -0.2521379E+00
  0.9331180E+01 -0.3865100E+01  0.0000000E+00  0.4656408E+00  0.2572874E+01  0.3923450E+00 -0.2507723E+00
  0.9665100E+01 -0.2931870E+01  0.0000000E+00  0.4577787E+00  0.2573534E+01  0.3858831E+00 -0.2462835E+00
  0.9905930E+01 -0.1970410E+01  0.0000000E+00  0.4432702E+00  0.2575435E+01  0.3741060E+00 -0.2377670E+00
  0.1005140E+02 -0.9899690E+00  0.0000000E+00  0.4228262E+00  0.2579244E+01  0.3577132E+00 -0.2254402E+00
  0.1010000E+02  0.0000000E+00 -0.2568960E-01  0.3963063E+00  0.2586455E+01  0.3367922E+00 -0.2088773E+00
  0.1005140E+02  0.9899730E+00 -0.2568960E-01  0.3658224E+00  0.2597831E+01  0.3130594E+00 -0.1892613E+00
  0.9905930E+01  0.1970410E+01 -0.2568960E-01  0.3300414E+00  0.2617530E+01  0.2857476E+00 -0.1651533E+00
  0.9665100E+01  0.2931880E+01 -0.2568960E-01  0.2906730E+00  0.2649904E+01  0.2562389E+00 -0.1372313E+00
  0.9331180E+01  0.3865100E+01 -0.2568960E-01  0.2491771E+00  0.2704478E+01  0.2257487E+00 -0.1054835E+00
  0.8907400E+01  0.4761110E+01 -0.2568960E-01  0.2071328E+00  0.2794315E+01  0.1947676E+00 -0.7049534E-01
  0.8397840E+01  0.5611260E+01 -0.2568960E-01  0.1664934E+00  0.2952558E+01  0.1635275E+00 -0.3128593E-01
  0.7807410E+01  0.6407370E+01 -0.2568960E-01  0.1337554E+00 -0.3059476E+01  0.1333047E+00  0.1097120E-01
  0.7141780E+01  0.7141780E+01 -0.2568960E-01  0.1191647E+00 -0.2656751E+01  0.1054308E+00  0.5553891E-01
  0.6407370E+01  0.7807410E+01 -0.2568960E-01  0.1296236E+00 -0.2235483E+01  0.7995344E-01  0.1020281E+00
  0.5611260E+01  0.8397840E+01 -0.2568960E-01  0.1614294E+00 -0.1934190E+01  0.5737985E-01  0.1508874E+00
  0.4761110E+01  0.8907410E+01 -0.2568960E-01  0.2042455E+00 -0.1758760E+01  0.3816517E-01  0.2006480E+00
  0.3865100E+01  0.9331180E+01 -0.2568960E-01  0.2509634E+00 -0.1662530E+01  0.2298949E-01  0.2499082E+00
  0.2931870E+01  0.9665100E+01 -0.2568960E-01  0.2989388E+00 -0.1609208E+01  0.1147989E-01  0.2987182E+00
  0.1970410E+01  0.9905930E+01 -0.2568960E-01  0.3470011E+00 -0.1582389E+01  0.4022728E-02  0.3469778E+00
  0.9899730E+00  0.1005140E+02 -0.2568960E-01  0.3934591E+00 -0.1570965E+01  0.6651975E-04  0.3934591E+00
 -0.4414850E-06  0.1010000E+02 -0.2568960E-01  0.4367523E+00 -0.1569210E+01 -0.6928315E-03  0.4367517E+00
 -0.9899740E+00  0.1005140E+02 -0.2568960E-01  0.4774717E+00 -0.1573467E+01  0.1275399E-02  0.4774700E+00
 -0.1970410E+01  0.9905930E+01 -0.2568960E-01  0.5152033E+00 -0.1582436E+01  0.5996620E-02  0.5151684E+00
 -0.2931880E+01  0.9665100E+01 -0.2568960E-01  0.5495242E+00 -0.1593390E+01  0.1241442E-01  0.5493839E+00
 -0.3865100E+01  0.9331180E+01 -0.2568960E-01  0.5794518E+00 -0.1604650E+01  0.1961283E-01  0.5791198E+00
 -0.4761110E+01  0.8907400E+01 -0.2568960E-01  0.6060326E+00 -0.1616000E+01  0.2738572E-01  0.6054135E+00
 -0.5611260E+01  0.8397840E+01 -0.2568960E-01  0.6286527E+00 -0.1627200E+01  0.3543975E-01  0.6276529E+00
 -0.6407370E+01  0.7807410E+01 -0.2568960E-01  0.6474581E+00 -0.1637193E+01  0.4295778E-01  0.6460315E+00
 -0.7141780E+01  0.7141780E+01 -0.2568960E-01  0.6617870E+00 -0.1645025E+01  0.4907859E-01  0.6599646E+00
 -0.7807410E+01  0.6407370E+01 -0.2568960E-01  0.6727030E+00 -0.1651103E+01  0.5396451E-01  0.6705350E+00
 -0.8397840E+01  0.5611260E+01 -0.2568960E-01  0.6793820E+00 -0.1655079E+01  0.5719209E-01  0.6769704E+00
 -0.8907410E+01  0.4761110E+01 -0.2568960E-01  0.6822468E+00 -0.1656850E+01  0.5863726E-01  0.6797222E+00
 -0.9331180E+01  0.3865100E+01 -0.2568960E-01  0.6807861E+00 -0.1656066E+01  0.5798033E-01  0.6783127E+00
 -0.9665100E+01  0.2931880E+01 -0.2568960E-01  0.6759425E+00 -0.1653169E+01  0.5561612E-01  0.6736506E+00
 -0.9905930E+01  0.1970410E+01 -0.2568960E-01  0.6667073E+00 -0.1647690E+01  0.5121494E-01  0.6647373E+00
 -0.1005140E+02  0.9899730E+00 -0.2568960E-01  0.6536483E+00 -0.1640242E+01  0.4535684E-01  0.6520727E+00
 -0.1010000E+02 -0.8829700E-06 -0.2568960E-01  0.6364295E+00 -0.1631277E+01  0.3846809E-01  0.6352658E+00
 -0.1005140E+02 -0.9899740E+00 -0.2568960E-01  0.6157853E+00 -0.1621067E+01  0.3094272E-01  0.6150074E+00
 -0.9905930E+01 -0.1970410E+01 -0.2568960E-01  0.5906391E+00 -0.1609346E+01  0.2276316E-01  0.5902002E+00
 -0.9665100E+01 -0.2931880E+01 -0.2568960E-01  0.5617491E+00 -0.1597293E+01  0.1488278E-01  0.5615519E+00
 -0.9331180E+01 -0.3865100E+01 -0.2568960E-01  0.5291596E+00 -0.1586475E+01  0.8296037E-02  0.5290946E+00
 -0.8907400E+01 -0.4761110E+01 -0.2568960E-01  0.4933959E+00 -0.1577254E+01  0.3186369E-02  0.4933856E+00
 -0.8397840E+01 -0.5611260E+01 -0.2568960E-01  0.4535117E+00 -0.1570567E+01 -0.1041515E-03  0.4535117E+00
 -0.7807400E+01 -0.6407370E+01 -0.2568960E-01  0.4106706E+00 -0.1568782E+01 -0.8273775E-03  0.4106697E+00
 -0.7141780E+01 -0.7141780E+01 -0.2568960E-01  0.3656435E+00 -0.1576159E+01  0.1960733E-02  0.3656383E+00
 -0.6407370E+01 -0.7807410E+01 -0.2568960E-01  0.3188645E+00 -0.1596148E+01  0.8082851E-02  0.3187620E+00
 -0.5611260E+01 -0.8397850E+01 -0.2568960E-01  0.2702595E+00 -0.1637511E+01  0.1801685E-01  0.2696583E+00
 -0.4761110E+01 -0.8907410E+01 -0.2568960E-01  0.2220722E+00 -0.1713969E+01  0.3168608E-01  0.2198001E+00
 -0.3865100E+01 -0.9331190E+01 -0.2568960E-01  0.1775719E+00 -0.1851898E+01  0.4926104E-01  0.1706023E+00
 -0.2931870E+01 -0.9665100E+01 -0.2568960E-01  0.1407491E+00 -0.2093490E+01  0.7026421E-01  0.1219560E+00
 -0.1970410E+01 -0.9905930E+01 -0.2568960E-01  0.1203719E+00 -0.2479350E+01  0.9492715E-01  0.7401513E-01
 -0.9899710E+00 -0.1005140E+02 -0.2568960E-01  0.1253882E+00 -0.2916539E+01  0.1222262E+00  0.2798142E-01
  0.1204410E-06 -0.1010000E+02 -0.2568960E-01  0.1520355E+00  0.3044429E+01  0.1513184E+00 -0.1474912E-01
  0.9899760E+00 -0.1005140E+02 -0.2568960E-01  0.1898599E+00  0.2848469E+01  0.1817617E+00 -0.5485882E-01
  0.1970410E+01 -0.9905930E+01 -0.2568960E-01  0.2322587E+00  0.2734953E+01  0.2133192E+00 -0.9186421E-01
  0.2931880E+01 -0.9665100E+01 -0.2568960E-01  0.2748554E+00  0.2668041E+01  0.2446087E+00 -0.1253479E+00
  0.3865100E+01 -0.9331180E+01 -0.2568960E-01  0.3146655E+00  0.2628939E+01  0.2742139E+00 -0.1543408E+00
  0.4761110E+01 -0.8907410E+01 -0.2568960E-01  0.3516236E+00  0.2604362E+01  0.3020900E+00 -0.1799466E+00
  0.5611260E+01 -0.8397840E+01 -0.2568960E-01  0.3846354E+00  0.2590120E+01  0.3276146E+00 -0.2015268E+00
  0.6407370E+01 -0.7807410E+01 -0.2568960E-01  0.4128934E+00  0.2581615E+01  0.3498310E+00 -0.2193155E+00
  0.7141780E+01 -0.7141780E+01 -0.2568960E-01  0.4350098E+00  0.2577029E+01  0.3675058E+00 -0.2327510E+00
  0.7807410E+01 -0.6407370E+01 -0.2568960E-01  0.4519316E+00  0.2573982E+01  0.3810634E+00 -0.2429668E+00
  0.8397840E+01 -0.5611260E+01 -0.2568960E-01  0.4625774E+00  0.2572766E+01  0.3897370E+00 -0.2491644E+00
  0.8907410E+01 -0.4761110E+01 -0.2568960E-01  0.4671528E+00  0.2572299E+01  0.3934744E+00 -0.2518127E+00
  0.9331180E+01 -0.3865100E+01 -0.2568960E-01  0.4649641E+00  0.2572813E+01  0.3917596E+00 -0.2504317E+00
  0.9665100E+01 -0.2931870E+01 -0.2568960E-01  0.4571323E+00  0.2573452E+01  0.3853183E+00 -0.2459670E+00
  0.9905930E+01 -0.1970410E+01 -0.2568960E-01  0.4425587E+00  0.2575453E+01  0.3735097E+00 -0.2373787E+00
  0.1005140E+02 -0.9899690E+00 -0.2568960E-01  0.4222305E+00  0.2579151E+01  0.3571883E+00 -0.2251558E+00
  0.1010000E+02  0.0000000E+00 -0.1027320E+00  0.3946231E+00  0.2586128E+01  0.3352938E+00 -0.2080996E+00
  0.1005140E+02  0.9899730E+00 -0.1027320E+00  0.3642013E+00  0.2597588E+01  0.3116263E+00 -0.1884985E+00
  0.9905930E+01  0.1970410E+01 -0.1027320E+00  0.3285415E+00  0.2617356E+01  0.2844205E+00 -0.1644522E+00
  0.9665100E+01  0.2931880E+01 -0.1027320E+00  0.2893894E+00  0.2649574E+01  0.2550623E+00 -0.1367095E+00
  0.9331180E+01  0.3865100E+01 -0.1027320E+00  0.2481033E+00  0.2703888E+01  0.2247138E+00 -0.1051615E+00
  0.8907400E+01  0.4761110E+01 -0.1027320E+00  0.2061972E+00  0.2793838E+01  0.1938542E+00 -0.7026958E-01
  0.8397840E+01  0.5611260E+01 -0.1027320E+00  0.1657206E+00  0.2952148E+01  0.1627557E+00 -0.3120742E-01
  0.7807410E+01  0.6407370E+01 -0.1027320E+00  0.1331117E+00 -0.3060202E+01  0.1326711E+00  0.1082211E-01
  0.7141780E+01  0.7141780E+01 -0.1027320E+00  0.1185260E+00 -0.2657492E+01  0.1049066E+00  0.5516342E-01
  0.6407370E+01  0.7807410E+01 -0.1027320E+00  0.1289457E+00 -0.2235667E+01  0.7955398E-01  0.1014798E+00
  0.5611260E+01  0.8397840E+01 -0.1027320E+00  0.1606161E+00 -0.1934230E+01  0.5709678E-01  0.1501249E+00
  0.4761110E+01  0.8907410E+01 -0.1027320E+00  0.2032247E+00 -0.1758690E+01  0.3796032E-01  0.1996480E+00
  0.3865100E+01  0.9331180E+01 -0.1027320E+00  0.2497442E+00 -0.1662353E+01  0.2283391E-01  0.2486981E+00
  0.2931870E+01  0.9665100E+01 -0.1027320E+00  0.2975084E+00 -0.1609134E+01  0.1140309E-01  0.2972898E+00
  0.1970410E+01  0.9905930E+01 -0.1027320E+00  0.3453343E+00 -0.1582372E+01  0.3997293E-02  0.3453112E+00
  0.9899730E+00  0.1005140E+02 -0.1027320E+00  0.3915955E+00 -0.1570926E+01  0.5092976E-04  0.3915955E+00
 -0.4414850E-06  0.1010000E+02 -0.1027320E+00  0.4347376E+00 -0.1569161E+01 -0.7109570E-03  0.4347370E+00
 -0.9899740E+00  0.1005140E+02 -0.1027320E+00  0.4752397E+00 -0.1573476E+01  0.1273490E-02  0.4752380E+00
 -0.1970410E+01  0.9905930E+01 -0.1027320E+00  0.5127587E+00 -0.1582465E+01  0.5982990E-02  0.5127238E+00
 -0.2931880E+01  0.9665100E+01 -0.1027320E+00  0.5469596E+00 -0.1593419E+01  0.1237245E-01  0.5468196E+00
 -0.3865100E+01  0.9331180E+01 -0.1027320E+00  0.5768161E+00 -0.1604699E+01  0.1955160E-01  0.5764846E+00
 -0.4761110E+01  0.8907400E+01 -0.1027320E+00  0.6032166E+00 -0.1616064E+01  0.2729674E-01  0.6025987E+00
 -0.5611260E+01  0.8397840E+01 -0.1027320E+00  0.6256804E+00 -0.1627262E+01  0.3531091E-01  0.6246833E+00
 -0.6407370E+01  0.7807410E+01 -0.1027320E+00  0.6444504E+00 -0.1637267E+01  0.4280560E-01  0.6430272E+00
 -0.7141780E+01  0.7141780E+01 -0.1027320E+00  0.6587898E+00 -0.1645128E+01  0.4892358E-01  0.6569707E+00
 -0.7807410E+01  0.6407370E+01 -0.1027320E+00  0.6695819E+00 -0.1651193E+01  0.5377414E-01  0.6674191E+00
 -0.8397840E+01  0.5611260E+01 -0.1027320E+00  0.6761733E+00 -0.1655156E+01  0.5697435E-01  0.6737686E+00
 -0.8907410E+01  0.4761110E+01 -0.1027320E+00  0.6790824E+00 -0.1656942E+01  0.5842754E-01  0.6765642E+00
 -0.9331180E+01  0.3865100E+01 -0.1027320E+00  0.6777043E+00 -0.1656181E+01  0.5779555E-01  0.6752353E+00
 -0.9665100E+01  0.2931880E+01 -0.1027320E+00  0.6728061E+00 -0.1653257E+01  0.5541704E-01  0.6705200E+00
 -0.9905930E+01  0.1970410E+01 -0.1027320E+00  0.6635578E+00 -0.1647764E+01  0.5102187E-01  0.6615933E+00
 -0.1005140E+02  0.9899730E+00 -0.1027320E+00  0.6506149E+00 -0.1640325E+01  0.4519994E-01  0.6490430E+00
 -0.1010000E+02 -0.8829700E-06 -0.1027320E+00  0.6335433E+00 -0.1631362E+01  0.3834780E-01  0.6323816E+00
 -0.1005140E+02 -0.9899740E+00 -0.1027320E+00  0.6129205E+00 -0.1621126E+01  0.3083493E-01  0.6121444E+00
 -0.9905930E+01 -0.1970410E+01 -0.1027320E+00  0.5878437E+00 -0.1609397E+01  0.2268547E-01  0.5874058E+00
 -0.9665100E+01 -0.2931880E+01 -0.1027320E+00  0.5591337E+00 -0.1597338E+01  0.1483854E-01  0.5589368E+00
 -0.9331180E+01 -0.3865100E+01 -0.1027320E+00  0.5267444E+00 -0.1586490E+01  0.8265952E-02  0.5266795E+00
 -0.8907400E+01 -0.4761110E+01 -0.1027320E+00  0.4910837E+00 -0.1577259E+01  0.3173487E-02  0.4910735E+00
 -0.8397840E+01 -0.5611260E+01 -0.1027320E+00  0.4513521E+00 -0.1570578E+01 -0.9864210E-04  0.4513521E+00
 -0.7807400E+01 -0.6407370E+01 -0.1027320E+00  0.4087389E+00 -0.1568760E+01 -0.8322861E-03  0.4087381E+00
 -0.7141780E+01 -0.7141780E+01 -0.1027320E+00  0.3639356E+00 -0.1576057E+01  0.1914656E-02  0.3639306E+00
 -0.6407370E+01 -0.7807410E+01 -0.1027320E+00  0.3173350E+00 -0.1596079E+01  0.8022071E-02  0.3172336E+00
 -0.5611260E+01 -0.8397850E+01 -0.1027320E+00  0.2689465E+00 -0.1637479E+01  0.1792069E-01  0.2683488E+00
 -0.4761110E+01 -0.8907410E+01 -0.1027320E+00  0.2209829E+00 -0.1713875E+01  0.3151014E-01  0.2187248E+00
 -0.3865100E+01 -0.9331190E+01 -0.1027320E+00  0.1766591E+00 -0.1851757E+01  0.4898389E-01  0.1697322E+00
 -0.2931870E+01 -0.9665100E+01 -0.1027320E+00  0.1400126E+00 -0.2093624E+01  0.6991281E-01  0.1213084E+00
 -0.1970410E+01 -0.9905930E+01 -0.1027320E+00  0.1197605E+00 -0.2479688E+01  0.9446985E-01  0.7360725E-01
 -0.9899710E+00 -0.1005140E+02 -0.1027320E+00  0.1247642E+00 -0.2917176E+01  0.1216357E+00  0.2776471E-01
  0.1204410E-06 -0.1010000E+02 -0.1027320E+00  0.1513254E+00  0.3043491E+01  0.1505978E+00 -0.1482143E-01
  0.9899760E+00 -0.1005140E+02 -0.1027320E+00  0.1890052E+00  0.2847923E+01  0.1809135E+00 -0.5471081E-01
  0.1970410E+01 -0.9905930E+01 -0.1027320E+00  0.2311991E+00  0.2734674E+01  0.2123205E+00 -0.9150442E-01
  0.2931880E+01 -0.9665100E+01 -0.1027320E+00  0.2736309E+00  0.2667691E+01  0.2434753E+00 -0.1248747E+00
  0.3865100E+01 -0.9331180E+01 -0.1027320E+00  0.3133236E+00  0.2628493E+01  0.2729760E+00 -0.1538044E+00
  0.4761110E+01 -0.8907410E+01 -0.1027320E+00  0.3500725E+00  0.2604106E+01  0.3007116E+00 -0.1792297E+00
  0.5611260E+01 -0.8397840E+01 -0.1027320E+00  0.3828866E+00  0.2589983E+01  0.3260975E+00 -0.2006553E+00
  0.6407370E+01 -0.7807410E+01 -0.1027320E+00  0.4110652E+00  0.2581411E+01  0.3482374E+00 -0.2184155E+00
  0.7141780E+01 -0.7141780E+01 -0.1027320E+00  0.4331627E+00  0.2576745E+01  0.3658796E+00 -0.2318664E+00
  0.7807410E+01 -0.6407370E+01 -0.1027320E+00  0.4499350E+00  0.2573808E+01  0.3793378E+00 -0.2419594E+00
  0.8397840E+01 -0.5611260E+01 -0.1027320E+00  0.4604722E+00  0.2572668E+01  0.3879390E+00 -0.2480686E+00
