 VARIABLES="X" "Y" "Z" "abs(eta) (m)" "angle(phi) (rad)" "PRE1" "PRE2"
ZONE N=   3200 ,E =    3136 ,F=FEPOINT,ET=QUADRILATERAL
  0.1010000E+02  0.0000000E+00  0.0000000E+00  0.4231326E+00 -0.1754007E+01  0.7708953E-01  0.4160510E+00
  0.1005140E+02  0.9899730E+00  0.0000000E+00  0.4420290E+00 -0.1758310E+01  0.8240173E-01  0.4342806E+00
  0.9905930E+01  0.1970410E+01  0.0000000E+00  0.4576114E+00 -0.1762814E+01  0.8733051E-01  0.4492010E+00
  0.9665100E+01  0.2931880E+01  0.0000000E+00  0.4706049E+00 -0.1766771E+01  0.9163734E-01  0.4615967E+00
  0.9331180E+01  0.3865100E+01  0.0000000E+00  0.4798059E+00 -0.1769852E+01  0.9487864E-01  0.4703315E+00
  0.8907400E+01  0.4761110E+01  0.0000000E+00  0.4863037E+00 -0.1771982E+01  0.9717872E-01  0.4764951E+00
  0.8397840E+01  0.5611260E+01  0.0000000E+00  0.4890045E+00 -0.1773047E+01  0.9822843E-01  0.4790372E+00
  0.7807410E+01  0.6407370E+01  0.0000000E+00  0.4889556E+00 -0.1772934E+01  0.9816469E-01  0.4790003E+00
  0.7141780E+01  0.7141780E+01  0.0000000E+00  0.4850719E+00 -0.1771665E+01  0.9678166E-01  0.4753189E+00
  0.6407370E+01  0.7807410E+01  0.0000000E+00  0.4784532E+00 -0.1769343E+01  0.9437234E-01  0.4690536E+00
  0.5611260E+01  0.8397840E+01  0.0000000E+00  0.4680032E+00 -0.1765985E+01  0.9076976E-01  0.4591163E+00
  0.4761110E+01  0.8907410E+01  0.0000000E+00  0.4549058E+00 -0.1761856E+01  0.8638642E-01  0.4466281E+00
  0.3865100E+01  0.9331180E+01  0.0000000E+00  0.4383571E+00 -0.1757547E+01  0.8138853E-01  0.4307352E+00
  0.2931870E+01  0.9665100E+01  0.0000000E+00  0.4193383E+00 -0.1753212E+01  0.7607019E-01  0.4123808E+00
  0.1970410E+01  0.9905930E+01  0.0000000E+00  0.3969072E+00 -0.1749392E+01  0.7050975E-01  0.3905940E+00
  0.9899730E+00  0.1005140E+02  0.0000000E+00  0.3722692E+00 -0.1746726E+01  0.6515582E-01  0.3665230E+00
 -0.4414850E-06  0.1010000E+02  0.0000000E+00  0.3450975E+00 -0.1746918E+01  0.6046555E-01  0.3397590E+00
 -0.9899740E+00  0.1005140E+02  0.0000000E+00  0.3161447E+00 -0.1750680E+01  0.5656300E-01  0.3110435E+00
 -0.1970410E+01  0.9905930E+01  0.0000000E+00  0.2848809E+00 -0.1760551E+01  0.5373361E-01  0.2797675E+00
 -0.2931880E+01  0.9665100E+01  0.0000000E+00  0.2524528E+00 -0.1778973E+01  0.5217608E-01  0.2470021E+00
 -0.3865100E+01  0.9331180E+01  0.0000000E+00  0.2193010E+00 -0.1811867E+01  0.5235637E-01  0.2129594E+00
 -0.4761110E+01  0.8907400E+01  0.0000000E+00  0.1861172E+00 -0.1865957E+01  0.5414035E-01  0.1780686E+00
 -0.5611260E+01  0.8397840E+01  0.0000000E+00  0.1535157E+00 -0.1957006E+01  0.5782633E-01  0.1422082E+00
 -0.6407370E+01  0.7807410E+01  0.0000000E+00  0.1235966E+00 -0.2107613E+01  0.6320770E-01  0.1062116E+00
 -0.7141780E+01  0.7141780E+01  0.0000000E+00  0.9987633E-01 -0.2353430E+01  0.7042772E-01  0.7081820E-01
 -0.7807410E+01  0.6407370E+01  0.0000000E+00  0.8697195E-01 -0.2714779E+01  0.7916963E-01  0.3600401E-01
 -0.8397840E+01  0.5611260E+01  0.0000000E+00  0.8954614E-01 -0.3117725E+01  0.8952063E-01  0.2137021E-02
 -0.8907410E+01  0.4761110E+01  0.0000000E+00  0.1054723E+00  0.2848413E+01  0.1009718E+00 -0.3048128E-01
 -0.9331180E+01  0.3865100E+01  0.0000000E+00  0.1284938E+00  0.2648860E+01  0.1132086E+00 -0.6078212E-01
 -0.9665100E+01  0.2931880E+01  0.0000000E+00  0.1543970E+00  0.2524765E+01  0.1259443E+00 -0.8931101E-01
 -0.9905930E+01  0.1970410E+01  0.0000000E+00  0.1806104E+00  0.2448746E+01  0.1389672E+00 -0.1153613E+00
 -0.1005140E+02  0.9899730E+00  0.0000000E+00  0.2059644E+00  0.2399266E+01  0.1517746E+00 -0.1392328E+00
 -0.1010000E+02 -0.8829700E-06  0.0000000E+00  0.2287922E+00  0.2368430E+01  0.1637477E+00 -0.1597890E+00
 -0.1005140E+02 -0.9899740E+00  0.0000000E+00  0.2494675E+00  0.2347357E+01  0.1748343E+00 -0.1779523E+00
 -0.9905930E+01 -0.1970410E+01  0.0000000E+00  0.2669318E+00  0.2334455E+01  0.1846017E+00 -0.1928076E+00
 -0.9665100E+01 -0.2931880E+01  0.0000000E+00  0.2815848E+00  0.2325372E+01  0.1928798E+00 -0.2051521E+00
 -0.9331180E+01 -0.3865100E+01  0.0000000E+00  0.2921347E+00  0.2320340E+01  0.1990328E+00 -0.2138425E+00
 -0.8907400E+01 -0.4761110E+01  0.0000000E+00  0.2995481E+00  0.2316842E+01  0.2033152E+00 -0.2199817E+00
 -0.8397840E+01 -0.5611260E+01  0.0000000E+00  0.3027210E+00  0.2315883E+01  0.2052557E+00 -0.2225087E+00
 -0.7807400E+01 -0.6407370E+01  0.0000000E+00  0.3026093E+00  0.2315645E+01  0.2051269E+00 -0.2224755E+00
 -0.7141780E+01 -0.7141780E+01  0.0000000E+00  0.2981842E+00  0.2317697E+01  0.2025767E+00 -0.2188070E+00
 -0.6407370E+01 -0.7807410E+01  0.0000000E+00  0.2905406E+00  0.2320849E+01  0.1980550E+00 -0.2125749E+00
 -0.5611260E+01 -0.8397850E+01  0.0000000E+00  0.2786740E+00  0.2327214E+01  0.1912598E+00 -0.2026794E+00
 -0.4761110E+01 -0.8907410E+01  0.0000000E+00  0.2638284E+00  0.2336191E+01  0.1827860E+00 -0.1902491E+00
 -0.3865100E+01 -0.9331190E+01  0.0000000E+00  0.2454645E+00  0.2351305E+01  0.1727189E+00 -0.1744161E+00
 -0.2931870E+01 -0.9665100E+01  0.0000000E+00  0.2246470E+00  0.2373127E+01  0.1615162E+00 -0.1561371E+00
 -0.1970410E+01 -0.9905930E+01  0.0000000E+00  0.2007975E+00  0.2408129E+01  0.1491644E+00 -0.1344232E+00
 -0.9899710E+00 -0.1005140E+02  0.0000000E+00  0.1754349E+00  0.2460720E+01  0.1363171E+00 -0.1104313E+00
  0.1204410E-06 -0.1010000E+02  0.0000000E+00  0.1491518E+00  0.2545487E+01  0.1234274E+00 -0.8373736E-01
  0.9899760E+00 -0.1005140E+02  0.0000000E+00  0.1237091E+00  0.2680011E+01  0.1107628E+00 -0.5509570E-01
  0.1970410E+01 -0.9905930E+01  0.0000000E+00  0.1014296E+00  0.2903928E+01  0.9857851E-01 -0.2387996E-01
  0.2931880E+01 -0.9665100E+01  0.0000000E+00  0.8771010E-01 -0.3040750E+01  0.8726451E-01  0.8829922E-02
  0.3865100E+01 -0.9331180E+01  0.0000000E+00  0.8843015E-01 -0.2635913E+01  0.7736273E-01  0.4283573E-01
  0.4761110E+01 -0.8907410E+01  0.0000000E+00  0.1038058E+00 -0.2295851E+01  0.6884155E-01  0.7769486E-01
  0.5611260E+01 -0.8397840E+01  0.0000000E+00  0.1293836E+00 -0.2070808E+01  0.6203115E-01  0.1135441E+00
  0.6407370E+01 -0.7807410E+01  0.0000000E+00  0.1599924E+00 -0.1934264E+01  0.5688007E-01  0.1495400E+00
  0.7141780E+01 -0.7141780E+01  0.0000000E+00  0.1925837E+00 -0.1853223E+01  0.5367062E-01  0.1849539E+00
  0.7807410E+01 -0.6407370E+01  0.0000000E+00  0.2258922E+00 -0.1803682E+01  0.5213290E-01  0.2197941E+00
  0.8397840E+01 -0.5611260E+01  0.0000000E+00  0.2590714E+00 -0.1774647E+01  0.5244689E-01  0.2537072E+00
  0.8907410E+01 -0.4761110E+01  0.0000000E+00  0.2914606E+00 -0.1757814E+01  0.5419109E-01  0.2863784E+00
  0.9331180E+01 -0.3865100E+01  0.0000000E+00  0.3218778E+00 -0.1749579E+01  0.5724015E-01  0.3167474E+00
  0.9665100E+01 -0.2931870E+01  0.0000000E+00  0.3507398E+00 -0.1746436E+01  0.6128740E-01  0.3453437E+00
  0.9905930E+01 -0.1970410E+01  0.0000000E+00  0.3773340E+00 -0.1747308E+01  0.6625871E-01  0.3714710E+00
  0.1005140E+02 -0.9899690E+00  0.0000000E+00  0.4018590E+00 -0.1750089E+01  0.7166484E-01  0.3954173E+00
  0.1010000E+02  0.0000000E+00 -0.2568960E-01  0.4226873E+00 -0.1754019E+01  0.7701322E-01  0.4156122E+00
  0.1005140E+02  0.9899730E+00 -0.2568960E-01  0.4414901E+00 -0.1758343E+01  0.8231530E-01  0.4337485E+00
  0.9905930E+01  0.1970410E+01 -0.2568960E-01  0.4570193E+00 -0.1762852E+01  0.8723454E-01  0.4486165E+00
  0.9665100E+01  0.2931880E+01 -0.2568960E-01  0.4700314E+00 -0.1766808E+01  0.9154266E-01  0.4610308E+00
  0.9331180E+01  0.3865100E+01 -0.2568960E-01  0.4793012E+00 -0.1769887E+01  0.9479520E-01  0.4698335E+00
  0.8907400E+01  0.4761110E+01 -0.2568960E-01  0.4857093E+00 -0.1772020E+01  0.9707797E-01  0.4759091E+00
  0.8397840E+01  0.5611260E+01 -0.2568960E-01  0.4883700E+00 -0.1773085E+01  0.9811909E-01  0.4784118E+00
  0.7807410E+01  0.6407370E+01 -0.2568960E-01  0.4883578E+00 -0.1772972E+01  0.9806282E-01  0.4784110E+00
  0.7141780E+01  0.7141780E+01 -0.2568960E-01  0.4845617E+00 -0.1771701E+01  0.9669718E-01  0.4748154E+00
  0.6407370E+01  0.7807410E+01 -0.2568960E-01  0.4778688E+00 -0.1769381E+01  0.9427478E-01  0.4684772E+00
  0.5611260E+01  0.8397840E+01 -0.2568960E-01  0.4673973E+00 -0.1766023E+01  0.9066975E-01  0.4585185E+00
  0.4761110E+01  0.8907410E+01 -0.2568960E-01  0.4543505E+00 -0.1761890E+01  0.8629591E-01  0.4460800E+00
  0.3865100E+01  0.9331180E+01 -0.2568960E-01  0.4378950E+00 -0.1757565E+01  0.8131044E-01  0.4302798E+00
  0.2931870E+01  0.9665100E+01 -0.2568960E-01  0.4188300E+00 -0.1753243E+01  0.7599097E-01  0.4118785E+00
  0.1970410E+01  0.9905930E+01 -0.2568960E-01  0.3963983E+00 -0.1749432E+01  0.7043507E-01  0.3900904E+00
  0.9899730E+00  0.1005140E+02 -0.2568960E-01  0.3718184E+00 -0.1746750E+01  0.6508584E-01  0.3660775E+00
 -0.4414850E-06  0.1010000E+02 -0.2568960E-01  0.3447310E+00 -0.1746897E+01  0.6039421E-01  0.3393995E+00
 -0.9899740E+00  0.1005140E+02 -0.2568960E-01  0.3157676E+00 -0.1750701E+01  0.5650219E-01  0.3106713E+00
 -0.1970410E+01  0.9905930E+01 -0.2568960E-01  0.2845261E+00 -0.1760599E+01  0.5368010E-01  0.2794164E+00
 -0.2931880E+01  0.9665100E+01 -0.2568960E-01  0.2521521E+00 -0.1778989E+01  0.5211770E-01  0.2467071E+00
 -0.3865100E+01  0.9331180E+01 -0.2568960E-01  0.2190598E+00 -0.1811784E+01  0.5228123E-01  0.2127295E+00
 -0.4761110E+01  0.8907400E+01 -0.2568960E-01  0.1859030E+00 -0.1865962E+01  0.5407885E-01  0.1778635E+00
 -0.5611260E+01  0.8397840E+01 -0.2568960E-01  0.1533427E+00 -0.1957054E+01  0.5776798E-01  0.1420452E+00
 -0.6407370E+01  0.7807410E+01 -0.2568960E-01  0.1234579E+00 -0.2107600E+01  0.6313539E-01  0.1060932E+00
 -0.7141780E+01  0.7141780E+01 -0.2568960E-01  0.9974714E-01 -0.2353361E+01  0.7033177E-01  0.7073142E-01
 -0.7807410E+01  0.6407370E+01 -0.2568960E-01  0.8687800E-01 -0.2714622E+01  0.7907850E-01  0.3597746E-01
 -0.8397840E+01  0.5611260E+01 -0.2568960E-01  0.8944945E-01 -0.3117383E+01  0.8942324E-01  0.2165294E-02
 -0.8907410E+01  0.4761110E+01 -0.2568960E-01  0.1053475E+00  0.2848589E+01  0.1008576E+00 -0.3042741E-01
 -0.9331180E+01  0.3865100E+01 -0.2568960E-01  0.1283558E+00  0.2648701E+01  0.1130774E+00 -0.6073479E-01
 -0.9665100E+01  0.2931880E+01 -0.2568960E-01  0.1542045E+00  0.2524922E+01  0.1258013E+00 -0.8917986E-01
 -0.9905930E+01  0.1970410E+01 -0.2568960E-01  0.1803671E+00  0.2448991E+01  0.1388082E+00 -0.1151720E+00
 -0.1005140E+02  0.9899730E+00 -0.2568960E-01  0.2057092E+00  0.2399397E+01  0.1516048E+00 -0.1390404E+00
 -0.1010000E+02 -0.8829700E-06 -0.2568960E-01  0.2285655E+00  0.2368381E+01  0.1635778E+00 -0.1596386E+00
 -0.1005140E+02 -0.9899740E+00 -0.2568960E-01  0.2491560E+00  0.2347480E+01  0.1746380E+00 -0.1777084E+00
 -0.9905930E+01 -0.1970410E+01 -0.2568960E-01  0.2665688E+00  0.2334640E+01  0.1843862E+00 -0.1925113E+00
 -0.9665100E+01 -0.2931880E+01 -0.2568960E-01  0.2812351E+00  0.2325492E+01  0.1926649E+00 -0.2048741E+00
 -0.9331180E+01 -0.3865100E+01 -0.2568960E-01  0.2918483E+00  0.2320336E+01  0.1988368E+00 -0.2136338E+00
 -0.8907400E+01 -0.4761110E+01 -0.2568960E-01  0.2991756E+00  0.2316960E+01  0.2030885E+00 -0.2196841E+00
 -0.8397840E+01 -0.5611260E+01 -0.2568960E-01  0.3023095E+00  0.2316054E+01  0.2050145E+00 -0.2221713E+00
 -0.7807400E+01 -0.6407370E+01 -0.2568960E-01  0.3022334E+00  0.2315764E+01  0.2048986E+00 -0.2221747E+00
 -0.7141780E+01 -0.7141780E+01 -0.2568960E-01  0.2978920E+00  0.2317696E+01  0.2023779E+00 -0.2185928E+00
 -0.6407370E+01 -0.7807410E+01 -0.2568960E-01  0.2901800E+00  0.2320969E+01  0.1978347E+00 -0.2122873E+00
 -0.5611260E+01 -0.8397850E+01 -0.2568960E-01  0.2782949E+00  0.2327393E+01  0.1910358E+00 -0.2023694E+00
 -0.4761110E+01 -0.8907410E+01 -0.2568960E-01  0.2634991E+00  0.2336314E+01  0.1825812E+00 -0.1899891E+00
 -0.3865100E+01 -0.9331190E+01 -0.2568960E-01  0.2452219E+00  0.2351271E+01  0.1725422E+00 -0.1742497E+00
 -0.2931870E+01 -0.9665100E+01 -0.2568960E-01  0.2243682E+00  0.2373254E+01  0.1613355E+00 -0.1559228E+00
 -0.1970410E+01 -0.9905930E+01 -0.2568960E-01  0.2005257E+00  0.2408355E+01  0.1489930E+00 -0.1342075E+00
 -0.9899710E+00 -0.1005140E+02 -0.2568960E-01  0.1752156E+00  0.2460865E+01  0.1361627E+00 -0.1102734E+00
  0.1204410E-06 -0.1010000E+02 -0.2568960E-01  0.1489968E+00  0.2545357E+01  0.1232882E+00 -0.8366641E-01
  0.9899760E+00 -0.1005140E+02 -0.2568960E-01  0.1235594E+00  0.2680177E+01  0.1106380E+00 -0.5501067E-01
  0.1970410E+01 -0.9905930E+01 -0.2568960E-01  0.1013089E+00  0.2904288E+01  0.9846976E-01 -0.2381612E-01
  0.2931880E+01 -0.9665100E+01 -0.2568960E-01  0.8761113E-01 -0.3040553E+01  0.8716430E-01  0.8837165E-02
  0.3865100E+01 -0.9331180E+01 -0.2568960E-01  0.8831256E-01 -0.2635933E+01  0.7726070E-01  0.4277723E-01
  0.4761110E+01 -0.8907410E+01 -0.2568960E-01  0.1036918E+00 -0.2295810E+01  0.6876277E-01  0.7761228E-01
  0.5611260E+01 -0.8397840E+01 -0.2568960E-01  0.1292445E+00 -0.2070838E+01  0.6196785E-01  0.1134201E+00
  0.6407370E+01 -0.7807410E+01 -0.2568960E-01  0.1598112E+00 -0.1934259E+01  0.5681497E-01  0.1493709E+00
  0.7141780E+01 -0.7141780E+01 -0.2568960E-01  0.1923684E+00 -0.1853127E+01  0.5359292E-01  0.1847523E+00
  0.7807410E+01 -0.6407370E+01 -0.2568960E-01  0.2256249E+00 -0.1803695E+01  0.5207390E-01  0.2195334E+00
  0.8397840E+01 -0.5611260E+01 -0.2568960E-01  0.2587524E+00 -0.1774697E+01  0.5239508E-01  0.2533921E+00
  0.8907410E+01 -0.4761110E+01 -0.2568960E-01  0.2911142E+00 -0.1757833E+01  0.5413218E-01  0.2860370E+00
  0.9331180E+01 -0.3865100E+01 -0.2568960E-01  0.3215348E+00 -0.1749547E+01  0.5716909E-01  0.3164117E+00
  0.9665100E+01 -0.2931870E+01 -0.2568960E-01  0.3503157E+00 -0.1746458E+01  0.6122113E-01  0.3449247E+00
  0.9905930E+01 -0.1970410E+01 -0.2568960E-01  0.3768522E+00 -0.1747350E+01  0.6618936E-01  0.3709939E+00
  0.1005140E+02 -0.9899690E+00 -0.2568960E-01  0.4013726E+00 -0.1750119E+01  0.7158992E-01  0.3949365E+00
  0.1010000E+02  0.0000000E+00 -0.1027320E+00  0.4214403E+00 -0.1753973E+01  0.7676701E-01  0.4143896E+00
  0.1005140E+02  0.9899730E+00 -0.1027320E+00  0.4400534E+00 -0.1758333E+01  0.8204313E-01  0.4323377E+00
  0.9905930E+01  0.1970410E+01 -0.1027320E+00  0.4555821E+00 -0.1762849E+01  0.8695882E-01  0.4472060E+00
  0.9665100E+01  0.2931880E+01 -0.1027320E+00  0.4685090E+00 -0.1766817E+01  0.9125048E-01  0.4595368E+00
  0.9331180E+01  0.3865100E+01 -0.1027320E+00  0.4778979E+00 -0.1769892E+01  0.9451982E-01  0.4684575E+00
  0.8907400E+01  0.4761110E+01 -0.1027320E+00  0.4841340E+00 -0.1772030E+01  0.9676771E-01  0.4743646E+00
  0.8397840E+01  0.5611260E+01 -0.1027320E+00  0.4868365E+00 -0.1773098E+01  0.9781726E-01  0.4769083E+00
  0.7807410E+01  0.6407370E+01 -0.1027320E+00  0.4867752E+00 -0.1772983E+01  0.9775046E-01  0.4768595E+00
  0.7141780E+01  0.7141780E+01 -0.1027320E+00  0.4831441E+00 -0.1771710E+01  0.9641862E-01  0.4734255E+00
  0.6407370E+01  0.7807410E+01 -0.1027320E+00  0.4763223E+00 -0.1769391E+01  0.9397469E-01  0.4669600E+00
  0.5611260E+01  0.8397840E+01 -0.1027320E+00  0.4659283E+00 -0.1766025E+01  0.9038584E-01  0.4570772E+00
  0.4761110E+01  0.8907410E+01 -0.1027320E+00  0.4528726E+00 -0.1761886E+01  0.8601336E-01  0.4446294E+00
  0.3865100E+01  0.9331180E+01 -0.1027320E+00  0.4366063E+00 -0.1757533E+01  0.8105753E-01  0.4290160E+00
  0.2931870E+01  0.9665100E+01 -0.1027320E+00  0.4174746E+00 -0.1753237E+01  0.7574237E-01  0.4105462E+00
  0.1970410E+01  0.9905930E+01 -0.1027320E+00  0.3951458E+00 -0.1749396E+01  0.7019822E-01  0.3888604E+00
  0.9899730E+00  0.1005140E+02 -0.1027320E+00  0.3706011E+00 -0.1746714E+01  0.6485956E-01  0.3648814E+00
 -0.4414850E-06  0.1010000E+02 -0.1027320E+00  0.3436981E+00 -0.1746774E+01  0.6017152E-01  0.3383899E+00
 -0.9899740E+00  0.1005140E+02 -0.1027320E+00  0.3147423E+00 -0.1750654E+01  0.5630394E-01  0.3096653E+00
 -0.1970410E+01  0.9905930E+01 -0.1027320E+00  0.2836124E+00 -0.1760491E+01  0.5347770E-01  0.2785249E+00
 -0.2931880E+01  0.9665100E+01 -0.1027320E+00  0.2513129E+00 -0.1778906E+01  0.5192389E-01  0.2458904E+00
 -0.3865100E+01  0.9331180E+01 -0.1027320E+00  0.2183637E+00 -0.1811511E+01  0.5205717E-01  0.2120678E+00
 -0.4761110E+01  0.8907400E+01 -0.1027320E+00  0.1852897E+00 -0.1865836E+01  0.5387815E-01  0.1772834E+00
 -0.5611260E+01  0.8397840E+01 -0.1027320E+00  0.1528195E+00 -0.1956857E+01  0.5754292E-01  0.1415720E+00
 -0.6407370E+01  0.7807410E+01 -0.1027320E+00  0.1230228E+00 -0.2107523E+01  0.6290478E-01  0.1057242E+00
 -0.7141780E+01  0.7141780E+01 -0.1027320E+00  0.9935315E-01 -0.2353293E+01  0.7004916E-01  0.7045683E-01
 -0.7807410E+01  0.6407370E+01 -0.1027320E+00  0.8656597E-01 -0.2714611E+01  0.7879405E-01  0.3584918E-01
 -0.8397840E+01  0.5611260E+01 -0.1027320E+00  0.8912806E-01 -0.3117827E+01  0.8910289E-01  0.2118014E-02
 -0.8907410E+01  0.4761110E+01 -0.1027320E+00  0.1049971E+00  0.2848258E+01  0.1005122E+00 -0.3035946E-01
 -0.9331180E+01  0.3865100E+01 -0.1027320E+00  0.1279699E+00  0.2647842E+01  0.1126854E+00 -0.6064904E-01
 -0.9665100E+01  0.2931880E+01 -0.1027320E+00  0.1536982E+00  0.2524737E+01  0.1253718E+00 -0.8891035E-01
 -0.9905930E+01  0.1970410E+01 -0.1027320E+00  0.1798131E+00  0.2448687E+01  0.1383470E+00 -0.1148602E+00
 -0.1005140E+02  0.9899730E+00 -0.1027320E+00  0.2050591E+00  0.2399257E+01  0.1511063E+00 -0.1386222E+00
 -0.1010000E+02 -0.8829700E-06 -0.1027320E+00  0.2279458E+00  0.2367943E+01  0.1630645E+00 -0.1592774E+00
 -0.1005140E+02 -0.9899740E+00 -0.1027320E+00  0.2483594E+00  0.2347381E+01  0.1740621E+00 -0.1771575E+00
 -0.9905930E+01 -0.1970410E+01 -0.1027320E+00  0.2657641E+00  0.2334473E+01  0.1837976E+00 -0.1919610E+00
 -0.9665100E+01 -0.2931880E+01 -0.1027320E+00  0.2803471E+00  0.2325417E+01  0.1920412E+00 -0.2042416E+00
 -0.9331180E+01 -0.3865100E+01 -0.1027320E+00  0.2910657E+00  0.2320039E+01  0.1982404E+00 -0.2131197E+00
 -0.8907400E+01 -0.4761110E+01 -0.1027320E+00  0.2982266E+00  0.2316894E+01  0.2024296E+00 -0.2190008E+00
 -0.8397840E+01 -0.5611260E+01 -0.1027320E+00  0.3013991E+00  0.2315923E+01  0.2043682E+00 -0.2215289E+00
 -0.7807400E+01 -0.6407370E+01 -0.1027320E+00  0.3012757E+00  0.2315700E+01  0.2042352E+00 -0.2214837E+00
 -0.7141780E+01 -0.7141780E+01 -0.1027320E+00  0.2970936E+00  0.2317410E+01  0.2017733E+00 -0.2180645E+00
 -0.6407370E+01 -0.7807410E+01 -0.1027320E+00  0.2892630E+00  0.2320900E+01  0.1971948E+00 -0.2116301E+00
 -0.5611260E+01 -0.8397850E+01 -0.1027320E+00  0.2774559E+00  0.2327239E+01  0.1904287E+00 -0.2017887E+00
 -0.4761110E+01 -0.8907410E+01 -0.1027320E+00  0.2626588E+00  0.2336226E+01  0.1819823E+00 -0.1893993E+00
 -0.3865100E+01 -0.9331190E+01 -0.1027320E+00  0.2445599E+00  0.2350874E+01  0.1720075E+00 -0.1738475E+00
 -0.2931870E+01 -0.9665100E+01 -0.1027320E+00  0.2236596E+00  0.2373135E+01  0.1608075E+00 -0.1554496E+00
 -0.1970410E+01 -0.9905930E+01 -0.1027320E+00  0.1999141E+00  0.2408090E+01  0.1485029E+00 -0.1338376E+00
 -0.9899710E+00 -0.1005140E+02 -0.1027320E+00  0.1746458E+00  0.2460704E+01  0.1357022E+00 -0.1099366E+00
  0.1204410E-06 -0.1010000E+02 -0.1027320E+00  0.1485682E+00  0.2544613E+01  0.1228714E+00 -0.8351719E-01
  0.9899760E+00 -0.1005140E+02 -0.1027320E+00  0.1231581E+00  0.2679890E+01  0.1102628E+00 -0.5486364E-01
  0.1970410E+01 -0.9905930E+01 -0.1027320E+00  0.1009644E+00  0.2903788E+01  0.9812304E-01 -0.2378420E-01
  0.2931880E+01 -0.9665100E+01 -0.1027320E+00  0.8729851E-01 -0.3040671E+01  0.8685431E-01  0.8795327E-02
  0.3865100E+01 -0.9331180E+01 -0.1027320E+00  0.8795296E-01 -0.2636245E+01  0.7695939E-01  0.4257904E-01
  0.4761110E+01 -0.8907410E+01 -0.1027320E+00  0.1033192E+00 -0.2295798E+01  0.6851474E-01  0.7733420E-01
  0.5611260E+01 -0.8397840E+01 -0.1027320E+00  0.1287914E+00 -0.2070651E+01  0.6172947E-01  0.1130341E+00
  0.6407370E+01 -0.7807410E+01 -0.1027320E+00  0.1592788E+00 -0.1934114E+01  0.5660399E-01  0.1488816E+00
  0.7141780E+01 -0.7141780E+01 -0.1027320E+00  0.1917417E+00 -0.1852821E+01  0.5336186E-01  0.1841668E+00
  0.7807410E+01 -0.6407370E+01 -0.1027320E+00  0.2248695E+00 -0.1803603E+01  0.5187944E-01  0.2188032E+00
  0.8397840E+01 -0.5611260E+01 -0.1027320E+00  0.2579165E+00 -0.1774571E+01  0.5219395E-01  0.2525801E+00
