 VARIABLES="X" "Y" "Z" "abs(eta) (m)" "angle(phi) (rad)" "PRE1" "PRE2"
ZONE N=   3200 ,E =    3136 ,F=FEPOINT,ET=QUADRILATERAL
  0.1010000E+02  0.0000000E+00  0.0000000E+00  0.1021930E+00  0.2392895E+01  0.7486413E-01 -0.6956131E-01
  0.1005140E+02  0.9899730E+00  0.0000000E+00  0.8636981E-01  0.2515831E+01  0.7000422E-01 -0.5058807E-01
  0.9905930E+01  0.1970410E+01  0.0000000E+00  0.7213968E-01  0.2705538E+01  0.6538922E-01 -0.3046938E-01
  0.9665100E+01  0.2931880E+01  0.0000000E+00  0.6197869E-01  0.2992556E+01  0.6129162E-01 -0.9202964E-02
  0.9331180E+01  0.3865100E+01  0.0000000E+00  0.5915438E-01 -0.2927795E+01  0.5780756E-01  0.1255096E-01
  0.8907400E+01  0.4761110E+01  0.0000000E+00  0.6527514E-01 -0.2575135E+01  0.5507965E-01  0.3502964E-01
  0.8397840E+01  0.5611260E+01  0.0000000E+00  0.7858597E-01 -0.2311838E+01  0.5305002E-01  0.5797802E-01
  0.7807410E+01  0.6407370E+01  0.0000000E+00  0.9622995E-01 -0.2140475E+01  0.5190276E-01  0.8103275E-01
  0.7141780E+01  0.7141780E+01  0.0000000E+00  0.1158667E+00 -0.2031577E+01  0.5151981E-01  0.1037825E+00
  0.6407370E+01  0.7807410E+01  0.0000000E+00  0.1363516E+00 -0.1962086E+01  0.5200189E-01  0.1260459E+00
  0.5611260E+01  0.8397840E+01  0.0000000E+00  0.1572480E+00 -0.1916009E+01  0.5321217E-01  0.1479709E+00
  0.4761110E+01  0.8907410E+01  0.0000000E+00  0.1777177E+00 -0.1886273E+01  0.5514033E-01  0.1689471E+00
  0.3865100E+01  0.9331180E+01  0.0000000E+00  0.1974573E+00 -0.1866460E+01  0.5753410E-01  0.1888894E+00
  0.2931870E+01  0.9665100E+01  0.0000000E+00  0.2158774E+00 -0.1854335E+01  0.6039283E-01  0.2072577E+00
  0.1970410E+01  0.9905930E+01  0.0000000E+00  0.2334317E+00 -0.1846698E+01  0.6359030E-01  0.2246033E+00
  0.9899730E+00  0.1005140E+02  0.0000000E+00  0.2493261E+00 -0.1842606E+01  0.6693779E-01  0.2401725E+00
 -0.4414850E-06  0.1010000E+02  0.0000000E+00  0.2637645E+00 -0.1840220E+01  0.7020770E-01  0.2542491E+00
 -0.9899740E+00  0.1005140E+02  0.0000000E+00  0.2759213E+00 -0.1839692E+01  0.7330327E-01  0.2660060E+00
 -0.1970410E+01  0.9905930E+01  0.0000000E+00  0.2866165E+00 -0.1839843E+01  0.7618637E-01  0.2763054E+00
 -0.2931880E+01  0.9665100E+01  0.0000000E+00  0.2950383E+00 -0.1840507E+01  0.7861363E-01  0.2843721E+00
 -0.3865100E+01  0.9331180E+01  0.0000000E+00  0.3016942E+00 -0.1840939E+01  0.8051269E-01  0.2907527E+00
 -0.4761110E+01  0.8907400E+01  0.0000000E+00  0.3055964E+00 -0.1841614E+01  0.8175296E-01  0.2944582E+00
 -0.5611260E+01  0.8397840E+01  0.0000000E+00  0.3077412E+00 -0.1841869E+01  0.8240227E-01  0.2965038E+00
 -0.6407370E+01  0.7807410E+01  0.0000000E+00  0.3073866E+00 -0.1841874E+01  0.8230881E-01  0.2961618E+00
 -0.7141780E+01  0.7141780E+01  0.0000000E+00  0.3052492E+00 -0.1841384E+01  0.8159232E-01  0.2941425E+00
 -0.7807410E+01  0.6407370E+01  0.0000000E+00  0.3003124E+00 -0.1841018E+01  0.8016691E-01  0.2894146E+00
 -0.8397840E+01  0.5611260E+01  0.0000000E+00  0.2935888E+00 -0.1840274E+01  0.7816168E-01  0.2829932E+00
 -0.8907410E+01  0.4761110E+01  0.0000000E+00  0.2845131E+00 -0.1839773E+01  0.7560795E-01  0.2742830E+00
 -0.9331180E+01  0.3865100E+01  0.0000000E+00  0.2738953E+00 -0.1839608E+01  0.7274275E-01  0.2640589E+00
 -0.9665100E+01  0.2931880E+01  0.0000000E+00  0.2608675E+00 -0.1840799E+01  0.6958228E-01  0.2514163E+00
 -0.9905930E+01  0.1970410E+01  0.0000000E+00  0.2462912E+00 -0.1843079E+01  0.6623524E-01  0.2372178E+00
 -0.1005140E+02  0.9899730E+00  0.0000000E+00  0.2299027E+00 -0.1847961E+01  0.6290812E-01  0.2211285E+00
 -0.1010000E+02 -0.8829700E-06  0.0000000E+00  0.2124984E+00 -0.1856117E+01  0.5981098E-01  0.2039074E+00
 -0.1005140E+02 -0.9899740E+00  0.0000000E+00  0.1935315E+00 -0.1870068E+01  0.5705773E-01  0.1849294E+00
 -0.9905930E+01 -0.1970410E+01  0.0000000E+00  0.1736378E+00 -0.1891101E+01  0.5467090E-01  0.1648065E+00
 -0.9665100E+01 -0.2931880E+01  0.0000000E+00  0.1529773E+00 -0.1923963E+01  0.5291040E-01  0.1435359E+00
 -0.9331180E+01 -0.3865100E+01  0.0000000E+00  0.1323493E+00 -0.1973174E+01  0.5182892E-01  0.1217789E+00
 -0.8907400E+01 -0.4761110E+01  0.0000000E+00  0.1118905E+00 -0.2049781E+01  0.5156791E-01  0.9929872E-01
 -0.8397840E+01 -0.5611260E+01  0.0000000E+00  0.9240060E-01 -0.2169113E+01  0.5204483E-01  0.7634924E-01
 -0.7807400E+01 -0.6407370E+01  0.0000000E+00  0.7545444E-01 -0.2357318E+01  0.5341426E-01  0.5329437E-01
 -0.7141780E+01 -0.7141780E+01  0.0000000E+00  0.6337330E-01 -0.2638663E+01  0.5552604E-01  0.3054560E-01
 -0.6407370E+01 -0.7807410E+01  0.0000000E+00  0.5904402E-01 -0.3000808E+01  0.5845985E-01  0.8285043E-02
 -0.5611260E+01 -0.8397850E+01  0.0000000E+00  0.6355333E-01  0.2925341E+01  0.6207309E-01 -0.1363664E-01
 -0.4761110E+01 -0.8907410E+01  0.0000000E+00  0.7480242E-01  0.2660586E+01  0.6631457E-01 -0.3460896E-01
 -0.3865100E+01 -0.9331190E+01  0.0000000E+00  0.8946708E-01  0.2485925E+01  0.7091527E-01 -0.5454707E-01
 -0.2931870E+01 -0.9665100E+01  0.0000000E+00  0.1052003E+00  0.2375870E+01  0.7583701E-01 -0.7290994E-01
 -0.1970410E+01 -0.9905930E+01  0.0000000E+00  0.1212471E+00  0.2302039E+01  0.8096823E-01 -0.9024971E-01
 -0.9899710E+00 -0.1005140E+02  0.0000000E+00  0.1364007E+00  0.2253680E+01  0.8607329E-01 -0.1058137E+00
  0.1204410E-06 -0.1010000E+02  0.0000000E+00  0.1504665E+00  0.2219678E+01  0.9092633E-01 -0.1198857E+00
  0.9899760E+00 -0.1005140E+02  0.0000000E+00  0.1625608E+00  0.2197834E+01  0.9538226E-01 -0.1316368E+00
  0.1970410E+01 -0.9905930E+01  0.0000000E+00  0.1732979E+00  0.2181914E+01  0.9943541E-01 -0.1419322E+00
  0.2931880E+01 -0.9665100E+01  0.0000000E+00  0.1818394E+00  0.2171615E+01  0.1027971E+00 -0.1499943E+00
  0.3865100E+01 -0.9331180E+01  0.0000000E+00  0.1885858E+00  0.2163945E+01  0.1054146E+00 -0.1563725E+00
  0.4761110E+01 -0.8907410E+01  0.0000000E+00  0.1926026E+00  0.2160476E+01  0.1071054E+00 -0.1600756E+00
  0.5611260E+01 -0.8397840E+01  0.0000000E+00  0.1947906E+00  0.2158384E+01  0.1079831E+00 -0.1621205E+00
  0.6407370E+01 -0.7807410E+01  0.0000000E+00  0.1944371E+00  0.2158826E+01  0.1078586E+00 -0.1617786E+00
  0.7141780E+01 -0.7141780E+01  0.0000000E+00  0.1922195E+00  0.2160440E+01  0.1068866E+00 -0.1597611E+00
  0.7807410E+01 -0.6407370E+01  0.0000000E+00  0.1872078E+00  0.2165808E+01  0.1049334E+00 -0.1550346E+00
  0.8397840E+01 -0.5611260E+01  0.0000000E+00  0.1803541E+00  0.2173111E+01  0.1021799E+00 -0.1486165E+00
  0.8907410E+01 -0.4761110E+01  0.0000000E+00  0.1711835E+00  0.2184858E+01  0.9863459E-01 -0.1399108E+00
  0.9331180E+01 -0.3865100E+01  0.0000000E+00  0.1605145E+00  0.2200891E+01  0.9457853E-01 -0.1296913E+00
  0.9665100E+01 -0.2931870E+01  0.0000000E+00  0.1476485E+00  0.2226232E+01  0.8999241E-01 -0.1170532E+00
  0.9905930E+01 -0.1970410E+01  0.0000000E+00  0.1334584E+00  0.2261605E+01  0.8503446E-01 -0.1028606E+00
  0.1005140E+02 -0.9899690E+00  0.0000000E+00  0.1179624E+00  0.2314998E+01  0.7990593E-01 -0.8677655E-01
  0.1010000E+02  0.0000000E+00 -0.2568960E-01  0.1021416E+00  0.2392668E+01  0.7481071E-01 -0.6954324E-01
  0.1005140E+02  0.9899730E+00 -0.2568960E-01  0.8631954E-01  0.2515652E+01  0.6995443E-01 -0.5057114E-01
  0.9905930E+01  0.1970410E+01 -0.2568960E-01  0.7207971E-01  0.2706209E+01  0.6535529E-01 -0.3040019E-01
  0.9665100E+01  0.2931880E+01 -0.2568960E-01  0.6193427E-01  0.2992380E+01  0.6124609E-01 -0.9207108E-02
  0.9331180E+01  0.3865100E+01 -0.2568960E-01  0.5910481E-01 -0.2927992E+01  0.5776159E-01  0.1252905E-01
  0.8907400E+01  0.4761110E+01 -0.2568960E-01  0.6522311E-01 -0.2575201E+01  0.5503803E-01  0.3499812E-01
  0.8397840E+01  0.5611260E+01 -0.2568960E-01  0.7854698E-01 -0.2311995E+01  0.5303277E-01  0.5794095E-01
  0.7807410E+01  0.6407370E+01 -0.2568960E-01  0.9616240E-01 -0.2140434E+01  0.5186298E-01  0.8097801E-01
  0.7141780E+01  0.7141780E+01 -0.2568960E-01  0.1157889E+00 -0.2031502E+01  0.5147746E-01  0.1037167E+00
  0.6407370E+01  0.7807410E+01 -0.2568960E-01  0.1362603E+00 -0.1962048E+01  0.5196226E-01  0.1259635E+00
  0.5611260E+01  0.8397840E+01 -0.2568960E-01  0.1571039E+00 -0.1916196E+01  0.5319116E-01  0.1478253E+00
  0.4761110E+01  0.8907410E+01 -0.2568960E-01  0.1776059E+00 -0.1886237E+01  0.5509971E-01  0.1688428E+00
  0.3865100E+01  0.9331180E+01 -0.2568960E-01  0.1973423E+00 -0.1866407E+01  0.5749060E-01  0.1887824E+00
  0.2931870E+01  0.9665100E+01 -0.2568960E-01  0.2157428E+00 -0.1854307E+01  0.6034924E-01  0.2071302E+00
  0.1970410E+01  0.9905930E+01 -0.2568960E-01  0.2331923E+00 -0.1846807E+01  0.6354940E-01  0.2243660E+00
  0.9899730E+00  0.1005140E+02 -0.2568960E-01  0.2491738E+00 -0.1842584E+01  0.6689166E-01  0.2400273E+00
 -0.4414850E-06  0.1010000E+02 -0.2568960E-01  0.2636177E+00 -0.1840187E+01  0.7016025E-01  0.2541099E+00
 -0.9899740E+00  0.1005140E+02 -0.2568960E-01  0.2757531E+00 -0.1839673E+01  0.7325343E-01  0.2658453E+00
 -0.1970410E+01  0.9905930E+01 -0.2568960E-01  0.2863130E+00 -0.1839906E+01  0.7612292E-01  0.2760080E+00
 -0.2931880E+01  0.9665100E+01 -0.2568960E-01  0.2948598E+00 -0.1840491E+01  0.7856158E-01  0.2842013E+00
 -0.3865100E+01  0.9331180E+01 -0.2568960E-01  0.3015285E+00 -0.1840915E+01  0.8046170E-01  0.2905948E+00
 -0.4761110E+01  0.8907400E+01 -0.2568960E-01  0.3054118E+00 -0.1841598E+01  0.8169901E-01  0.2942816E+00
 -0.5611260E+01  0.8397840E+01 -0.2568960E-01  0.3074115E+00 -0.1841916E+01  0.8232789E-01  0.2961823E+00
 -0.6407370E+01  0.7807410E+01 -0.2568960E-01  0.3072010E+00 -0.1841859E+01  0.8225465E-01  0.2959842E+00
 -0.7141780E+01  0.7141780E+01 -0.2568960E-01  0.3050824E+00 -0.1841361E+01  0.8154095E-01  0.2939835E+00
 -0.7807410E+01  0.6407370E+01 -0.2568960E-01  0.3001308E+00 -0.1841003E+01  0.8011402E-01  0.2892408E+00
 -0.8397840E+01  0.5611260E+01 -0.2568960E-01  0.2932771E+00 -0.1840331E+01  0.7809464E-01  0.2826883E+00
 -0.8907410E+01  0.4761110E+01 -0.2568960E-01  0.2843401E+00 -0.1839755E+01  0.7555696E-01  0.2741176E+00
 -0.9331180E+01  0.3865100E+01 -0.2568960E-01  0.2737435E+00 -0.1839577E+01  0.7269437E-01  0.2639148E+00
 -0.9665100E+01  0.2931880E+01 -0.2568960E-01  0.2607085E+00 -0.1840779E+01  0.6953477E-01  0.2512645E+00
 -0.9905930E+01  0.1970410E+01 -0.2568960E-01  0.2460371E+00 -0.1843174E+01  0.6618949E-01  0.2369667E+00
 -0.1005140E+02  0.9899730E+00 -0.2568960E-01  0.2297604E+00 -0.1847934E+01  0.6286332E-01  0.2209933E+00
 -0.1010000E+02 -0.8829700E-06 -0.2568960E-01  0.2123765E+00 -0.1856069E+01  0.5976681E-01  0.2037933E+00
 -0.1005140E+02 -0.9899740E+00 -0.2568960E-01  0.1934113E+00 -0.1870035E+01  0.5701629E-01  0.1848163E+00
 -0.9905930E+01 -0.1970410E+01 -0.2568960E-01  0.1734731E+00 -0.1891270E+01  0.5464686E-01  0.1646409E+00
 -0.9665100E+01 -0.2931880E+01 -0.2568960E-01  0.1528771E+00 -0.1923925E+01  0.5287034E-01  0.1434439E+00
 -0.9331180E+01 -0.3865100E+01 -0.2568960E-01  0.1322642E+00 -0.1973101E+01  0.5178672E-01  0.1217043E+00
 -0.8907400E+01 -0.4761110E+01 -0.2568960E-01  0.1118146E+00 -0.2049738E+01  0.5152861E-01  0.9923358E-01
 -0.8397840E+01 -0.5611260E+01 -0.2568960E-01  0.9234265E-01 -0.2169328E+01  0.5202862E-01  0.7629016E-01
 -0.7807400E+01 -0.6407370E+01 -0.2568960E-01  0.7539619E-01 -0.2357328E+01  0.5337357E-01  0.5325268E-01
 -0.7141780E+01 -0.7141780E+01 -0.2568960E-01  0.6331929E-01 -0.2638743E+01  0.5548117E-01  0.3051511E-01
 -0.6407370E+01 -0.7807410E+01 -0.2568960E-01  0.5899861E-01 -0.3000937E+01  0.5841596E-01  0.8271138E-02
 -0.5611260E+01 -0.8397850E+01 -0.2568960E-01  0.6351426E-01  0.2925995E+01  0.6204382E-01 -0.1358770E-01
 -0.4761110E+01 -0.8907410E+01 -0.2568960E-01  0.7475641E-01  0.2660383E+01  0.6626675E-01 -0.3460113E-01
 -0.3865100E+01 -0.9331190E+01 -0.2568960E-01  0.8941942E-01  0.2485667E+01  0.7086343E-01 -0.5453629E-01
 -0.2931870E+01 -0.9665100E+01 -0.2568960E-01  0.1051399E+00  0.2375731E+01  0.7578328E-01 -0.7287855E-01
 -0.1970410E+01 -0.9905930E+01 -0.2568960E-01  0.1211047E+00  0.2302463E+01  0.8091135E-01 -0.9010939E-01
 -0.9899710E+00 -0.1005140E+02 -0.2568960E-01  0.1363262E+00  0.2253570E+01  0.8601464E-01 -0.1057653E+00
  0.1204410E-06 -0.1010000E+02 -0.2568960E-01  0.1503960E+00  0.2219531E+01  0.9086608E-01 -0.1198429E+00
  0.9899760E+00 -0.1005140E+02 -0.2568960E-01  0.1624710E+00  0.2197746E+01  0.9531800E-01 -0.1315724E+00
  0.1970410E+01 -0.9905930E+01 -0.2568960E-01  0.1730843E+00  0.2182179E+01  0.9935050E-01 -0.1417310E+00
  0.2931880E+01 -0.9665100E+01 -0.2568960E-01  0.1817400E+00  0.2171538E+01  0.1027294E+00 -0.1499204E+00
  0.3865100E+01 -0.9331180E+01 -0.2568960E-01  0.1884979E+00  0.2163834E+01  0.1053482E+00 -0.1563113E+00
  0.4761110E+01 -0.8907410E+01 -0.2568960E-01  0.1924967E+00  0.2160404E+01  0.1070349E+00 -0.1599953E+00
  0.5611260E+01 -0.8397840E+01 -0.2568960E-01  0.1945493E+00  0.2158605E+01  0.1078852E+00 -0.1618957E+00
  0.6407370E+01 -0.7807410E+01 -0.2568960E-01  0.1943303E+00  0.2158755E+01  0.1077879E+00 -0.1616974E+00
  0.7141780E+01 -0.7141780E+01 -0.2568960E-01  0.1921301E+00  0.2160332E+01  0.1068196E+00 -0.1596983E+00
  0.7807410E+01 -0.6407370E+01 -0.2568960E-01  0.1871053E+00  0.2165733E+01  0.1048644E+00 -0.1549576E+00
  0.8397840E+01 -0.5611260E+01 -0.2568960E-01  0.1801314E+00  0.2173361E+01  0.1020909E+00 -0.1484075E+00
  0.8907410E+01 -0.4761110E+01 -0.2568960E-01  0.1710890E+00  0.2184776E+01  0.9856859E-01 -0.1398417E+00
  0.9331180E+01 -0.3865100E+01 -0.2568960E-01  0.1604394E+00  0.2200755E+01  0.9451673E-01 -0.1296433E+00
  0.9665100E+01 -0.2931870E+01 -0.2568960E-01  0.1475680E+00  0.2226132E+01  0.8993167E-01 -0.1169983E+00
  0.9905930E+01 -0.1970410E+01 -0.2568960E-01  0.1332986E+00  0.2261983E+01  0.8497144E-01 -0.1027052E+00
  0.1005140E+02 -0.9899690E+00 -0.2568960E-01  0.1178958E+00  0.2314875E+01  0.7985012E-01 -0.8673735E-01
  0.1010000E+02  0.0000000E+00 -0.1027320E+00  0.1019643E+00  0.2392252E+01  0.7465192E-01 -0.6945363E-01
  0.1005140E+02  0.9899730E+00 -0.1027320E+00  0.8615159E-01  0.2515428E+01  0.6980703E-01 -0.5048837E-01
  0.9905930E+01  0.1970410E+01 -0.1027320E+00  0.7192487E-01  0.2706475E+01  0.6522294E-01 -0.3031756E-01
  0.9665100E+01  0.2931880E+01 -0.1027320E+00  0.6180115E-01  0.2992187E+01  0.6111267E-01 -0.9199106E-02
  0.9331180E+01  0.3865100E+01 -0.1027320E+00  0.5896236E-01 -0.2928354E+01  0.5762691E-01  0.1247799E-01
  0.8907400E+01  0.4761110E+01 -0.1027320E+00  0.6507517E-01 -0.2575303E+01  0.5491678E-01  0.3491312E-01
  0.8397840E+01  0.5611260E+01 -0.1027320E+00  0.7838573E-01 -0.2312073E+01  0.5292838E-01  0.5781789E-01
  0.7807410E+01  0.6407370E+01 -0.1027320E+00  0.9595887E-01 -0.2140366E+01  0.5174774E-01  0.8081013E-01
  0.7141780E+01  0.7141780E+01 -0.1027320E+00  0.1155487E+00 -0.2031341E+01  0.5135403E-01  0.1035098E+00
  0.6407370E+01  0.7807410E+01 -0.1027320E+00  0.1359737E+00 -0.1962004E+01  0.5184750E-01  0.1257008E+00
  0.5611260E+01  0.8397840E+01 -0.1027320E+00  0.1567557E+00 -0.1916283E+01  0.5308606E-01  0.1474931E+00
  0.4761110E+01  0.8907410E+01 -0.1027320E+00  0.1772460E+00 -0.1886200E+01  0.5498179E-01  0.1685026E+00
  0.3865100E+01  0.9331180E+01 -0.1027320E+00  0.1969679E+00 -0.1866311E+01  0.5736350E-01  0.1884298E+00
  0.2931870E+01  0.9665100E+01 -0.1027320E+00  0.2153031E+00 -0.1854287E+01  0.6022204E-01  0.2067093E+00
  0.1970410E+01  0.9905930E+01 -0.1027320E+00  0.2326660E+00 -0.1846871E+01  0.6342030E-01  0.2238557E+00
  0.9899730E+00  0.1005140E+02 -0.1027320E+00  0.2486744E+00 -0.1842577E+01  0.6675591E-01  0.2395467E+00
 -0.4414850E-06  0.1010000E+02 -0.1027320E+00  0.2631319E+00 -0.1840146E+01  0.7002059E-01  0.2536445E+00
 -0.9899740E+00  0.1005140E+02 -0.1027320E+00  0.2751975E+00 -0.1839674E+01  0.7310615E-01  0.2653095E+00
 -0.1970410E+01  0.9905930E+01 -0.1027320E+00  0.2856629E+00 -0.1839959E+01  0.7596480E-01  0.2753773E+00
 -0.2931880E+01  0.9665100E+01 -0.1027320E+00  0.2942694E+00 -0.1840501E+01  0.7840722E-01  0.2836314E+00
 -0.3865100E+01  0.9331180E+01 -0.1027320E+00  0.3009778E+00 -0.1840903E+01  0.8031119E-01  0.2900651E+00
 -0.4761110E+01  0.8907400E+01 -0.1027320E+00  0.3047996E+00 -0.1841611E+01  0.8153898E-01  0.2936907E+00
 -0.5611260E+01  0.8397840E+01 -0.1027320E+00  0.3067126E+00 -0.1841966E+01  0.8215550E-01  0.2955048E+00
 -0.6407370E+01  0.7807410E+01 -0.1027320E+00  0.3065856E+00 -0.1841872E+01  0.8209379E-01  0.2953902E+00
 -0.7141780E+01  0.7141780E+01 -0.1027320E+00  0.3045249E+00 -0.1841352E+01  0.8138930E-01  0.2934470E+00
 -0.7807410E+01  0.6407370E+01 -0.1027320E+00  0.2995307E+00 -0.1841014E+01  0.7995709E-01  0.2886616E+00
 -0.8397840E+01  0.5611260E+01 -0.1027320E+00  0.2926104E+00 -0.1840384E+01  0.7793205E-01  0.2820415E+00
 -0.8907410E+01  0.4761110E+01 -0.1027320E+00  0.2837682E+00 -0.1839759E+01  0.7540608E-01  0.2735659E+00
 -0.9331180E+01  0.3865100E+01 -0.1027320E+00  0.2732402E+00 -0.1839545E+01  0.7255217E-01  0.2634320E+00
 -0.9665100E+01  0.2931880E+01 -0.1027320E+00  0.2601866E+00 -0.1840776E+01  0.6939492E-01  0.2507617E+00
 -0.9905930E+01  0.1970410E+01 -0.1027320E+00  0.2454807E+00 -0.1843235E+01  0.6605426E-01  0.2364268E+00
 -0.1005140E+02  0.9899730E+00 -0.1027320E+00  0.2292929E+00 -0.1847919E+01  0.6273214E-01  0.2205446E+00
 -0.1010000E+02 -0.8829700E-06 -0.1027320E+00  0.2119766E+00 -0.1855987E+01  0.5963761E-01  0.2034145E+00
 -0.1005140E+02 -0.9899740E+00 -0.1027320E+00  0.1930204E+00 -0.1870005E+01  0.5689557E-01  0.1844445E+00
 -0.9905930E+01 -0.1970410E+01 -0.1027320E+00  0.1730862E+00 -0.1891352E+01  0.5453838E-01  0.1642693E+00
 -0.9665100E+01 -0.2931880E+01 -0.1027320E+00  0.1525587E+00 -0.1923885E+01  0.5275437E-01  0.1431473E+00
 -0.9331180E+01 -0.3865100E+01 -0.1027320E+00  0.1319973E+00 -0.1972948E+01  0.5166368E-01  0.1214667E+00
 -0.8907400E+01 -0.4761110E+01 -0.1027320E+00  0.1115816E+00 -0.2049669E+01  0.5141445E-01  0.9903029E-01
 -0.8397840E+01 -0.5611260E+01 -0.1027320E+00  0.9214807E-01 -0.2169426E+01  0.5192648E-01  0.7612430E-01
 -0.7807400E+01 -0.6407370E+01 -0.1027320E+00  0.7522728E-01 -0.2357354E+01  0.5325537E-01  0.5313199E-01
 -0.7141780E+01 -0.7141780E+01 -0.1027320E+00  0.6316487E-01 -0.2638880E+01  0.5535004E-01  0.3043313E-01
 -0.6407370E+01 -0.7807410E+01 -0.1027320E+00  0.5886804E-01 -0.3001074E+01  0.5828781E-01  0.8244886E-02
 -0.5611260E+01 -0.8397850E+01 -0.1027320E+00  0.6338312E-01  0.2926245E+01  0.6191910E-01 -0.1354417E-01
 -0.4761110E+01 -0.8907410E+01 -0.1027320E+00  0.7460770E-01  0.2660119E+01  0.6612580E-01 -0.3454978E-01
 -0.3865100E+01 -0.9331190E+01 -0.1027320E+00  0.8925901E-01  0.2485185E+01  0.7071009E-01 -0.5447251E-01
 -0.2931870E+01 -0.9665100E+01 -0.1027320E+00  0.1049334E+00  0.2375587E+01  0.7562403E-01 -0.7274637E-01
 -0.1970410E+01 -0.9905930E+01 -0.1027320E+00  0.1208277E+00  0.2302656E+01  0.8074360E-01 -0.8988768E-01
 -0.9899710E+00 -0.1005140E+02 -0.1027320E+00  0.1360666E+00  0.2253463E+01  0.8583954E-01 -0.1055732E+00
  0.1204410E-06 -0.1010000E+02 -0.1027320E+00  0.1501460E+00  0.2219287E+01  0.9068587E-01 -0.1196658E+00
  0.9899760E+00 -0.1005140E+02 -0.1027320E+00  0.1621579E+00  0.2197675E+01  0.9512506E-01 -0.1313256E+00
  0.1970410E+01 -0.9905930E+01 -0.1027320E+00  0.1726839E+00  0.2182322E+01  0.9914073E-01 -0.1413889E+00
  0.2931880E+01 -0.9665100E+01 -0.1027320E+00  0.1813932E+00  0.2171483E+01  0.1025251E+00 -0.1496398E+00
  0.3865100E+01 -0.9331180E+01 -0.1027320E+00  0.1881867E+00  0.2163671E+01  0.1051488E+00 -0.1560704E+00
  0.4761110E+01 -0.8907410E+01 -0.1027320E+00  0.1921277E+00  0.2160358E+01  0.1068224E+00 -0.1596935E+00
  0.5611260E+01 -0.8397840E+01 -0.1027320E+00  0.1940985E+00  0.2158734E+01  0.1076559E+00 -0.1615067E+00
  0.6407370E+01 -0.7807410E+01 -0.1027320E+00  0.1939580E+00  0.2158710E+01  0.1075742E+00 -0.1613924E+00
  0.7141780E+01 -0.7141780E+01 -0.1027320E+00  0.1918127E+00  0.2160176E+01  0.1066183E+00 -0.1594511E+00
  0.7807410E+01 -0.6407370E+01 -0.1027320E+00  0.1867481E+00  0.2165683E+01  0.1046564E+00 -0.1546670E+00
  0.8397840E+01 -0.5611260E+01 -0.1027320E+00  0.1797144E+00  0.2173498E+01  0.1018748E+00 -0.1480500E+00
