 VARIABLES="X" "Y" "Z" "abs(eta) (m)" "angle(phi) (rad)" "PRE1" "PRE2"
ZONE N=   3200 ,E =    3136 ,F=FEPOINT,ET=QUADRILATERAL
  0.1010000E+02  0.0000000E+00  0.0000000E+00  0.2421139E+00  0.2231708E+01  0.1486184E+00 -0.1911326E+00
  0.1005140E+02  0.9899730E+00  0.0000000E+00  0.2404308E+00  0.2233146E+01  0.1478580E+00 -0.1895916E+00
  0.9905930E+01  0.1970410E+01  0.0000000E+00  0.2357500E+00  0.2236605E+01  0.1456217E+00 -0.1853979E+00
  0.9665100E+01  0.2931880E+01  0.0000000E+00  0.2286698E+00  0.2241294E+01  0.1420899E+00 -0.1791657E+00
  0.9331180E+01  0.3865100E+01  0.0000000E+00  0.2189892E+00  0.2249188E+01  0.1374249E+00 -0.1705012E+00
  0.8907400E+01  0.4761110E+01  0.0000000E+00  0.2063302E+00  0.2262545E+01  0.1316149E+00 -0.1589014E+00
  0.8397840E+01  0.5611260E+01  0.0000000E+00  0.1909787E+00  0.2282375E+01  0.1247148E+00 -0.1446343E+00
  0.7807410E+01  0.6407370E+01  0.0000000E+00  0.1738880E+00  0.2310181E+01  0.1171716E+00 -0.1284829E+00
  0.7141780E+01  0.7141780E+01  0.0000000E+00  0.1554154E+00  0.2351616E+01  0.1093909E+00 -0.1103973E+00
  0.6407370E+01  0.7807410E+01  0.0000000E+00  0.1355044E+00  0.2416289E+01  0.1013976E+00 -0.8988854E-01
  0.5611260E+01  0.8397840E+01  0.0000000E+00  0.1148549E+00  0.2518059E+01  0.9324156E-01 -0.6706468E-01
  0.4761110E+01  0.8907410E+01  0.0000000E+00  0.9553849E-01  0.2676830E+01  0.8540454E-01 -0.4282135E-01
  0.3865100E+01  0.9331180E+01  0.0000000E+00  0.8024742E-01  0.2921061E+01  0.7830393E-01 -0.1755401E-01
  0.2931870E+01  0.9665100E+01  0.0000000E+00  0.7255503E-01 -0.3015570E+01  0.7197964E-01  0.9119413E-02
  0.1970410E+01  0.9905930E+01  0.0000000E+00  0.7618836E-01 -0.2630501E+01  0.6645232E-01  0.3726602E-01
  0.9899730E+00  0.1005140E+02  0.0000000E+00  0.9050517E-01 -0.2325280E+01  0.6198810E-01  0.6594437E-01
 -0.4414850E-06  0.1010000E+02  0.0000000E+00  0.1111933E+00 -0.2127552E+01  0.5875843E-01  0.9440022E-01
 -0.9899740E+00  0.1005140E+02  0.0000000E+00  0.1353501E+00 -0.2003795E+01  0.5679220E-01  0.1228588E+00
 -0.1970410E+01  0.9905930E+01  0.0000000E+00  0.1615844E+00 -0.1925159E+01  0.5606859E-01  0.1515448E+00
 -0.2931880E+01  0.9665100E+01  0.0000000E+00  0.1883741E+00 -0.1875417E+01  0.5649933E-01  0.1797015E+00
 -0.3865100E+01  0.9331180E+01  0.0000000E+00  0.2143608E+00 -0.1844382E+01  0.5791724E-01  0.2063883E+00
 -0.4761110E+01  0.8907400E+01  0.0000000E+00  0.2393987E+00 -0.1825519E+01  0.6032308E-01  0.2316740E+00
 -0.5611260E+01  0.8397840E+01  0.0000000E+00  0.2637390E+00 -0.1814619E+01  0.6367031E-01  0.2559382E+00
 -0.6407370E+01  0.7807410E+01  0.0000000E+00  0.2868609E+00 -0.1808679E+01  0.6759735E-01  0.2787827E+00
 -0.7141780E+01  0.7141780E+01  0.0000000E+00  0.3077865E+00 -0.1805980E+01  0.7172083E-01  0.2993137E+00
 -0.7807410E+01  0.6407370E+01  0.0000000E+00  0.3263987E+00 -0.1805869E+01  0.7602259E-01  0.3174219E+00
 -0.8397840E+01  0.5611260E+01  0.0000000E+00  0.3431618E+00 -0.1807460E+01  0.8045795E-01  0.3335963E+00
 -0.8907410E+01  0.4761110E+01  0.0000000E+00  0.3580311E+00 -0.1809458E+01  0.8463956E-01  0.3478827E+00
 -0.9331180E+01  0.3865100E+01  0.0000000E+00  0.3701621E+00 -0.1811401E+01  0.8820591E-01  0.3594992E+00
 -0.9665100E+01  0.2931880E+01  0.0000000E+00  0.3792909E+00 -0.1813455E+01  0.9113755E-01  0.3681787E+00
 -0.9905930E+01  0.1970410E+01  0.0000000E+00  0.3859004E+00 -0.1815299E+01  0.9341643E-01  0.3744228E+00
 -0.1005140E+02  0.9899730E+00  0.0000000E+00  0.3903246E+00 -0.1816283E+01  0.9485986E-01  0.3786223E+00
 -0.1010000E+02 -0.8829700E-06  0.0000000E+00  0.3919387E+00 -0.1816524E+01  0.9534401E-01  0.3801651E+00
 -0.1005140E+02 -0.9899740E+00  0.0000000E+00  0.3903241E+00 -0.1816283E+01  0.9485985E-01  0.3786218E+00
 -0.9905930E+01 -0.1970410E+01  0.0000000E+00  0.3859004E+00 -0.1815299E+01  0.9341653E-01  0.3744229E+00
 -0.9665100E+01 -0.2931880E+01  0.0000000E+00  0.3792908E+00 -0.1813455E+01  0.9113757E-01  0.3681785E+00
 -0.9331180E+01 -0.3865100E+01  0.0000000E+00  0.3701626E+00 -0.1811401E+01  0.8820602E-01  0.3594998E+00
 -0.8907400E+01 -0.4761110E+01  0.0000000E+00  0.3580312E+00 -0.1809459E+01  0.8463970E-01  0.3478828E+00
 -0.8397840E+01 -0.5611260E+01  0.0000000E+00  0.3431620E+00 -0.1807460E+01  0.8045789E-01  0.3335966E+00
 -0.7807400E+01 -0.6407370E+01  0.0000000E+00  0.3263988E+00 -0.1805869E+01  0.7602264E-01  0.3174220E+00
 -0.7141780E+01 -0.7141780E+01  0.0000000E+00  0.3077863E+00 -0.1805980E+01  0.7172081E-01  0.2993134E+00
 -0.6407370E+01 -0.7807410E+01  0.0000000E+00  0.2868609E+00 -0.1808679E+01  0.6759742E-01  0.2787827E+00
 -0.5611260E+01 -0.8397850E+01  0.0000000E+00  0.2637392E+00 -0.1814619E+01  0.6367023E-01  0.2559384E+00
 -0.4761110E+01 -0.8907410E+01  0.0000000E+00  0.2393983E+00 -0.1825520E+01  0.6032307E-01  0.2316737E+00
 -0.3865100E+01 -0.9331190E+01  0.0000000E+00  0.2143607E+00 -0.1844383E+01  0.5791730E-01  0.2063882E+00
 -0.2931870E+01 -0.9665100E+01  0.0000000E+00  0.1883737E+00 -0.1875417E+01  0.5649925E-01  0.1797011E+00
 -0.1970410E+01 -0.9905930E+01  0.0000000E+00  0.1615847E+00 -0.1925158E+01  0.5606863E-01  0.1515452E+00
 -0.9899710E+00 -0.1005140E+02  0.0000000E+00  0.1353502E+00 -0.2003795E+01  0.5679221E-01  0.1228589E+00
  0.1204410E-06 -0.1010000E+02  0.0000000E+00  0.1111934E+00 -0.2127554E+01  0.5875862E-01  0.9440022E-01
  0.9899760E+00 -0.1005140E+02  0.0000000E+00  0.9050513E-01 -0.2325282E+01  0.6198821E-01  0.6594422E-01
  0.1970410E+01 -0.9905930E+01  0.0000000E+00  0.7618853E-01 -0.2630499E+01  0.6645241E-01  0.3726620E-01
  0.2931880E+01 -0.9665100E+01  0.0000000E+00  0.7255507E-01 -0.3015571E+01  0.7197969E-01  0.9119353E-02
  0.3865100E+01 -0.9331180E+01  0.0000000E+00  0.8024739E-01  0.2921062E+01  0.7830393E-01 -0.1755387E-01
  0.4761110E+01 -0.8907410E+01  0.0000000E+00  0.9553847E-01  0.2676831E+01  0.8540455E-01 -0.4282126E-01
  0.5611260E+01 -0.8397840E+01  0.0000000E+00  0.1148549E+00  0.2518060E+01  0.9324159E-01 -0.6706458E-01
  0.6407370E+01 -0.7807410E+01  0.0000000E+00  0.1355042E+00  0.2416291E+01  0.1013977E+00 -0.8988819E-01
  0.7141780E+01 -0.7141780E+01  0.0000000E+00  0.1554152E+00  0.2351618E+01  0.1093910E+00 -0.1103970E+00
  0.7807410E+01 -0.6407370E+01  0.0000000E+00  0.1738879E+00  0.2310182E+01  0.1171716E+00 -0.1284828E+00
  0.8397840E+01 -0.5611260E+01  0.0000000E+00  0.1909788E+00  0.2282376E+01  0.1247150E+00 -0.1446342E+00
  0.8907410E+01 -0.4761110E+01  0.0000000E+00  0.2063300E+00  0.2262545E+01  0.1316148E+00 -0.1589013E+00
  0.9331180E+01 -0.3865100E+01  0.0000000E+00  0.2189891E+00  0.2249188E+01  0.1374248E+00 -0.1705012E+00
  0.9665100E+01 -0.2931870E+01  0.0000000E+00  0.2286699E+00  0.2241294E+01  0.1420900E+00 -0.1791658E+00
  0.9905930E+01 -0.1970410E+01  0.0000000E+00  0.2357500E+00  0.2236605E+01  0.1456217E+00 -0.1853979E+00
  0.1005140E+02 -0.9899690E+00  0.0000000E+00  0.2404308E+00  0.2233146E+01  0.1478580E+00 -0.1895916E+00
  0.1010000E+02  0.0000000E+00 -0.2568960E-01  0.2419124E+00  0.2231678E+01  0.1484890E+00 -0.1909781E+00
  0.1005140E+02  0.9899730E+00 -0.2568960E-01  0.2402709E+00  0.2233041E+01  0.1477398E+00 -0.1894809E+00
  0.9905930E+01  0.1970410E+01 -0.2568960E-01  0.2355468E+00  0.2236586E+01  0.1454927E+00 -0.1852408E+00
  0.9665100E+01  0.2931880E+01 -0.2568960E-01  0.2285192E+00  0.2241179E+01  0.1419757E+00 -0.1790640E+00
  0.9331180E+01  0.3865100E+01 -0.2568960E-01  0.2188067E+00  0.2249152E+01  0.1373042E+00 -0.1703641E+00
  0.8907400E+01  0.4761110E+01 -0.2568960E-01  0.2061915E+00  0.2262411E+01  0.1315051E+00 -0.1588123E+00
  0.8397840E+01  0.5611260E+01 -0.2568960E-01  0.1908145E+00  0.2282346E+01  0.1246035E+00 -0.1445135E+00
  0.7807410E+01  0.6407370E+01 -0.2568960E-01  0.1737733E+00  0.2310010E+01  0.1170723E+00 -0.1284182E+00
  0.7141780E+01  0.7141780E+01 -0.2568960E-01  0.1552856E+00  0.2351556E+01  0.1092929E+00 -0.1103116E+00
  0.6407370E+01  0.7807410E+01 -0.2568960E-01  0.1354074E+00  0.2416065E+01  0.1013050E+00 -0.8984686E-01
  0.5611260E+01  0.8397840E+01 -0.2568960E-01  0.1147552E+00  0.2518001E+01  0.9315671E-01 -0.6701179E-01
  0.4761110E+01  0.8907410E+01 -0.2568960E-01  0.9546418E-01  0.2676484E+01  0.8532330E-01 -0.4281758E-01
  0.3865100E+01  0.9331180E+01 -0.2568960E-01  0.8017457E-01  0.2920942E+01  0.7823076E-01 -0.1754736E-01
  0.2931870E+01  0.9665100E+01 -0.2568960E-01  0.7247749E-01 -0.3015806E+01  0.7190486E-01  0.9092698E-02
  0.1970410E+01  0.9905930E+01 -0.2568960E-01  0.7611554E-01 -0.2630541E+01  0.6639031E-01  0.3722772E-01
  0.9899730E+00  0.1005140E+02 -0.2568960E-01  0.9040706E-01 -0.2325283E+01  0.6192110E-01  0.6587271E-01
 -0.4414850E-06  0.1010000E+02 -0.2568960E-01  0.1110885E+00 -0.2127538E+01  0.5870173E-01  0.9431209E-01
 -0.9899740E+00  0.1005140E+02 -0.2568960E-01  0.1352286E+00 -0.2003697E+01  0.5672919E-01  0.1227542E+00
 -0.1970410E+01  0.9905930E+01 -0.2568960E-01  0.1614368E+00 -0.1925150E+01  0.5601596E-01  0.1514069E+00
 -0.2931880E+01  0.9665100E+01 -0.2568960E-01  0.1882125E+00 -0.1875343E+01  0.5643753E-01  0.1795516E+00
 -0.3865100E+01  0.9331180E+01 -0.2568960E-01  0.2141698E+00 -0.1844366E+01  0.5786236E-01  0.2062053E+00
 -0.4761110E+01  0.8907400E+01 -0.2568960E-01  0.2392086E+00 -0.1825464E+01  0.6026236E-01  0.2314934E+00
 -0.5611260E+01  0.8397840E+01 -0.2568960E-01  0.2635025E+00 -0.1814614E+01  0.6361191E-01  0.2557090E+00
 -0.6407370E+01  0.7807410E+01 -0.2568960E-01  0.2866338E+00 -0.1808638E+01  0.6753259E-01  0.2785646E+00
 -0.7141780E+01  0.7141780E+01 -0.2568960E-01  0.3075165E+00 -0.1805974E+01  0.7165620E-01  0.2990515E+00
 -0.7807410E+01  0.6407370E+01 -0.2568960E-01  0.3261491E+00 -0.1805844E+01  0.7595675E-01  0.3171811E+00
 -0.8397840E+01  0.5611260E+01 -0.2568960E-01  0.3428559E+00 -0.1807460E+01  0.8038628E-01  0.3332990E+00
 -0.8907410E+01  0.4761110E+01 -0.2568960E-01  0.3577560E+00 -0.1809442E+01  0.8456868E-01  0.3476169E+00
 -0.9331180E+01  0.3865100E+01 -0.2568960E-01  0.3698398E+00 -0.1811401E+01  0.8812924E-01  0.3591862E+00
 -0.9665100E+01  0.2931880E+01 -0.2568960E-01  0.3790031E+00 -0.1813447E+01  0.9106539E-01  0.3679001E+00
 -0.9905930E+01  0.1970410E+01 -0.2568960E-01  0.3855568E+00 -0.1815302E+01  0.9333440E-01  0.3740892E+00
 -0.1005140E+02  0.9899730E+00 -0.2568960E-01  0.3900275E+00 -0.1816277E+01  0.9478534E-01  0.3783347E+00
 -0.1010000E+02 -0.8829700E-06 -0.2568960E-01  0.3915978E+00 -0.1816527E+01  0.9526199E-01  0.3798341E+00
 -0.1005140E+02 -0.9899740E+00 -0.2568960E-01  0.3900276E+00 -0.1816277E+01  0.9478534E-01  0.3783349E+00
 -0.9905930E+01 -0.1970410E+01 -0.2568960E-01  0.3855568E+00 -0.1815302E+01  0.9333435E-01  0.3740892E+00
 -0.9665100E+01 -0.2931880E+01 -0.2568960E-01  0.3790034E+00 -0.1813446E+01  0.9106537E-01  0.3679004E+00
 -0.9331180E+01 -0.3865100E+01 -0.2568960E-01  0.3698397E+00 -0.1811401E+01  0.8812917E-01  0.3591861E+00
 -0.8907400E+01 -0.4761110E+01 -0.2568960E-01  0.3577563E+00 -0.1809441E+01  0.8456873E-01  0.3476172E+00
 -0.8397840E+01 -0.5611260E+01 -0.2568960E-01  0.3428560E+00 -0.1807460E+01  0.8038631E-01  0.3332990E+00
 -0.7807400E+01 -0.6407370E+01 -0.2568960E-01  0.3261487E+00 -0.1805845E+01  0.7595692E-01  0.3171806E+00
 -0.7141780E+01 -0.7141780E+01 -0.2568960E-01  0.3075168E+00 -0.1805974E+01  0.7165634E-01  0.2990517E+00
 -0.6407370E+01 -0.7807410E+01 -0.2568960E-01  0.2866337E+00 -0.1808639E+01  0.6753273E-01  0.2785646E+00
 -0.5611260E+01 -0.8397850E+01 -0.2568960E-01  0.2635022E+00 -0.1814615E+01  0.6361197E-01  0.2557087E+00
 -0.4761110E+01 -0.8907410E+01 -0.2568960E-01  0.2392085E+00 -0.1825464E+01  0.6026233E-01  0.2314933E+00
 -0.3865100E+01 -0.9331190E+01 -0.2568960E-01  0.2141699E+00 -0.1844366E+01  0.5786232E-01  0.2062054E+00
 -0.2931870E+01 -0.9665100E+01 -0.2568960E-01  0.1882124E+00 -0.1875343E+01  0.5643748E-01  0.1795515E+00
 -0.1970410E+01 -0.9905930E+01 -0.2568960E-01  0.1614370E+00 -0.1925150E+01  0.5601604E-01  0.1514071E+00
 -0.9899710E+00 -0.1005140E+02 -0.2568960E-01  0.1352285E+00 -0.2003697E+01  0.5672913E-01  0.1227541E+00
  0.1204410E-06 -0.1010000E+02 -0.2568960E-01  0.1110886E+00 -0.2127538E+01  0.5870178E-01  0.9431218E-01
  0.9899760E+00 -0.1005140E+02 -0.2568960E-01  0.9040713E-01 -0.2325282E+01  0.6192113E-01  0.6587277E-01
  0.1970410E+01 -0.9905930E+01 -0.2568960E-01  0.7611568E-01 -0.2630538E+01  0.6639033E-01  0.3722797E-01
  0.2931880E+01 -0.9665100E+01 -0.2568960E-01  0.7247767E-01 -0.3015807E+01  0.7190505E-01  0.9092625E-02
  0.3865100E+01 -0.9331180E+01 -0.2568960E-01  0.8017465E-01  0.2920944E+01  0.7823087E-01 -0.1754722E-01
  0.4761110E+01 -0.8907410E+01 -0.2568960E-01  0.9546419E-01  0.2676487E+01  0.8532342E-01 -0.4281736E-01
  0.5611260E+01 -0.8397840E+01 -0.2568960E-01  0.1147552E+00  0.2518003E+01  0.9315684E-01 -0.6701156E-01
  0.6407370E+01 -0.7807410E+01 -0.2568960E-01  0.1354074E+00  0.2416066E+01  0.1013051E+00 -0.8984680E-01
  0.7141780E+01 -0.7141780E+01 -0.2568960E-01  0.1552854E+00  0.2351557E+01  0.1092930E+00 -0.1103115E+00
  0.7807410E+01 -0.6407370E+01 -0.2568960E-01  0.1737732E+00  0.2310010E+01  0.1170722E+00 -0.1284181E+00
  0.8397840E+01 -0.5611260E+01 -0.2568960E-01  0.1908143E+00  0.2282347E+01  0.1246035E+00 -0.1445132E+00
  0.8907410E+01 -0.4761110E+01 -0.2568960E-01  0.2061913E+00  0.2262412E+01  0.1315052E+00 -0.1588120E+00
  0.9331180E+01 -0.3865100E+01 -0.2568960E-01  0.2188068E+00  0.2249152E+01  0.1373043E+00 -0.1703642E+00
  0.9665100E+01 -0.2931870E+01 -0.2568960E-01  0.2285193E+00  0.2241180E+01  0.1419759E+00 -0.1790639E+00
  0.9905930E+01 -0.1970410E+01 -0.2568960E-01  0.2355468E+00  0.2236587E+01  0.1454928E+00 -0.1852408E+00
  0.1005140E+02 -0.9899690E+00 -0.2568960E-01  0.2402710E+00  0.2233041E+01  0.1477399E+00 -0.1894811E+00
  0.1010000E+02  0.0000000E+00 -0.1027320E+00  0.2412801E+00  0.2231690E+01  0.1481033E+00 -0.1904771E+00
  0.1005140E+02  0.9899730E+00 -0.1027320E+00  0.2396756E+00  0.2232988E+01  0.1473637E+00 -0.1890194E+00
  0.9905930E+01  0.1970410E+01 -0.1027320E+00  0.2349140E+00  0.2236621E+01  0.1451083E+00 -0.1847381E+00
  0.9665100E+01  0.2931880E+01 -0.1027320E+00  0.2279574E+00  0.2241113E+01  0.1416150E+00 -0.1786331E+00
  0.9331180E+01  0.3865100E+01 -0.1027320E+00  0.2182347E+00  0.2249148E+01  0.1369445E+00 -0.1699194E+00
  0.8907400E+01  0.4761110E+01 -0.1027320E+00  0.2056747E+00  0.2262317E+01  0.1311608E+00 -0.1584265E+00
  0.8397840E+01  0.5611260E+01 -0.1027320E+00  0.1903011E+00  0.2282361E+01  0.1242703E+00 -0.1441229E+00
  0.7807410E+01  0.6407370E+01 -0.1027320E+00  0.1733482E+00  0.2309860E+01  0.1167667E+00 -0.1281217E+00
  0.7141780E+01  0.7141780E+01 -0.1027320E+00  0.1548772E+00  0.2351490E+01  0.1089983E+00 -0.1100287E+00
  0.6407370E+01  0.7807410E+01 -0.1027320E+00  0.1350572E+00  0.2415862E+01  0.1010248E+00 -0.8963505E-01
  0.5611260E+01  0.8397840E+01 -0.1027320E+00  0.1144436E+00  0.2517953E+01  0.9290051E-01 -0.6683435E-01
  0.4761110E+01  0.8907410E+01 -0.1027320E+00  0.9521895E-01  0.2676066E+01  0.8508626E-01 -0.4274315E-01
  0.3865100E+01  0.9331180E+01 -0.1027320E+00  0.7995106E-01  0.2920755E+01  0.7800939E-01 -0.1751306E-01
  0.2931870E+01  0.9665100E+01 -0.1027320E+00  0.7226096E-01 -0.3015950E+01  0.7169135E-01  0.9055216E-02
  0.1970410E+01  0.9905930E+01 -0.1027320E+00  0.7589792E-01 -0.2630563E+01  0.6620130E-01  0.3711985E-01
  0.9899730E+00  0.1005140E+02 -0.1027320E+00  0.9013144E-01 -0.2325320E+01  0.6173482E-01  0.6566954E-01
 -0.4414850E-06  0.1010000E+02 -0.1027320E+00  0.1107731E+00 -0.2127471E+01  0.5852871E-01  0.9404825E-01
 -0.9899740E+00  0.1005140E+02 -0.1027320E+00  0.1348610E+00 -0.2003541E+01  0.5655588E-01  0.1224292E+00
 -0.1970410E+01  0.9905930E+01 -0.1027320E+00  0.1609874E+00 -0.1925119E+01  0.5585540E-01  0.1509871E+00
 -0.2931880E+01  0.9665100E+01 -0.1027320E+00  0.1876934E+00 -0.1875254E+01  0.5626590E-01  0.1790613E+00
 -0.3865100E+01  0.9331180E+01 -0.1027320E+00  0.2135841E+00 -0.1844328E+01  0.5769629E-01  0.2056436E+00
 -0.4761110E+01  0.8907400E+01 -0.1027320E+00  0.2385828E+00 -0.1825405E+01  0.6009119E-01  0.2308914E+00
 -0.5611260E+01  0.8397840E+01 -0.1027320E+00  0.2627757E+00 -0.1814617E+01  0.6343710E-01  0.2550035E+00
 -0.6407370E+01  0.7807410E+01 -0.1027320E+00  0.2858700E+00 -0.1808604E+01  0.6734299E-01  0.2778248E+00
 -0.7141780E+01  0.7141780E+01 -0.1027320E+00  0.3066833E+00 -0.1805980E+01  0.7146390E-01  0.2982408E+00
 -0.7807410E+01  0.6407370E+01 -0.1027320E+00  0.3253013E+00 -0.1805847E+01  0.7576009E-01  0.3163564E+00
 -0.8397840E+01  0.5611260E+01 -0.1027320E+00  0.3419137E+00 -0.1807488E+01  0.8017452E-01  0.3323808E+00
 -0.8907410E+01  0.4761110E+01 -0.1027320E+00  0.3568161E+00 -0.1809451E+01  0.8434964E-01  0.3467028E+00
 -0.9331180E+01  0.3865100E+01 -0.1027320E+00  0.3688408E+00 -0.1811435E+01  0.8790322E-01  0.3582131E+00
 -0.9665100E+01  0.2931880E+01 -0.1027320E+00  0.3780179E+00 -0.1813477E+01  0.9083986E-01  0.3669410E+00
 -0.9905930E+01  0.1970410E+01 -0.1027320E+00  0.3844981E+00 -0.1815343E+01  0.9309340E-01  0.3730582E+00
 -0.1005140E+02  0.9899730E+00 -0.1027320E+00  0.3890107E+00 -0.1816308E+01  0.9455022E-01  0.3773455E+00
 -0.1010000E+02 -0.8829700E-06 -0.1027320E+00  0.3905408E+00 -0.1816570E+01  0.9502113E-01  0.3788048E+00
 -0.1005140E+02 -0.9899740E+00 -0.1027320E+00  0.3890106E+00 -0.1816308E+01  0.9455019E-01  0.3773454E+00
 -0.9905930E+01 -0.1970410E+01 -0.1027320E+00  0.3844982E+00 -0.1815343E+01  0.9309348E-01  0.3730582E+00
 -0.9665100E+01 -0.2931880E+01 -0.1027320E+00  0.3780181E+00 -0.1813477E+01  0.9083997E-01  0.3669411E+00
 -0.9331180E+01 -0.3865100E+01 -0.1027320E+00  0.3688409E+00 -0.1811435E+01  0.8790320E-01  0.3582131E+00
 -0.8907400E+01 -0.4761110E+01 -0.1027320E+00  0.3568168E+00 -0.1809451E+01  0.8434989E-01  0.3467035E+00
 -0.8397840E+01 -0.5611260E+01 -0.1027320E+00  0.3419136E+00 -0.1807488E+01  0.8017451E-01  0.3323808E+00
 -0.7807400E+01 -0.6407370E+01 -0.1027320E+00  0.3253011E+00 -0.1805847E+01  0.7576025E-01  0.3163562E+00
 -0.7141780E+01 -0.7141780E+01 -0.1027320E+00  0.3066834E+00 -0.1805981E+01  0.7146402E-01  0.2982409E+00
 -0.6407370E+01 -0.7807410E+01 -0.1027320E+00  0.2858702E+00 -0.1808604E+01  0.6734307E-01  0.2778249E+00
 -0.5611260E+01 -0.8397850E+01 -0.1027320E+00  0.2627757E+00 -0.1814616E+01  0.6343708E-01  0.2550035E+00
 -0.4761110E+01 -0.8907410E+01 -0.1027320E+00  0.2385828E+00 -0.1825406E+01  0.6009119E-01  0.2308913E+00
 -0.3865100E+01 -0.9331190E+01 -0.1027320E+00  0.2135837E+00 -0.1844329E+01  0.5769642E-01  0.2056432E+00
 -0.2931870E+01 -0.9665100E+01 -0.1027320E+00  0.1876931E+00 -0.1875255E+01  0.5626598E-01  0.1790610E+00
 -0.1970410E+01 -0.9905930E+01 -0.1027320E+00  0.1609875E+00 -0.1925119E+01  0.5585541E-01  0.1509873E+00
 -0.9899710E+00 -0.1005140E+02 -0.1027320E+00  0.1348610E+00 -0.2003541E+01  0.5655588E-01  0.1224292E+00
  0.1204410E-06 -0.1010000E+02 -0.1027320E+00  0.1107734E+00 -0.2127470E+01  0.5852884E-01  0.9404854E-01
  0.9899760E+00 -0.1005140E+02 -0.1027320E+00  0.9013163E-01 -0.2325320E+01  0.6173488E-01  0.6566974E-01
  0.1970410E+01 -0.9905930E+01 -0.1027320E+00  0.7589806E-01 -0.2630560E+01  0.6620131E-01  0.3712011E-01
  0.2931880E+01 -0.9665100E+01 -0.1027320E+00  0.7226110E-01 -0.3015950E+01  0.7169148E-01  0.9055196E-02
  0.3865100E+01 -0.9331180E+01 -0.1027320E+00  0.7995114E-01  0.2920757E+01  0.7800950E-01 -0.1751294E-01
  0.4761110E+01 -0.8907410E+01 -0.1027320E+00  0.9521887E-01  0.2676069E+01  0.8508629E-01 -0.4274291E-01
  0.5611260E+01 -0.8397840E+01 -0.1027320E+00  0.1144436E+00  0.2517955E+01  0.9290069E-01 -0.6683420E-01
  0.6407370E+01 -0.7807410E+01 -0.1027320E+00  0.1350572E+00  0.2415863E+01  0.1010249E+00 -0.8963494E-01
  0.7141780E+01 -0.7141780E+01 -0.1027320E+00  0.1548771E+00  0.2351490E+01  0.1089982E+00 -0.1100286E+00
  0.7807410E+01 -0.6407370E+01 -0.1027320E+00  0.1733482E+00  0.2309860E+01  0.1167666E+00 -0.1281216E+00
  0.8397840E+01 -0.5611260E+01 -0.1027320E+00  0.1903010E+00  0.2282360E+01  0.1242702E+00 -0.1441229E+00
