 VARIABLES="X" "Y" "Z" "abs(eta) (m)" "angle(phi) (rad)" "PRE1" "PRE2"
ZONE N=   3200 ,E =    3136 ,F=FEPOINT,ET=QUADRILATERAL
  0.1010000E+02  0.0000000E+00  0.0000000E+00  0.1193668E+00 -0.2656502E+01  0.1055958E+00  0.5565940E-01
  0.1005140E+02  0.9899730E+00  0.0000000E+00  0.1339676E+00 -0.3059103E+01  0.1335121E+00  0.1103849E-01
  0.9905930E+01  0.1970410E+01  0.0000000E+00  0.1667475E+00  0.2952559E+01  0.1637771E+00 -0.3133355E-01
  0.9665100E+01  0.2931880E+01  0.0000000E+00  0.2074306E+00  0.2794554E+01  0.1950644E+00 -0.7055012E-01
  0.9331180E+01  0.3865100E+01  0.0000000E+00  0.2495375E+00  0.2704624E+01  0.2260907E+00 -0.1056029E+00
  0.8907400E+01  0.4761110E+01  0.0000000E+00  0.2910821E+00  0.2650063E+01  0.2566215E+00 -0.1373836E+00
  0.8397840E+01  0.5611260E+01  0.0000000E+00  0.3305660E+00  0.2617510E+01  0.2861985E+00 -0.1654215E+00
  0.7807410E+01  0.6407370E+01  0.0000000E+00  0.3663382E+00  0.2597946E+01  0.3135225E+00 -0.1894922E+00
  0.7141780E+01  0.7141780E+01  0.0000000E+00  0.3968820E+00  0.2586532E+01  0.3372975E+00 -0.2091547E+00
  0.6407370E+01  0.7807410E+01  0.0000000E+00  0.4228301E+00  0.2579241E+01  0.3577158E+00 -0.2254434E+00
  0.5611260E+01  0.8397840E+01  0.0000000E+00  0.4432711E+00  0.2575434E+01  0.3741065E+00 -0.2377678E+00
  0.4761110E+01  0.8907410E+01  0.0000000E+00  0.4577795E+00  0.2573533E+01  0.3858835E+00 -0.2462842E+00
  0.3865100E+01  0.9331180E+01  0.0000000E+00  0.4656414E+00  0.2572873E+01  0.3923453E+00 -0.2507729E+00
  0.2931870E+01  0.9665100E+01  0.0000000E+00  0.4678139E+00  0.2572376E+01  0.3940507E+00 -0.2521385E+00
  0.1970410E+01  0.9905930E+01  0.0000000E+00  0.4633217E+00  0.2572748E+01  0.3903595E+00 -0.2495725E+00
  0.9899730E+00  0.1005140E+02  0.0000000E+00  0.4525681E+00  0.2574066E+01  0.3816206E+00 -0.2432769E+00
 -0.4414850E-06  0.1010000E+02  0.0000000E+00  0.4356429E+00  0.2577098E+01  0.3680569E+00 -0.2330641E+00
 -0.9899740E+00  0.1005140E+02  0.0000000E+00  0.4134760E+00  0.2581712E+01  0.3503459E+00 -0.2195909E+00
 -0.1970410E+01  0.9905930E+01  0.0000000E+00  0.3852525E+00  0.2590098E+01  0.3281358E+00 -0.2018573E+00
 -0.2931880E+01  0.9665100E+01  0.0000000E+00  0.3521196E+00  0.2604484E+01  0.3025382E+00 -0.1801635E+00
 -0.3865100E+01  0.9331180E+01  0.0000000E+00  0.3151217E+00  0.2629047E+01  0.2746283E+00 -0.1545348E+00
 -0.4761110E+01  0.8907400E+01  0.0000000E+00  0.2752454E+00  0.2668208E+01  0.2449768E+00 -0.1254846E+00
 -0.5611260E+01  0.8397840E+01  0.0000000E+00  0.2326240E+00  0.2734927E+01  0.2136523E+00 -0.9201425E-01
 -0.6407370E+01  0.7807410E+01  0.0000000E+00  0.1901375E+00  0.2848718E+01  0.1820410E+00 -0.5489371E-01
 -0.7141780E+01  0.7141780E+01  0.0000000E+00  0.1522664E+00  0.3044678E+01  0.1515519E+00 -0.1473369E-01
 -0.7807410E+01  0.6407370E+01  0.0000000E+00  0.1255957E+00 -0.2916188E+01  0.1224186E+00  0.2807068E-01
 -0.8397840E+01  0.5611260E+01  0.0000000E+00  0.1205574E+00 -0.2479228E+01  0.9506441E-01  0.7414076E-01
 -0.8907410E+01  0.4761110E+01  0.0000000E+00  0.1410026E+00 -0.2093410E+01  0.7038093E-01  0.1221813E+00
 -0.9331180E+01  0.3865100E+01  0.0000000E+00  0.1778743E+00 -0.1851872E+01  0.4934044E-01  0.1708940E+00
 -0.9665100E+01  0.2931880E+01  0.0000000E+00  0.2224405E+00 -0.1713997E+01  0.3174492E-01  0.2201636E+00
 -0.9905930E+01  0.1970410E+01  0.0000000E+00  0.2707065E+00 -0.1637444E+01  0.1802851E-01  0.2701055E+00
 -0.1005140E+02  0.9899730E+00  0.0000000E+00  0.3193735E+00 -0.1596170E+01  0.8102870E-02  0.3192707E+00
 -0.1010000E+02 -0.8829700E-06  0.0000000E+00  0.3662224E+00 -0.1576157E+01  0.1963313E-02  0.3662171E+00
 -0.1005140E+02 -0.9899740E+00  0.0000000E+00  0.4113042E+00 -0.1568786E+01 -0.8269020E-03  0.4113034E+00
 -0.9905930E+01 -0.1970410E+01  0.0000000E+00  0.4542558E+00 -0.1570530E+01 -0.1209779E-03  0.4542558E+00
 -0.9665100E+01 -0.2931880E+01  0.0000000E+00  0.4941536E+00 -0.1577245E+01  0.3186595E-02  0.4941433E+00
 -0.9331180E+01 -0.3865100E+01  0.0000000E+00  0.5299821E+00 -0.1586455E+01  0.8298591E-02  0.5299172E+00
 -0.8907400E+01 -0.4761110E+01  0.0000000E+00  0.5626062E+00 -0.1597269E+01  0.1489209E-01  0.5624090E+00
 -0.8397840E+01 -0.5611260E+01  0.0000000E+00  0.5916090E+00 -0.1609321E+01  0.2278567E-01  0.5911701E+00
 -0.7807400E+01 -0.6407370E+01  0.0000000E+00  0.6167233E+00 -0.1621035E+01  0.3097059E-01  0.6159452E+00
 -0.7141780E+01 -0.7141780E+01  0.0000000E+00  0.6374140E+00 -0.1631244E+01  0.3850664E-01  0.6362498E+00
 -0.6407370E+01 -0.7807410E+01  0.0000000E+00  0.6546448E+00 -0.1640204E+01  0.4540084E-01  0.6530687E+00
 -0.5611260E+01 -0.8397850E+01  0.0000000E+00  0.6678042E+00 -0.1647670E+01  0.5128588E-01  0.6658319E+00
 -0.4761110E+01 -0.8907410E+01  0.0000000E+00  0.6769699E+00 -0.1653125E+01  0.5567081E-01  0.6746770E+00
 -0.3865100E+01 -0.9331190E+01  0.0000000E+00  0.6818363E+00 -0.1656028E+01  0.5804371E-01  0.6793612E+00
 -0.2931870E+01 -0.9665100E+01  0.0000000E+00  0.6832833E+00 -0.1656804E+01  0.5869523E-01  0.6807576E+00
 -0.1970410E+01 -0.9905930E+01  0.0000000E+00  0.6804995E+00 -0.1655059E+01  0.5727277E-01  0.6780851E+00
 -0.9899710E+00 -0.1005140E+02  0.0000000E+00  0.6737227E+00 -0.1651057E+01  0.5401539E-01  0.6715539E+00
  0.1204410E-06 -0.1010000E+02  0.0000000E+00  0.6628100E+00 -0.1644989E+01  0.4913067E-01  0.6609866E+00
  0.9899760E+00 -0.1005140E+02  0.0000000E+00  0.6484426E+00 -0.1637154E+01  0.4299757E-01  0.6470155E+00
  0.1970410E+01 -0.9905930E+01  0.0000000E+00  0.6296881E+00 -0.1627179E+01  0.3548446E-01  0.6286875E+00
  0.2931880E+01 -0.9665100E+01  0.0000000E+00  0.6069563E+00 -0.1615968E+01  0.2740815E-01  0.6063371E+00
  0.3865100E+01 -0.9331180E+01  0.0000000E+00  0.5803508E+00 -0.1604625E+01  0.1962848E-01  0.5800188E+00
  0.4761110E+01 -0.8907410E+01  0.0000000E+00  0.5503654E+00 -0.1593370E+01  0.1242292E-01  0.5502251E+00
  0.5611260E+01 -0.8397840E+01  0.0000000E+00  0.5160522E+00 -0.1582407E+01  0.5991327E-02  0.5160174E+00
  0.6407370E+01 -0.7807410E+01  0.0000000E+00  0.4782094E+00 -0.1573463E+01  0.1275205E-02  0.4782077E+00
  0.7141780E+01 -0.7141780E+01  0.0000000E+00  0.4374373E+00 -0.1569203E+01 -0.6971887E-03  0.4374368E+00
  0.7807410E+01 -0.6407370E+01  0.0000000E+00  0.3940700E+00 -0.1570977E+01  0.7109834E-04  0.3940700E+00
  0.8397840E+01 -0.5611260E+01  0.0000000E+00  0.3475701E+00 -0.1582341E+01  0.4012426E-02  0.3475469E+00
  0.8907410E+01 -0.4761110E+01  0.0000000E+00  0.2994141E+00 -0.1609236E+01  0.1150670E-01  0.2991929E+00
  0.9331180E+01 -0.3865100E+01  0.0000000E+00  0.2513722E+00 -0.1662538E+01  0.2302894E-01  0.2503151E+00
  0.9665100E+01 -0.2931870E+01  0.0000000E+00  0.2045878E+00 -0.1758787E+01  0.3823447E-01  0.2009833E+00
  0.9905930E+01 -0.1970410E+01  0.0000000E+00  0.1616882E+00 -0.1934090E+01  0.5745672E-01  0.1511351E+00
  0.1005140E+02 -0.9899690E+00  0.0000000E+00  0.1298561E+00 -0.2235383E+01  0.8008664E-01  0.1022190E+00
  0.1010000E+02  0.0000000E+00 -0.2568960E-01  0.1191647E+00 -0.2656748E+01  0.1054307E+00  0.5553922E-01
  0.1005140E+02  0.9899730E+00 -0.2568960E-01  0.1337546E+00 -0.3059451E+01  0.1333036E+00  0.1097450E-01
  0.9905930E+01  0.1970410E+01 -0.2568960E-01  0.1664919E+00  0.2952565E+01  0.1635263E+00 -0.3128452E-01
  0.9665100E+01  0.2931880E+01 -0.2568960E-01  0.2071323E+00  0.2794319E+01  0.1947673E+00 -0.7049449E-01
  0.9331180E+01  0.3865100E+01 -0.2568960E-01  0.2491769E+00  0.2704481E+01  0.2257488E+00 -0.1054827E+00
  0.8907400E+01  0.4761110E+01 -0.2568960E-01  0.2906728E+00  0.2649903E+01  0.2562387E+00 -0.1372312E+00
  0.8397840E+01  0.5611260E+01 -0.2568960E-01  0.3300410E+00  0.2617533E+01  0.2857478E+00 -0.1651522E+00
  0.7807410E+01  0.6407370E+01 -0.2568960E-01  0.3658224E+00  0.2597832E+01  0.3130596E+00 -0.1892610E+00
  0.7141780E+01  0.7141780E+01 -0.2568960E-01  0.3963072E+00  0.2586453E+01  0.3367925E+00 -0.2088785E+00
  0.6407370E+01  0.7807410E+01 -0.2568960E-01  0.4222340E+00  0.2579148E+01  0.3571906E+00 -0.2251586E+00
  0.5611260E+01  0.8397840E+01 -0.2568960E-01  0.4425597E+00  0.2575451E+01  0.3735102E+00 -0.2373799E+00
  0.4761110E+01  0.8907410E+01 -0.2568960E-01  0.4571328E+00  0.2573452E+01  0.3853185E+00 -0.2459675E+00
  0.3865100E+01  0.9331180E+01 -0.2568960E-01  0.4649644E+00  0.2572813E+01  0.3917599E+00 -0.2504318E+00
  0.2931870E+01  0.9665100E+01 -0.2568960E-01  0.4671539E+00  0.2572299E+01  0.3934754E+00 -0.2518132E+00
  0.1970410E+01  0.9905930E+01 -0.2568960E-01  0.4625775E+00  0.2572766E+01  0.3897370E+00 -0.2491646E+00
  0.9899730E+00  0.1005140E+02 -0.2568960E-01  0.4519290E+00  0.2573983E+01  0.3810613E+00 -0.2429652E+00
 -0.4414850E-06  0.1010000E+02 -0.2568960E-01  0.4350100E+00  0.2577029E+01  0.3675060E+00 -0.2327510E+00
 -0.9899740E+00  0.1005140E+02 -0.2568960E-01  0.4128937E+00  0.2581615E+01  0.3498313E+00 -0.2193155E+00
 -0.1970410E+01  0.9905930E+01 -0.2568960E-01  0.3846373E+00  0.2590118E+01  0.3276159E+00 -0.2015283E+00
 -0.2931880E+01  0.9665100E+01 -0.2568960E-01  0.3516245E+00  0.2604360E+01  0.3020906E+00 -0.1799474E+00
 -0.3865100E+01  0.9331180E+01 -0.2568960E-01  0.3146656E+00  0.2628936E+01  0.2742136E+00 -0.1543416E+00
 -0.4761110E+01  0.8907400E+01 -0.2568960E-01  0.2748559E+00  0.2668038E+01  0.2446088E+00 -0.1253487E+00
 -0.5611260E+01  0.8397840E+01 -0.2568960E-01  0.2322602E+00  0.2734949E+01  0.2133201E+00 -0.9186567E-01
 -0.6407370E+01  0.7807410E+01 -0.2568960E-01  0.1898625E+00  0.2848455E+01  0.1817633E+00 -0.5486212E-01
 -0.7141780E+01  0.7141780E+01 -0.2568960E-01  0.1520358E+00  0.3044427E+01  0.1513187E+00 -0.1474943E-01
 -0.7807410E+01  0.6407370E+01 -0.2568960E-01  0.1253878E+00 -0.2916521E+01  0.1222253E+00  0.2798356E-01
 -0.8397840E+01  0.5611260E+01 -0.2568960E-01  0.1203725E+00 -0.2479335E+01  0.9492652E-01  0.7401694E-01
 -0.8907410E+01  0.4761110E+01 -0.2568960E-01  0.1407501E+00 -0.2093481E+01  0.7026356E-01  0.1219575E+00
 -0.9331180E+01  0.3865100E+01 -0.2568960E-01  0.1775728E+00 -0.1851895E+01  0.4926077E-01  0.1706033E+00
 -0.9665100E+01  0.2931880E+01 -0.2568960E-01  0.2220737E+00 -0.1713966E+01  0.3168573E-01  0.2198016E+00
 -0.9905930E+01  0.1970410E+01 -0.2568960E-01  0.2702622E+00 -0.1637508E+01  0.1801634E-01  0.2696610E+00
 -0.1005140E+02  0.9899730E+00 -0.2568960E-01  0.3188668E+00 -0.1596147E+01  0.8082730E-02  0.3187644E+00
 -0.1010000E+02 -0.8829700E-06 -0.2568960E-01  0.3656434E+00 -0.1576158E+01  0.1960482E-02  0.3656381E+00
 -0.1005140E+02 -0.9899740E+00 -0.2568960E-01  0.4106674E+00 -0.1568780E+01 -0.8280243E-03  0.4106665E+00
 -0.9905930E+01 -0.1970410E+01 -0.2568960E-01  0.4535096E+00 -0.1570566E+01 -0.1045725E-03  0.4535096E+00
 -0.9665100E+01 -0.2931880E+01 -0.2568960E-01  0.4933949E+00 -0.1577253E+01  0.3185917E-02  0.4933846E+00
 -0.9331180E+01 -0.3865100E+01 -0.2568960E-01  0.5291595E+00 -0.1586475E+01  0.8295971E-02  0.5290945E+00
 -0.8907400E+01 -0.4761110E+01 -0.2568960E-01  0.5617490E+00 -0.1597293E+01  0.1488255E-01  0.5615518E+00
 -0.8397840E+01 -0.5611260E+01 -0.2568960E-01  0.5906380E+00 -0.1609345E+01  0.2276268E-01  0.5901992E+00
 -0.7807400E+01 -0.6407370E+01 -0.2568960E-01  0.6157858E+00 -0.1621067E+01  0.3094315E-01  0.6150078E+00
 -0.7141780E+01 -0.7141780E+01 -0.2568960E-01  0.6364297E+00 -0.1631277E+01  0.3846815E-01  0.6352661E+00
 -0.6407370E+01 -0.7807410E+01 -0.2568960E-01  0.6536501E+00 -0.1640245E+01  0.4535859E-01  0.6520744E+00
 -0.5611260E+01 -0.8397850E+01 -0.2568960E-01  0.6667084E+00 -0.1647690E+01  0.5121512E-01  0.6647383E+00
 -0.4761110E+01 -0.8907410E+01 -0.2568960E-01  0.6759417E+00 -0.1653169E+01  0.5561614E-01  0.6736498E+00
 -0.3865100E+01 -0.9331190E+01 -0.2568960E-01  0.6807852E+00 -0.1656066E+01  0.5798024E-01  0.6783117E+00
 -0.2931870E+01 -0.9665100E+01 -0.2568960E-01  0.6822463E+00 -0.1656850E+01  0.5863752E-01  0.6797218E+00
 -0.1970410E+01 -0.9905930E+01 -0.2568960E-01  0.6793829E+00 -0.1655079E+01  0.5719218E-01  0.6769713E+00
 -0.9899710E+00 -0.1005140E+02 -0.2568960E-01  0.6727010E+00 -0.1651101E+01  0.5396312E-01  0.6705331E+00
  0.1204410E-06 -0.1010000E+02 -0.2568960E-01  0.6617876E+00 -0.1645025E+01  0.4907860E-01  0.6599652E+00
  0.9899760E+00 -0.1005140E+02 -0.2568960E-01  0.6474580E+00 -0.1637193E+01  0.4295735E-01  0.6460314E+00
  0.1970410E+01 -0.9905930E+01 -0.2568960E-01  0.6286545E+00 -0.1627201E+01  0.3544034E-01  0.6276547E+00
  0.2931880E+01 -0.9665100E+01 -0.2568960E-01  0.6060332E+00 -0.1616001E+01  0.2738591E-01  0.6054141E+00
  0.3865100E+01 -0.9331180E+01 -0.2568960E-01  0.5794526E+00 -0.1604651E+01  0.1961346E-01  0.5791206E+00
  0.4761110E+01 -0.8907410E+01 -0.2568960E-01  0.5495251E+00 -0.1593390E+01  0.1241499E-01  0.5493848E+00
  0.5611260E+01 -0.8397840E+01 -0.2568960E-01  0.5152048E+00 -0.1582437E+01  0.5997261E-02  0.5151699E+00
  0.6407370E+01 -0.7807410E+01 -0.2568960E-01  0.4774748E+00 -0.1573470E+01  0.1276406E-02  0.4774731E+00
  0.7141780E+01 -0.7141780E+01 -0.2568960E-01  0.4367520E+00 -0.1569211E+01 -0.6925865E-03  0.4367515E+00
  0.7807410E+01 -0.6407370E+01 -0.2568960E-01  0.3934565E+00 -0.1570966E+01  0.6656047E-04  0.3934565E+00
  0.8397840E+01 -0.5611260E+01 -0.2568960E-01  0.3469993E+00 -0.1582389E+01  0.4022717E-02  0.3469760E+00
  0.8907410E+01 -0.4761110E+01 -0.2568960E-01  0.2989374E+00 -0.1609209E+01  0.1148021E-01  0.2987169E+00
  0.9331180E+01 -0.3865100E+01 -0.2568960E-01  0.2509628E+00 -0.1662532E+01  0.2298989E-01  0.2499076E+00
  0.9665100E+01 -0.2931870E+01 -0.2568960E-01  0.2042438E+00 -0.1758762E+01  0.3816520E-01  0.2006463E+00
  0.9905930E+01 -0.1970410E+01 -0.2568960E-01  0.1614280E+00 -0.1934198E+01  0.5738058E-01  0.1508856E+00
  0.1005140E+02 -0.9899690E+00 -0.2568960E-01  0.1296220E+00 -0.2235500E+01  0.7995417E-01  0.1020254E+00
  0.1010000E+02  0.0000000E+00 -0.1027320E+00  0.1185261E+00 -0.2657491E+01  0.1049067E+00  0.5516365E-01
  0.1005140E+02  0.9899730E+00 -0.1027320E+00  0.1331105E+00 -0.3060175E+01  0.1326695E+00  0.1082561E-01
  0.9905930E+01  0.1970410E+01 -0.1027320E+00  0.1657195E+00  0.2952158E+01  0.1627549E+00 -0.3120561E-01
  0.9665100E+01  0.2931880E+01 -0.1027320E+00  0.2061961E+00  0.2793840E+01  0.1938534E+00 -0.7026866E-01
  0.9331180E+01  0.3865100E+01 -0.1027320E+00  0.2481029E+00  0.2703891E+01  0.2247138E+00 -0.1051607E+00
  0.8907400E+01  0.4761110E+01 -0.1027320E+00  0.2893895E+00  0.2649575E+01  0.2550625E+00 -0.1367093E+00
  0.8397840E+01  0.5611260E+01 -0.1027320E+00  0.3285401E+00  0.2617358E+01  0.2844196E+00 -0.1644509E+00
  0.7807410E+01  0.6407370E+01 -0.1027320E+00  0.3642022E+00  0.2597589E+01  0.3116271E+00 -0.1884987E+00
  0.7141780E+01  0.7141780E+01 -0.1027320E+00  0.3946233E+00  0.2586128E+01  0.3352939E+00 -0.2080998E+00
  0.6407370E+01  0.7807410E+01 -0.1027320E+00  0.4203693E+00  0.2578953E+01  0.3555695E+00 -0.2242336E+00
  0.5611260E+01  0.8397840E+01 -0.1027320E+00  0.4405462E+00  0.2575345E+01  0.3717856E+00 -0.2363396E+00
  0.4761110E+01  0.8907410E+01 -0.1027320E+00  0.4551101E+00  0.2573280E+01  0.3835715E+00 -0.2449452E+00
  0.3865100E+01  0.9331180E+01 -0.1027320E+00  0.4629907E+00  0.2572557E+01  0.3900330E+00 -0.2494687E+00
  0.2931870E+01  0.9665100E+01 -0.1027320E+00  0.4650876E+00  0.2572132E+01  0.3916930E+00 -0.2507650E+00
  0.1970410E+01  0.9905930E+01 -0.1027320E+00  0.4604720E+00  0.2572666E+01  0.3879384E+00 -0.2480691E+00
  0.9899730E+00  0.1005140E+02 -0.1027320E+00  0.4499327E+00  0.2573809E+01  0.3793359E+00 -0.2419580E+00
 -0.4414850E-06  0.1010000E+02 -0.1027320E+00  0.4331625E+00  0.2576745E+01  0.3658794E+00 -0.2318664E+00
 -0.9899740E+00  0.1005140E+02 -0.1027320E+00  0.4110650E+00  0.2581411E+01  0.3482372E+00 -0.2184152E+00
 -0.1970410E+01  0.9905930E+01 -0.1027320E+00  0.3828884E+00  0.2589981E+01  0.3260987E+00 -0.2006568E+00
 -0.2931880E+01  0.9665100E+01 -0.1027320E+00  0.3500732E+00  0.2604105E+01  0.3007121E+00 -0.1792304E+00
 -0.3865100E+01  0.9331180E+01 -0.1027320E+00  0.3133244E+00  0.2628491E+01  0.2729765E+00 -0.1538052E+00
 -0.4761110E+01  0.8907400E+01 -0.1027320E+00  0.2736316E+00  0.2667689E+01  0.2434756E+00 -0.1248755E+00
 -0.5611260E+01  0.8397840E+01 -0.1027320E+00  0.2312005E+00  0.2734669E+01  0.2123213E+00 -0.9150584E-01
 -0.6407370E+01  0.7807410E+01 -0.1027320E+00  0.1890078E+00  0.2847908E+01  0.1809152E+00 -0.5471419E-01
 -0.7141780E+01  0.7141780E+01 -0.1027320E+00  0.1513259E+00  0.3043490E+01  0.1505983E+00 -0.1482161E-01
 -0.7807410E+01  0.6407370E+01 -0.1027320E+00  0.1247638E+00 -0.2917158E+01  0.1216347E+00  0.2776687E-01
 -0.8397840E+01  0.5611260E+01 -0.1027320E+00  0.1197610E+00 -0.2479671E+01  0.9446900E-01  0.7360915E-01
 -0.8907410E+01  0.4761110E+01 -0.1027320E+00  0.1400137E+00 -0.2093616E+01  0.6991237E-01  0.1213099E+00
 -0.9331180E+01  0.3865100E+01 -0.1027320E+00  0.1766601E+00 -0.1851754E+01  0.4898363E-01  0.1697333E+00
 -0.9665100E+01  0.2931880E+01 -0.1027320E+00  0.2209841E+00 -0.1713872E+01  0.3150979E-01  0.2187261E+00
 -0.9905930E+01  0.1970410E+01 -0.1027320E+00  0.2689488E+00 -0.1637477E+01  0.1792029E-01  0.2683511E+00
 -0.1005140E+02  0.9899730E+00 -0.1027320E+00  0.3173375E+00 -0.1596078E+01  0.8021963E-02  0.3172361E+00
 -0.1010000E+02 -0.8829700E-06 -0.1027320E+00  0.3639356E+00 -0.1576057E+01  0.1914596E-02  0.3639306E+00
 -0.1005140E+02 -0.9899740E+00 -0.1027320E+00  0.4087360E+00 -0.1568758E+01 -0.8331775E-03  0.4087351E+00
 -0.9905930E+01 -0.1970410E+01 -0.1027320E+00  0.4513504E+00 -0.1570577E+01 -0.9894909E-04  0.4513504E+00
 -0.9665100E+01 -0.2931880E+01 -0.1027320E+00  0.4910837E+00 -0.1577258E+01  0.3173302E-02  0.4910734E+00
 -0.9331180E+01 -0.3865100E+01 -0.1027320E+00  0.5267440E+00 -0.1586489E+01  0.8265857E-02  0.5266792E+00
 -0.8907400E+01 -0.4761110E+01 -0.1027320E+00  0.5591335E+00 -0.1597338E+01  0.1483850E-01  0.5589366E+00
 -0.8397840E+01 -0.5611260E+01 -0.1027320E+00  0.5878423E+00 -0.1609396E+01  0.2268496E-01  0.5874045E+00
 -0.7807400E+01 -0.6407370E+01 -0.1027320E+00  0.6129214E+00 -0.1621127E+01  0.3083559E-01  0.6121452E+00
 -0.7141780E+01 -0.7141780E+01 -0.1027320E+00  0.6335441E+00 -0.1631363E+01  0.3834815E-01  0.6323825E+00
 -0.6407370E+01 -0.7807410E+01 -0.1027320E+00  0.6506186E+00 -0.1640327E+01  0.4520164E-01  0.6490465E+00
 -0.5611260E+01 -0.8397850E+01 -0.1027320E+00  0.6635582E+00 -0.1647764E+01  0.5102210E-01  0.6615937E+00
 -0.4761110E+01 -0.8907410E+01 -0.1027320E+00  0.6728061E+00 -0.1653257E+01  0.5541716E-01  0.6705199E+00
 -0.3865100E+01 -0.9331190E+01 -0.1027320E+00  0.6777046E+00 -0.1656181E+01  0.5779539E-01  0.6752356E+00
 -0.2931870E+01 -0.9665100E+01 -0.1027320E+00  0.6790836E+00 -0.1656942E+01  0.5842794E-01  0.6765653E+00
 -0.1970410E+01 -0.9905930E+01 -0.1027320E+00  0.6761738E+00 -0.1655156E+01  0.5697430E-01  0.6737692E+00
 -0.9899710E+00 -0.1005140E+02 -0.1027320E+00  0.6695806E+00 -0.1651191E+01  0.5377296E-01  0.6674179E+00
  0.1204410E-06 -0.1010000E+02 -0.1027320E+00  0.6587900E+00 -0.1645127E+01  0.4892344E-01  0.6569709E+00
  0.9899760E+00 -0.1005140E+02 -0.1027320E+00  0.6444508E+00 -0.1637267E+01  0.4280536E-01  0.6430276E+00
  0.1970410E+01 -0.9905930E+01 -0.1027320E+00  0.6256819E+00 -0.1627263E+01  0.3531165E-01  0.6246846E+00
  0.2931880E+01 -0.9665100E+01 -0.1027320E+00  0.6032172E+00 -0.1616064E+01  0.2729704E-01  0.6025993E+00
  0.3865100E+01 -0.9331180E+01 -0.1027320E+00  0.5768166E+00 -0.1604699E+01  0.1955165E-01  0.5764852E+00
  0.4761110E+01 -0.8907410E+01 -0.1027320E+00  0.5469600E+00 -0.1593420E+01  0.1237294E-01  0.5468200E+00
  0.5611260E+01 -0.8397840E+01 -0.1027320E+00  0.5127597E+00 -0.1582466E+01  0.5983595E-02  0.5127248E+00
  0.6407370E+01 -0.7807410E+01 -0.1027320E+00  0.4752427E+00 -0.1573479E+01  0.1274868E-02  0.4752410E+00
  0.7141780E+01 -0.7141780E+01 -0.1027320E+00  0.4347378E+00 -0.1569161E+01 -0.7108157E-03  0.4347372E+00
  0.7807410E+01 -0.6407370E+01 -0.1027320E+00  0.3915938E+00 -0.1570927E+01  0.5124494E-04  0.3915938E+00
  0.8397840E+01 -0.5611260E+01 -0.1027320E+00  0.3453328E+00 -0.1582372E+01  0.3997390E-02  0.3453097E+00
