 VARIABLES="X" "Y" "Z" "abs(eta) (m)" "angle(phi) (rad)" "PRE1" "PRE2"
ZONE N=   3200 ,E =    3136 ,F=FEPOINT,ET=QUADRILATERAL
  0.1100000E+02  0.0000000E+00  0.0000000E+00  0.1747858E+00 -0.1866140E+01  0.5087461E-01  0.1672180E+00
  0.1094700E+02  0.1078190E+01  0.0000000E+00  0.2100361E+00 -0.1773413E+01  0.4226622E-01  0.2057395E+00
  0.1078860E+02  0.2145990E+01  0.0000000E+00  0.2466486E+00 -0.1716774E+01  0.3587736E-01  0.2440252E+00
  0.1052630E+02  0.3193130E+01  0.0000000E+00  0.2831923E+00 -0.1683061E+01  0.3172579E-01  0.2814096E+00
  0.1016270E+02  0.4209520E+01  0.0000000E+00  0.3187276E+00 -0.1663775E+01  0.2959216E-01  0.3173509E+00
  0.9701130E+01  0.5185360E+01  0.0000000E+00  0.3524975E+00 -0.1654432E+01  0.2944713E-01  0.3512653E+00
  0.9146170E+01  0.6111270E+01  0.0000000E+00  0.3846181E+00 -0.1651443E+01  0.3098464E-01  0.3833680E+00
  0.8503110E+01  0.6978330E+01  0.0000000E+00  0.4144882E+00 -0.1652580E+01  0.3386044E-01  0.4131028E+00
  0.7778170E+01  0.7778170E+01  0.0000000E+00  0.4418454E+00 -0.1656070E+01  0.3763201E-01  0.4402399E+00
  0.6978330E+01  0.8503110E+01  0.0000000E+00  0.4659013E+00 -0.1661163E+01  0.4204458E-01  0.4640003E+00
  0.6111270E+01  0.9146170E+01  0.0000000E+00  0.4873285E+00 -0.1667045E+01  0.4683233E-01  0.4850730E+00
  0.5185360E+01  0.9701130E+01  0.0000000E+00  0.5057345E+00 -0.1672911E+01  0.5155331E-01  0.5031000E+00
  0.4209520E+01  0.1016270E+02  0.0000000E+00  0.5211309E+00 -0.1678181E+01  0.5585383E-01  0.5181291E+00
  0.3193130E+01  0.1052630E+02  0.0000000E+00  0.5325822E+00 -0.1682601E+01  0.5942141E-01  0.5292569E+00
  0.2145990E+01  0.1078860E+02  0.0000000E+00  0.5410261E+00 -0.1686037E+01  0.6221054E-01  0.5374375E+00
  0.1078190E+01  0.1094700E+02  0.0000000E+00  0.5461951E+00 -0.1688161E+01  0.6395684E-01  0.5424377E+00
 -0.4808250E-06  0.1100000E+02  0.0000000E+00  0.5482566E+00 -0.1688905E+01  0.6460338E-01  0.5444371E+00
 -0.1078190E+01  0.1094700E+02  0.0000000E+00  0.5461952E+00 -0.1688161E+01  0.6395692E-01  0.5424377E+00
 -0.2145990E+01  0.1078860E+02  0.0000000E+00  0.5410264E+00 -0.1686037E+01  0.6221041E-01  0.5374378E+00
 -0.3193130E+01  0.1052630E+02  0.0000000E+00  0.5325821E+00 -0.1682602E+01  0.5942148E-01  0.5292568E+00
 -0.4209520E+01  0.1016270E+02  0.0000000E+00  0.5211311E+00 -0.1678181E+01  0.5585388E-01  0.5181293E+00
 -0.5185370E+01  0.9701130E+01  0.0000000E+00  0.5057341E+00 -0.1672911E+01  0.5155330E-01  0.5030996E+00
 -0.6111270E+01  0.9146160E+01  0.0000000E+00  0.4873285E+00 -0.1667045E+01  0.4683251E-01  0.4850729E+00
 -0.6978330E+01  0.8503120E+01  0.0000000E+00  0.4659010E+00 -0.1661163E+01  0.4204444E-01  0.4640000E+00
 -0.7778170E+01  0.7778170E+01  0.0000000E+00  0.4418456E+00 -0.1656070E+01  0.3763217E-01  0.4402401E+00
 -0.8503120E+01  0.6978330E+01  0.0000000E+00  0.4144877E+00 -0.1652579E+01  0.3386001E-01  0.4131023E+00
 -0.9146170E+01  0.6111270E+01  0.0000000E+00  0.3846181E+00 -0.1651443E+01  0.3098458E-01  0.3833680E+00
 -0.9701130E+01  0.5185360E+01  0.0000000E+00  0.3524972E+00 -0.1654432E+01  0.2944705E-01  0.3512650E+00
 -0.1016270E+02  0.4209520E+01  0.0000000E+00  0.3187275E+00 -0.1663775E+01  0.2959229E-01  0.3173507E+00
 -0.1052630E+02  0.3193130E+01  0.0000000E+00  0.2831926E+00 -0.1683062E+01  0.3172617E-01  0.2814099E+00
 -0.1078860E+02  0.2145990E+01  0.0000000E+00  0.2466487E+00 -0.1716775E+01  0.3587763E-01  0.2440254E+00
 -0.1094700E+02  0.1078190E+01  0.0000000E+00  0.2100365E+00 -0.1773412E+01  0.4226618E-01  0.2057399E+00
 -0.1100000E+02 -0.9616510E-06  0.0000000E+00  0.1747859E+00 -0.1866139E+01  0.5087457E-01  0.1672181E+00
 -0.1094700E+02 -0.1078190E+01  0.0000000E+00  0.1427960E+00 -0.2018356E+01  0.6179743E-01  0.1287315E+00
 -0.1078860E+02 -0.2146000E+01  0.0000000E+00  0.1174219E+00 -0.2261370E+01  0.7479534E-01  0.9051831E-01
 -0.1052630E+02 -0.3193130E+01  0.0000000E+00  0.1042791E+00 -0.2605680E+01  0.8965947E-01  0.5324768E-01
 -0.1016270E+02 -0.4209520E+01  0.0000000E+00  0.1073942E+00 -0.2978374E+01  0.1059669E+00  0.1745098E-01
 -0.9701130E+01 -0.5185360E+01  0.0000000E+00  0.1245365E+00  0.3010626E+01  0.1234700E+00 -0.1626361E-01
 -0.9146160E+01 -0.6111270E+01  0.0000000E+00  0.1497647E+00  0.2814277E+01  0.1418135E+00 -0.4814973E-01
 -0.8503110E+01 -0.6978330E+01  0.0000000E+00  0.1782421E+00  0.2690835E+01  0.1604388E+00 -0.7765079E-01
 -0.7778170E+01 -0.7778180E+01  0.0000000E+00  0.2070872E+00  0.2612340E+01  0.1787545E+00 -0.1045560E+00
 -0.6978330E+01 -0.8503110E+01  0.0000000E+00  0.2343334E+00  0.2563415E+01  0.1962448E+00 -0.1280629E+00
 -0.6111270E+01 -0.9146170E+01  0.0000000E+00  0.2596383E+00  0.2530834E+01  0.2126992E+00 -0.1488996E+00
 -0.5185360E+01 -0.9701130E+01  0.0000000E+00  0.2820503E+00  0.2509202E+01  0.2275064E+00 -0.1667129E+00
 -0.4209510E+01 -0.1016270E+02  0.0000000E+00  0.3011321E+00  0.2494412E+01  0.2402393E+00 -0.1815645E+00
 -0.3193130E+01 -0.1052630E+02  0.0000000E+00  0.3157980E+00  0.2485970E+01  0.2503231E+00 -0.1925272E+00
 -0.2145990E+01 -0.1078860E+02  0.0000000E+00  0.3266957E+00  0.2480479E+01  0.2578638E+00 -0.2005901E+00
 -0.1078190E+01 -0.1094700E+02  0.0000000E+00  0.3333830E+00  0.2477334E+01  0.2624971E+00 -0.2055225E+00
  0.1311740E-06 -0.1100000E+02  0.0000000E+00  0.3359325E+00  0.2475770E+01  0.2641802E+00 -0.2075076E+00
  0.1078190E+01 -0.1094700E+02  0.0000000E+00  0.3333830E+00  0.2477334E+01  0.2624970E+00 -0.2055225E+00
  0.2145990E+01 -0.1078860E+02  0.0000000E+00  0.3266957E+00  0.2480478E+01  0.2578636E+00 -0.2005901E+00
  0.3193140E+01 -0.1052630E+02  0.0000000E+00  0.3157978E+00  0.2485971E+01  0.2503231E+00 -0.1925269E+00
  0.4209520E+01 -0.1016270E+02  0.0000000E+00  0.3011316E+00  0.2494413E+01  0.2402389E+00 -0.1815640E+00
  0.5185360E+01 -0.9701130E+01  0.0000000E+00  0.2820502E+00  0.2509202E+01  0.2275064E+00 -0.1667128E+00
  0.6111270E+01 -0.9146160E+01  0.0000000E+00  0.2596383E+00  0.2530834E+01  0.2126991E+00 -0.1488997E+00
  0.6978330E+01 -0.8503110E+01  0.0000000E+00  0.2343333E+00  0.2563415E+01  0.1962448E+00 -0.1280628E+00
  0.7778180E+01 -0.7778170E+01  0.0000000E+00  0.2070871E+00  0.2612341E+01  0.1787546E+00 -0.1045556E+00
  0.8503120E+01 -0.6978320E+01  0.0000000E+00  0.1782416E+00  0.2690836E+01  0.1604384E+00 -0.7765035E-01
  0.9146170E+01 -0.6111270E+01  0.0000000E+00  0.1497645E+00  0.2814279E+01  0.1418134E+00 -0.4814942E-01
  0.9701130E+01 -0.5185360E+01  0.0000000E+00  0.1245367E+00  0.3010626E+01  0.1234702E+00 -0.1626363E-01
  0.1016270E+02 -0.4209520E+01  0.0000000E+00  0.1073940E+00 -0.2978374E+01  0.1059667E+00  0.1745096E-01
  0.1052630E+02 -0.3193130E+01  0.0000000E+00  0.1042791E+00 -0.2605679E+01  0.8965938E-01  0.5324769E-01
  0.1078860E+02 -0.2145990E+01  0.0000000E+00  0.1174218E+00 -0.2261365E+01  0.7479482E-01  0.9051856E-01
  0.1094700E+02 -0.1078180E+01  0.0000000E+00  0.1427963E+00 -0.2018355E+01  0.6179735E-01  0.1287318E+00
  0.1100000E+02  0.0000000E+00 -0.2568960E-01  0.1745495E+00 -0.1866206E+01  0.5081692E-01  0.1669885E+00
  0.1094700E+02  0.1078190E+01 -0.2568960E-01  0.2097564E+00 -0.1773430E+01  0.4221334E-01  0.2054648E+00
  0.1078860E+02  0.2145990E+01 -0.2568960E-01  0.2463189E+00 -0.1716784E+01  0.3583194E-01  0.2436987E+00
  0.1052630E+02  0.3193130E+01 -0.2568960E-01  0.2828119E+00 -0.1683076E+01  0.3168738E-01  0.2810311E+00
  0.1016270E+02  0.4209520E+01 -0.2568960E-01  0.3182938E+00 -0.1663812E+01  0.2956375E-01  0.3169178E+00
  0.9701130E+01  0.5185360E+01 -0.2568960E-01  0.3520355E+00 -0.1654455E+01  0.2941641E-01  0.3508043E+00
  0.9146170E+01  0.6111270E+01 -0.2568960E-01  0.3841156E+00 -0.1651461E+01  0.3095109E-01  0.3828666E+00
  0.8503110E+01  0.6978330E+01 -0.2568960E-01  0.4139403E+00 -0.1652599E+01  0.3382348E-01  0.4125561E+00
  0.7778170E+01  0.7778170E+01 -0.2568960E-01  0.4412441E+00 -0.1656100E+01  0.3759404E-01  0.4396397E+00
  0.6978330E+01  0.8503110E+01 -0.2568960E-01  0.4652925E+00 -0.1661192E+01  0.4200332E-01  0.4633927E+00
  0.6111270E+01  0.9146170E+01 -0.2568960E-01  0.4866941E+00 -0.1667073E+01  0.4678501E-01  0.4844402E+00
  0.5185360E+01  0.9701130E+01 -0.2568960E-01  0.5050704E+00 -0.1672938E+01  0.5149921E-01  0.5024381E+00
  0.4209520E+01  0.1016270E+02 -0.2568960E-01  0.5204207E+00 -0.1678208E+01  0.5579170E-01  0.5174215E+00
  0.3193130E+01  0.1052630E+02 -0.2568960E-01  0.5318862E+00 -0.1682634E+01  0.5936126E-01  0.5285633E+00
  0.2145990E+01  0.1078860E+02 -0.2568960E-01  0.5403233E+00 -0.1686071E+01  0.6214775E-01  0.5367373E+00
  0.1078190E+01  0.1094700E+02 -0.2568960E-01  0.5454807E+00 -0.1688193E+01  0.6389051E-01  0.5417262E+00
 -0.4808250E-06  0.1100000E+02 -0.2568960E-01  0.5475093E+00 -0.1688931E+01  0.6452937E-01  0.5436932E+00
 -0.1078190E+01  0.1094700E+02 -0.2568960E-01  0.5454808E+00 -0.1688193E+01  0.6389054E-01  0.5417263E+00
 -0.2145990E+01  0.1078860E+02 -0.2568960E-01  0.5403229E+00 -0.1686071E+01  0.6214773E-01  0.5367369E+00
 -0.3193130E+01  0.1052630E+02 -0.2568960E-01  0.5318867E+00 -0.1682634E+01  0.5936129E-01  0.5285638E+00
 -0.4209520E+01  0.1016270E+02 -0.2568960E-01  0.5204203E+00 -0.1678208E+01  0.5579174E-01  0.5174211E+00
 -0.5185370E+01  0.9701130E+01 -0.2568960E-01  0.5050702E+00 -0.1672938E+01  0.5149911E-01  0.5024378E+00
 -0.6111270E+01  0.9146160E+01 -0.2568960E-01  0.4866946E+00 -0.1667073E+01  0.4678500E-01  0.4844407E+00
 -0.6978330E+01  0.8503120E+01 -0.2568960E-01  0.4652923E+00 -0.1661193E+01  0.4200339E-01  0.4633925E+00
 -0.7778170E+01  0.7778170E+01 -0.2568960E-01  0.4412440E+00 -0.1656100E+01  0.3759416E-01  0.4396396E+00
 -0.8503120E+01  0.6978330E+01 -0.2568960E-01  0.4139399E+00 -0.1652598E+01  0.3382337E-01  0.4125557E+00
 -0.9146170E+01  0.6111270E+01 -0.2568960E-01  0.3841158E+00 -0.1651461E+01  0.3095106E-01  0.3828668E+00
 -0.9701130E+01  0.5185360E+01 -0.2568960E-01  0.3520357E+00 -0.1654455E+01  0.2941636E-01  0.3508045E+00
 -0.1016270E+02  0.4209520E+01 -0.2568960E-01  0.3182939E+00 -0.1663813E+01  0.2956384E-01  0.3169179E+00
 -0.1052630E+02  0.3193130E+01 -0.2568960E-01  0.2828120E+00 -0.1683076E+01  0.3168747E-01  0.2810312E+00
 -0.1078860E+02  0.2145990E+01 -0.2568960E-01  0.2463190E+00 -0.1716785E+01  0.3583218E-01  0.2436988E+00
 -0.1094700E+02  0.1078190E+01 -0.2568960E-01  0.2097567E+00 -0.1773429E+01  0.4221337E-01  0.2054651E+00
 -0.1100000E+02 -0.9616510E-06 -0.2568960E-01  0.1745495E+00 -0.1866206E+01  0.5081687E-01  0.1669885E+00
 -0.1094700E+02 -0.1078190E+01 -0.2568960E-01  0.1425953E+00 -0.2018425E+01  0.6171946E-01  0.1285463E+00
 -0.1078860E+02 -0.2146000E+01 -0.2568960E-01  0.1172567E+00 -0.2261457E+01  0.7469805E-01  0.9038444E-01
 -0.1052630E+02 -0.3193130E+01 -0.2568960E-01  0.1041374E+00 -0.2605781E+01  0.8954298E-01  0.5316625E-01
 -0.1016270E+02 -0.4209520E+01 -0.2568960E-01  0.1072592E+00 -0.2978416E+01  0.1058344E+00  0.1742462E-01
 -0.9701130E+01 -0.5185360E+01 -0.2568960E-01  0.1243826E+00  0.3010465E+01  0.1233148E+00 -0.1626324E-01
 -0.9146160E+01 -0.6111270E+01 -0.2568960E-01  0.1495807E+00  0.2814150E+01  0.1416332E+00 -0.4810857E-01
 -0.8503110E+01 -0.6978330E+01 -0.2568960E-01  0.1780197E+00  0.2690761E+01  0.1602329E+00 -0.7756574E-01
 -0.7778170E+01 -0.7778180E+01 -0.2568960E-01  0.2068177E+00  0.2612362E+01  0.1785241E+00 -0.1044160E+00
 -0.6978330E+01 -0.8503110E+01 -0.2568960E-01  0.2340479E+00  0.2563362E+01  0.1959990E+00 -0.1279172E+00
 -0.6111270E+01 -0.9146170E+01 -0.2568960E-01  0.2593221E+00  0.2530782E+01  0.2124324E+00 -0.1487294E+00
 -0.5185360E+01 -0.9701130E+01 -0.2568960E-01  0.2816996E+00  0.2509167E+01  0.2272178E+00 -0.1665135E+00
 -0.4209510E+01 -0.1016270E+02 -0.2568960E-01  0.3007338E+00  0.2494435E+01  0.2399256E+00 -0.1813189E+00
 -0.3193130E+01 -0.1052630E+02 -0.2568960E-01  0.3154085E+00  0.2485944E+01  0.2500094E+00 -0.1922962E+00
 -0.2145990E+01 -0.1078860E+02 -0.2568960E-01  0.3262959E+00  0.2480446E+01  0.2575417E+00 -0.2003530E+00
 -0.1078190E+01 -0.1094700E+02 -0.2568960E-01  0.3329689E+00  0.2477311E+01  0.2621664E+00 -0.2052732E+00
  0.1311740E-06 -0.1100000E+02 -0.2568960E-01  0.3354868E+00  0.2475793E+01  0.2638345E+00 -0.2072263E+00
  0.1078190E+01 -0.1094700E+02 -0.2568960E-01  0.3329692E+00  0.2477312E+01  0.2621667E+00 -0.2052732E+00
  0.2145990E+01 -0.1078860E+02 -0.2568960E-01  0.3262959E+00  0.2480447E+01  0.2575419E+00 -0.2003527E+00
  0.3193140E+01 -0.1052630E+02 -0.2568960E-01  0.3154082E+00  0.2485944E+01  0.2500092E+00 -0.1922960E+00
  0.4209520E+01 -0.1016270E+02 -0.2568960E-01  0.3007336E+00  0.2494436E+01  0.2399257E+00 -0.1813185E+00
  0.5185360E+01 -0.9701130E+01 -0.2568960E-01  0.2816997E+00  0.2509166E+01  0.2272178E+00 -0.1665137E+00
  0.6111270E+01 -0.9146160E+01 -0.2568960E-01  0.2593220E+00  0.2530781E+01  0.2124321E+00 -0.1487297E+00
  0.6978330E+01 -0.8503110E+01 -0.2568960E-01  0.2340479E+00  0.2563362E+01  0.1959990E+00 -0.1279172E+00
  0.7778180E+01 -0.7778170E+01 -0.2568960E-01  0.2068171E+00  0.2612361E+01  0.1785236E+00 -0.1044157E+00
  0.8503120E+01 -0.6978320E+01 -0.2568960E-01  0.1780193E+00  0.2690763E+01  0.1602327E+00 -0.7756525E-01
  0.9146170E+01 -0.6111270E+01 -0.2568960E-01  0.1495804E+00  0.2814150E+01  0.1416329E+00 -0.4810841E-01
  0.9701130E+01 -0.5185360E+01 -0.2568960E-01  0.1243825E+00  0.3010465E+01  0.1233147E+00 -0.1626331E-01
  0.1016270E+02 -0.4209520E+01 -0.2568960E-01  0.1072592E+00 -0.2978415E+01  0.1058344E+00  0.1742473E-01
  0.1052630E+02 -0.3193130E+01 -0.2568960E-01  0.1041375E+00 -0.2605782E+01  0.8954319E-01  0.5316622E-01
  0.1078860E+02 -0.2145990E+01 -0.2568960E-01  0.1172570E+00 -0.2261458E+01  0.7469824E-01  0.9038462E-01
  0.1094700E+02 -0.1078180E+01 -0.2568960E-01  0.1425956E+00 -0.2018423E+01  0.6171921E-01  0.1285466E+00
  0.1100000E+02  0.0000000E+00 -0.1027320E+00  0.1738386E+00 -0.1866304E+01  0.5062617E-01  0.1663035E+00
  0.1094700E+02  0.1078190E+01 -0.1027320E+00  0.2089190E+00 -0.1773389E+01  0.4203656E-01  0.2046462E+00
  0.1078860E+02  0.2145990E+01 -0.1027320E+00  0.2453390E+00 -0.1716734E+01  0.3567713E-01  0.2427310E+00
  0.1052630E+02  0.3193130E+01 -0.1027320E+00  0.2816819E+00 -0.1683057E+01  0.3155553E-01  0.2799088E+00
  0.1016270E+02  0.4209520E+01 -0.1027320E+00  0.3170049E+00 -0.1663876E+01  0.2946419E-01  0.3156326E+00
  0.9701130E+01  0.5185360E+01 -0.1027320E+00  0.3506669E+00 -0.1654476E+01  0.2930958E-01  0.3494399E+00
  0.9146170E+01  0.6111270E+01 -0.1027320E+00  0.3826302E+00 -0.1651479E+01  0.3083812E-01  0.3813855E+00
  0.8503110E+01  0.6978330E+01 -0.1027320E+00  0.4123219E+00 -0.1652629E+01  0.3370370E-01  0.4109421E+00
  0.7778170E+01  0.7778170E+01 -0.1027320E+00  0.4394617E+00 -0.1656169E+01  0.3747228E-01  0.4378612E+00
  0.6978330E+01  0.8503110E+01 -0.1027320E+00  0.4634930E+00 -0.1661266E+01  0.4187478E-01  0.4615975E+00
  0.6111270E+01  0.9146170E+01 -0.1027320E+00  0.4848290E+00 -0.1667147E+01  0.4664114E-01  0.4825804E+00
  0.5185360E+01  0.9701130E+01 -0.1027320E+00  0.5031096E+00 -0.1673013E+01  0.5133654E-01  0.5004836E+00
  0.4209520E+01  0.1016270E+02 -0.1027320E+00  0.5183202E+00 -0.1678286E+01  0.5560664E-01  0.5153288E+00
  0.3193130E+01  0.1052630E+02 -0.1027320E+00  0.5298297E+00 -0.1682734E+01  0.5918391E-01  0.5265138E+00
  0.2145990E+01  0.1078860E+02 -0.1027320E+00  0.5382562E+00 -0.1686174E+01  0.6196489E-01  0.5346776E+00
  0.1078190E+01  0.1094700E+02 -0.1027320E+00  0.5433698E+00 -0.1688292E+01  0.6369665E-01  0.5396235E+00
 -0.4808250E-06  0.1100000E+02 -0.1027320E+00  0.5452999E+00 -0.1689013E+01  0.6431334E-01  0.5414941E+00
 -0.1078190E+01  0.1094700E+02 -0.1027320E+00  0.5433699E+00 -0.1688291E+01  0.6369654E-01  0.5396236E+00
 -0.2145990E+01  0.1078860E+02 -0.1027320E+00  0.5382556E+00 -0.1686174E+01  0.6196487E-01  0.5346770E+00
 -0.3193130E+01  0.1052630E+02 -0.1027320E+00  0.5298305E+00 -0.1682733E+01  0.5918392E-01  0.5265146E+00
 -0.4209520E+01  0.1016270E+02 -0.1027320E+00  0.5183200E+00 -0.1678286E+01  0.5560670E-01  0.5153285E+00
 -0.5185370E+01  0.9701130E+01 -0.1027320E+00  0.5031095E+00 -0.1673012E+01  0.5133642E-01  0.5004835E+00
 -0.6111270E+01  0.9146160E+01 -0.1027320E+00  0.4848290E+00 -0.1667147E+01  0.4664130E-01  0.4825803E+00
 -0.6978330E+01  0.8503120E+01 -0.1027320E+00  0.4634938E+00 -0.1661265E+01  0.4187455E-01  0.4615983E+00
 -0.7778170E+01  0.7778170E+01 -0.1027320E+00  0.4394624E+00 -0.1656169E+01  0.3747234E-01  0.4378618E+00
 -0.8503120E+01  0.6978330E+01 -0.1027320E+00  0.4123216E+00 -0.1652629E+01  0.3370357E-01  0.4109418E+00
 -0.9146170E+01  0.6111270E+01 -0.1027320E+00  0.3826304E+00 -0.1651479E+01  0.3083819E-01  0.3813857E+00
 -0.9701130E+01  0.5185360E+01 -0.1027320E+00  0.3506666E+00 -0.1654476E+01  0.2930957E-01  0.3494395E+00
 -0.1016270E+02  0.4209520E+01 -0.1027320E+00  0.3170055E+00 -0.1663876E+01  0.2946412E-01  0.3156332E+00
 -0.1052630E+02  0.3193130E+01 -0.1027320E+00  0.2816820E+00 -0.1683058E+01  0.3155571E-01  0.2799089E+00
 -0.1078860E+02  0.2145990E+01 -0.1027320E+00  0.2453394E+00 -0.1716734E+01  0.3567723E-01  0.2427314E+00
 -0.1094700E+02  0.1078190E+01 -0.1027320E+00  0.2089191E+00 -0.1773388E+01  0.4203630E-01  0.2046464E+00
 -0.1100000E+02 -0.9616510E-06 -0.1027320E+00  0.1738388E+00 -0.1866303E+01  0.5062605E-01  0.1663037E+00
 -0.1094700E+02 -0.1078190E+01 -0.1027320E+00  0.1419873E+00 -0.2018513E+01  0.6146745E-01  0.1279928E+00
 -0.1078860E+02 -0.2146000E+01 -0.1027320E+00  0.1167482E+00 -0.2261641E+01  0.7439066E-01  0.8997878E-01
 -0.1052630E+02 -0.3193130E+01 -0.1027320E+00  0.1036975E+00 -0.2606075E+01  0.8918031E-01  0.5291544E-01
 -0.1016270E+02 -0.4209520E+01 -0.1027320E+00  0.1068415E+00 -0.2978595E+01  0.1054254E+00  0.1733797E-01
 -0.9701130E+01 -0.5185360E+01 -0.1027320E+00  0.1239114E+00  0.3009888E+01  0.1228383E+00 -0.1627257E-01
 -0.9146160E+01 -0.6111270E+01 -0.1027320E+00  0.1490285E+00  0.2813631E+01  0.1410854E+00 -0.4800410E-01
 -0.8503110E+01 -0.6978330E+01 -0.1027320E+00  0.1773566E+00  0.2690442E+01  0.1596113E+00 -0.7732780E-01
 -0.7778170E+01 -0.7778180E+01 -0.1027320E+00  0.2060158E+00  0.2612352E+01  0.1778309E+00 -0.1040129E+00
 -0.6978330E+01 -0.8503110E+01 -0.1027320E+00  0.2332031E+00  0.2563134E+01  0.1952624E+00 -0.1275002E+00
 -0.6111270E+01 -0.9146170E+01 -0.1027320E+00  0.2583950E+00  0.2530543E+01  0.2116374E+00 -0.1482484E+00
 -0.5185360E+01 -0.9701130E+01 -0.1027320E+00  0.2806678E+00  0.2509009E+01  0.2263593E+00 -0.1659394E+00
 -0.4209510E+01 -0.1016270E+02 -0.1027320E+00  0.2995595E+00  0.2494464E+01  0.2389939E+00 -0.1806039E+00
 -0.3193130E+01 -0.1052630E+02 -0.1027320E+00  0.3142635E+00  0.2485823E+01  0.2490785E+00 -0.1916284E+00
 -0.2145990E+01 -0.1078860E+02 -0.1027320E+00  0.3251297E+00  0.2480295E+01  0.2565911E+00 -0.1996756E+00
 -0.1078190E+01 -0.1094700E+02 -0.1027320E+00  0.3317541E+00  0.2477205E+01  0.2611881E+00 -0.2045520E+00
  0.1311740E-06 -0.1100000E+02 -0.1027320E+00  0.3341742E+00  0.2475829E+01  0.2628098E+00 -0.2064059E+00
  0.1078190E+01 -0.1094700E+02 -0.1027320E+00  0.3317538E+00  0.2477204E+01  0.2611878E+00 -0.2045520E+00
  0.2145990E+01 -0.1078860E+02 -0.1027320E+00  0.3251298E+00  0.2480295E+01  0.2565911E+00 -0.1996756E+00
  0.3193140E+01 -0.1052630E+02 -0.1027320E+00  0.3142632E+00  0.2485823E+01  0.2490783E+00 -0.1916281E+00
  0.4209520E+01 -0.1016270E+02 -0.1027320E+00  0.2995592E+00  0.2494464E+01  0.2389939E+00 -0.1806036E+00
  0.5185360E+01 -0.9701130E+01 -0.1027320E+00  0.2806677E+00  0.2509008E+01  0.2263591E+00 -0.1659396E+00
  0.6111270E+01 -0.9146160E+01 -0.1027320E+00  0.2583951E+00  0.2530543E+01  0.2116375E+00 -0.1482485E+00
  0.6978330E+01 -0.8503110E+01 -0.1027320E+00  0.2332032E+00  0.2563134E+01  0.1952625E+00 -0.1275001E+00
  0.7778180E+01 -0.7778170E+01 -0.1027320E+00  0.2060153E+00  0.2612353E+01  0.1778306E+00 -0.1040125E+00
  0.8503120E+01 -0.6978320E+01 -0.1027320E+00  0.1773563E+00  0.2690444E+01  0.1596113E+00 -0.7732733E-01
  0.9146170E+01 -0.6111270E+01 -0.1027320E+00  0.1490281E+00  0.2813633E+01  0.1410851E+00 -0.4800368E-01
