 VARIABLES="X" "Y" "Z" "abs(eta) (m)" "angle(phi) (rad)" "PRE1" "PRE2"
ZONE N=   3200 ,E =    3136 ,F=FEPOINT,ET=QUADRILATERAL
  0.1100000E+02  0.0000000E+00  0.0000000E+00  0.3970627E+00 -0.1651341E+01  0.3194685E-01  0.3957755E+00
  0.1094700E+02  0.1078190E+01  0.0000000E+00  0.4255208E+00 -0.1653589E+01  0.3518965E-01  0.4240633E+00
  0.1078860E+02  0.2145990E+01  0.0000000E+00  0.4516381E+00 -0.1658063E+01  0.3936315E-01  0.4499195E+00
  0.1052630E+02  0.3193130E+01  0.0000000E+00  0.4749570E+00 -0.1663629E+01  0.4402836E-01  0.4729119E+00
  0.1016270E+02  0.4209520E+01  0.0000000E+00  0.4953964E+00 -0.1669384E+01  0.4876075E-01  0.4929909E+00
  0.9701130E+01  0.5185360E+01  0.0000000E+00  0.5120774E+00 -0.1674972E+01  0.5324933E-01  0.5093012E+00
  0.9146170E+01  0.6111270E+01  0.0000000E+00  0.5258561E+00 -0.1680072E+01  0.5734893E-01  0.5227196E+00
  0.8503110E+01  0.6978330E+01  0.0000000E+00  0.5364261E+00 -0.1684192E+01  0.6069798E-01  0.5329809E+00
  0.7778170E+01  0.7778170E+01  0.0000000E+00  0.5438971E+00 -0.1687087E+01  0.6310747E-01  0.5402235E+00
  0.6978330E+01  0.8503110E+01  0.0000000E+00  0.5472694E+00 -0.1688589E+01  0.6431542E-01  0.5434771E+00
  0.6111270E+01  0.9146170E+01  0.0000000E+00  0.5475529E+00 -0.1688739E+01  0.6443023E-01  0.5437489E+00
  0.5185360E+01  0.9701130E+01  0.0000000E+00  0.5445396E+00 -0.1687441E+01  0.6337357E-01  0.5408394E+00
  0.4209520E+01  0.1016270E+02  0.0000000E+00  0.5384554E+00 -0.1684866E+01  0.6128855E-01  0.5349560E+00
  0.3193130E+01  0.1052630E+02  0.0000000E+00  0.5283106E+00 -0.1681028E+01  0.5811895E-01  0.5251040E+00
  0.2145990E+01  0.1078860E+02  0.0000000E+00  0.5150846E+00 -0.1676113E+01  0.5414691E-01  0.5122306E+00
  0.1078190E+01  0.1094700E+02  0.0000000E+00  0.4986959E+00 -0.1670468E+01  0.4962374E-01  0.4962208E+00
 -0.4808250E-06  0.1100000E+02  0.0000000E+00  0.4794788E+00 -0.1664678E+01  0.4494800E-01  0.4773673E+00
 -0.1078190E+01  0.1094700E+02  0.0000000E+00  0.4566294E+00 -0.1659189E+01  0.4031006E-01  0.4548467E+00
 -0.2145990E+01  0.1078860E+02  0.0000000E+00  0.4309981E+00 -0.1654446E+01  0.3601071E-01  0.4294911E+00
 -0.3193130E+01  0.1052630E+02  0.0000000E+00  0.4027143E+00 -0.1651564E+01  0.3249083E-01  0.4014015E+00
 -0.4209520E+01  0.1016270E+02  0.0000000E+00  0.3722796E+00 -0.1651930E+01  0.3017134E-01  0.3710550E+00
 -0.5185370E+01  0.9701130E+01  0.0000000E+00  0.3393076E+00 -0.1657474E+01  0.2937360E-01  0.3380338E+00
 -0.6111270E+01  0.9146160E+01  0.0000000E+00  0.3045186E+00 -0.1670236E+01  0.3023130E-01  0.3030143E+00
 -0.6978330E+01  0.8503120E+01  0.0000000E+00  0.2684698E+00 -0.1694361E+01  0.3308911E-01  0.2664228E+00
 -0.7778170E+01  0.7778170E+01  0.0000000E+00  0.2320535E+00 -0.1735712E+01  0.3809598E-01  0.2289051E+00
 -0.8503120E+01  0.6978330E+01  0.0000000E+00  0.1958951E+00 -0.1804982E+01  0.4545771E-01  0.1905479E+00
 -0.9146170E+01  0.6111270E+01  0.0000000E+00  0.1614246E+00 -0.1918704E+01  0.5503474E-01  0.1517534E+00
 -0.9701130E+01  0.5185360E+01  0.0000000E+00  0.1314121E+00 -0.2104019E+01  0.6679830E-01  0.1131686E+00
 -0.1016270E+02  0.4209520E+01  0.0000000E+00  0.1102827E+00 -0.2388667E+01  0.8047233E-01  0.7540872E-01
 -0.1052630E+02  0.3193130E+01  0.0000000E+00  0.1035607E+00 -0.2755780E+01  0.9594823E-01  0.3897116E-01
 -0.1078860E+02  0.2145990E+01  0.0000000E+00  0.1129523E+00 -0.3107882E+01  0.1128881E+00  0.3806971E-02
 -0.1094700E+02  0.1078190E+01  0.0000000E+00  0.1341203E+00  0.2920153E+01  0.1308454E+00 -0.2945745E-01
 -0.1100000E+02 -0.9616510E-06  0.0000000E+00  0.1610425E+00  0.2756619E+01  0.1492555E+00 -0.6047706E-01
 -0.1094700E+02 -0.1078190E+01  0.0000000E+00  0.1896178E+00  0.2655914E+01  0.1676901E+00 -0.8851516E-01
 -0.1078860E+02 -0.2146000E+01  0.0000000E+00  0.2180945E+00  0.2590889E+01  0.1858506E+00 -0.1141261E+00
 -0.1052630E+02 -0.3193130E+01  0.0000000E+00  0.2449251E+00  0.2548581E+01  0.2031069E+00 -0.1368792E+00
 -0.1016270E+02 -0.4209520E+01  0.0000000E+00  0.2692529E+00  0.2520244E+01  0.2189279E+00 -0.1567408E+00
 -0.9701130E+01 -0.5185360E+01  0.0000000E+00  0.2898953E+00  0.2502831E+01  0.2327380E+00 -0.1728360E+00
 -0.9146160E+01 -0.6111270E+01  0.0000000E+00  0.3072584E+00  0.2491066E+01  0.2445055E+00 -0.1860774E+00
 -0.8503110E+01 -0.6978330E+01  0.0000000E+00  0.3207448E+00  0.2483387E+01  0.2537384E+00 -0.1961991E+00
 -0.7778170E+01 -0.7778180E+01  0.0000000E+00  0.3302594E+00  0.2478266E+01  0.2602273E+00 -0.2033545E+00
 -0.6978330E+01 -0.8503110E+01  0.0000000E+00  0.3347779E+00  0.2476711E+01  0.2634668E+00 -0.2065465E+00
 -0.6111270E+01 -0.9146170E+01  0.0000000E+00  0.3351740E+00  0.2476634E+01  0.2637626E+00 -0.2068112E+00
 -0.5185360E+01 -0.9701130E+01  0.0000000E+00  0.3312235E+00  0.2478271E+01  0.2609879E+00 -0.2039468E+00
 -0.4209510E+01 -0.1016270E+02  0.0000000E+00  0.3232222E+00  0.2481635E+01  0.2553515E+00 -0.1981621E+00
 -0.3193130E+01 -0.1052630E+02  0.0000000E+00  0.3103631E+00  0.2489143E+01  0.2466143E+00 -0.1884321E+00
 -0.2145990E+01 -0.1078860E+02  0.0000000E+00  0.2936832E+00  0.2500150E+01  0.2353088E+00 -0.1757258E+00
 -0.1078190E+01 -0.1094700E+02  0.0000000E+00  0.2733797E+00  0.2516754E+01  0.2217267E+00 -0.1599179E+00
  0.1311740E-06 -0.1100000E+02  0.0000000E+00  0.2501400E+00  0.2541308E+01  0.2064093E+00 -0.1412984E+00
  0.1078190E+01 -0.1094700E+02  0.0000000E+00  0.2237287E+00  0.2580728E+01  0.1894525E+00 -0.1190054E+00
  0.2145990E+01 -0.1078860E+02  0.0000000E+00  0.1954519E+00  0.2640496E+01  0.1714223E+00 -0.9389258E-01
  0.3193140E+01 -0.1052630E+02  0.0000000E+00  0.1665369E+00  0.2733806E+01  0.1528810E+00 -0.6604497E-01
  0.4209520E+01 -0.1016270E+02  0.0000000E+00  0.1391705E+00  0.2880408E+01  0.1344505E+00 -0.3593738E-01
  0.5185360E+01 -0.9701130E+01  0.0000000E+00  0.1164992E+00  0.3114880E+01  0.1164576E+00 -0.3111586E-02
  0.6111270E+01 -0.9146160E+01  0.0000000E+00  0.1042253E+00 -0.2832215E+01  0.9927701E-01  0.3173308E-01
  0.6978330E+01 -0.8503110E+01  0.0000000E+00  0.1077544E+00 -0.2456468E+01  0.8343854E-01  0.6818367E-01
  0.7778180E+01 -0.7778170E+01  0.0000000E+00  0.1263115E+00 -0.2151697E+01  0.6931684E-01  0.1055925E+00
  0.8503120E+01 -0.6978320E+01  0.0000000E+00  0.1548686E+00 -0.1949277E+01  0.5722541E-01  0.1439081E+00
  0.9146170E+01 -0.6111270E+01  0.0000000E+00  0.1886978E+00 -0.1823633E+01  0.4720300E-01  0.1826985E+00
  0.9701130E+01 -0.5185360E+01  0.0000000E+00  0.2248121E+00 -0.1747151E+01  0.3944146E-01  0.2213252E+00
  0.1016270E+02 -0.4209520E+01  0.0000000E+00  0.2613687E+00 -0.1700794E+01  0.3388180E-01  0.2591633E+00
  0.1052630E+02 -0.3193130E+01  0.0000000E+00  0.2973233E+00 -0.1673924E+01  0.3060804E-01  0.2957436E+00
  0.1078860E+02 -0.2145990E+01  0.0000000E+00  0.3323795E+00 -0.1659278E+01  0.2937116E-01  0.3310792E+00
  0.1094700E+02 -0.1078180E+01  0.0000000E+00  0.3657705E+00 -0.1652763E+01  0.2994732E-01  0.3645425E+00
  0.1100000E+02  0.0000000E+00 -0.2568960E-01  0.3965225E+00 -0.1651374E+01  0.3191610E-01  0.3952359E+00
  0.1094700E+02  0.1078190E+01 -0.2568960E-01  0.4249655E+00 -0.1653615E+01  0.3515507E-01  0.4235089E+00
  0.1078860E+02  0.2145990E+01 -0.2568960E-01  0.4510496E+00 -0.1658088E+01  0.3932286E-01  0.4493322E+00
  0.1052630E+02  0.3193130E+01 -0.2568960E-01  0.4743325E+00 -0.1663653E+01  0.4398186E-01  0.4722890E+00
  0.1016270E+02  0.4209520E+01 -0.2568960E-01  0.4947211E+00 -0.1669412E+01  0.4870797E-01  0.4923175E+00
  0.9701130E+01  0.5185360E+01 -0.2568960E-01  0.5114082E+00 -0.1675004E+01  0.5319623E-01  0.5086339E+00
  0.9146170E+01  0.6111270E+01 -0.2568960E-01  0.5251730E+00 -0.1680104E+01  0.5729110E-01  0.5220387E+00
  0.8503110E+01  0.6978330E+01 -0.2568960E-01  0.5357224E+00 -0.1684222E+01  0.6063456E-01  0.5322800E+00
  0.7778170E+01  0.7778170E+01 -0.2568960E-01  0.5431552E+00 -0.1687113E+01  0.6303574E-01  0.5394850E+00
  0.6978330E+01  0.8503110E+01 -0.2568960E-01  0.5465530E+00 -0.1688622E+01  0.6424914E-01  0.5427635E+00
  0.6111270E+01  0.9146170E+01 -0.2568960E-01  0.5468415E+00 -0.1688773E+01  0.6436518E-01  0.5430403E+00
  0.5185360E+01  0.9701130E+01 -0.2568960E-01  0.5438281E+00 -0.1687474E+01  0.6330878E-01  0.5401306E+00
  0.4209520E+01  0.1016270E+02 -0.2568960E-01  0.5377209E+00 -0.1684893E+01  0.6121926E-01  0.5342247E+00
  0.3193130E+01  0.1052630E+02 -0.2568960E-01  0.5276185E+00 -0.1681058E+01  0.5805808E-01  0.5244144E+00
  0.2145990E+01  0.1078860E+02 -0.2568960E-01  0.5144150E+00 -0.1676144E+01  0.5409206E-01  0.5115631E+00
  0.1078190E+01  0.1094700E+02 -0.2568960E-01  0.4980448E+00 -0.1670500E+01  0.4957460E-01  0.4955714E+00
 -0.4808250E-06  0.1100000E+02 -0.2568960E-01  0.4788258E+00 -0.1664706E+01  0.4490032E-01  0.4767160E+00
 -0.1078190E+01  0.1094700E+02 -0.2568960E-01  0.4560280E+00 -0.1659211E+01  0.4026696E-01  0.4542467E+00
 -0.2145990E+01  0.1078860E+02 -0.2568960E-01  0.4304361E+00 -0.1654468E+01  0.3597331E-01  0.4289303E+00
 -0.3193130E+01  0.1052630E+02 -0.2568960E-01  0.4021879E+00 -0.1651589E+01  0.3245839E-01  0.4008760E+00
 -0.4209520E+01  0.1016270E+02 -0.2568960E-01  0.3717724E+00 -0.1651964E+01  0.3014276E-01  0.3705484E+00
 -0.5185370E+01  0.9701130E+01 -0.2568960E-01  0.3388553E+00 -0.1657489E+01  0.2933964E-01  0.3375827E+00
 -0.6111270E+01  0.9146160E+01 -0.2568960E-01  0.3041166E+00 -0.1670248E+01  0.3019495E-01  0.3026139E+00
 -0.6978330E+01  0.8503120E+01 -0.2568960E-01  0.2681153E+00 -0.1694378E+01  0.3304994E-01  0.2660705E+00
 -0.7778170E+01  0.7778170E+01 -0.2568960E-01  0.2317377E+00 -0.1735764E+01  0.3805600E-01  0.2285916E+00
 -0.8503120E+01  0.6978330E+01 -0.2568960E-01  0.1956258E+00 -0.1805010E+01  0.4540049E-01  0.1902847E+00
 -0.9146170E+01  0.6111270E+01 -0.2568960E-01  0.1612023E+00 -0.1918732E+01  0.5496319E-01  0.1515428E+00
 -0.9701130E+01  0.5185360E+01 -0.2568960E-01  0.1312325E+00 -0.2104062E+01  0.6671185E-01  0.1130111E+00
 -0.1016270E+02  0.4209520E+01 -0.2568960E-01  0.1101394E+00 -0.2388754E+01  0.8037434E-01  0.7530375E-01
 -0.1052630E+02  0.3193130E+01 -0.2568960E-01  0.1034222E+00 -0.2755972E+01  0.9582742E-01  0.3890059E-01
 -0.1078860E+02  0.2145990E+01 -0.2568960E-01  0.1128070E+00 -0.3108057E+01  0.1127436E+00  0.3782331E-02
 -0.1094700E+02  0.1078190E+01 -0.2568960E-01  0.1339504E+00  0.2920049E+01  0.1306766E+00 -0.2943370E-01
 -0.1100000E+02 -0.9616510E-06 -0.2568960E-01  0.1608357E+00  0.2756633E+01  0.1490647E+00 -0.6039732E-01
 -0.1094700E+02 -0.1078190E+01 -0.2568960E-01  0.1893879E+00  0.2655835E+01  0.1674798E+00 -0.8842121E-01
 -0.1078860E+02 -0.2146000E+01 -0.2568960E-01  0.2178292E+00  0.2590816E+01  0.1856162E+00 -0.1140008E+00
 -0.1052630E+02 -0.3193130E+01 -0.2568960E-01  0.2446208E+00  0.2548535E+01  0.2028483E+00 -0.1367184E+00
 -0.1016270E+02 -0.4209520E+01 -0.2568960E-01  0.2688983E+00  0.2520267E+01  0.2186433E+00 -0.1565293E+00
 -0.9701130E+01 -0.5185360E+01 -0.2568960E-01  0.2895391E+00  0.2502800E+01  0.2324466E+00 -0.1726310E+00
 -0.9146160E+01 -0.6111270E+01 -0.2568960E-01  0.3068831E+00  0.2491029E+01  0.2441999E+00 -0.1858591E+00
 -0.8503110E+01 -0.6978330E+01 -0.2568960E-01  0.3203466E+00  0.2483362E+01  0.2534185E+00 -0.1959618E+00
 -0.7778170E+01 -0.7778180E+01 -0.2568960E-01  0.3298214E+00  0.2478289E+01  0.2598868E+00 -0.2030788E+00
 -0.6978330E+01 -0.8503110E+01 -0.2568960E-01  0.3343627E+00  0.2476690E+01  0.2631356E+00 -0.2062961E+00
 -0.6111270E+01 -0.9146170E+01 -0.2568960E-01  0.3347641E+00  0.2476605E+01  0.2634341E+00 -0.2065659E+00
 -0.5185360E+01 -0.9701130E+01 -0.2568960E-01  0.3308135E+00  0.2478248E+01  0.2606603E+00 -0.2037003E+00
 -0.4209510E+01 -0.1016270E+02 -0.2568960E-01  0.3227940E+00  0.2481659E+01  0.2550178E+00 -0.1978936E+00
 -0.3193130E+01 -0.1052630E+02 -0.2568960E-01  0.3099771E+00  0.2489116E+01  0.2463024E+00 -0.1882046E+00
 -0.2145990E+01 -0.1078860E+02 -0.2568960E-01  0.2933248E+00  0.2500110E+01  0.2350146E+00 -0.1755209E+00
 -0.1078190E+01 -0.1094700E+02 -0.2568960E-01  0.2730447E+00  0.2516716E+01  0.2214489E+00 -0.1597304E+00
  0.1311740E-06 -0.1100000E+02 -0.2568960E-01  0.2498116E+00  0.2541331E+01  0.2061416E+00 -0.1411082E+00
  0.1078190E+01 -0.1094700E+02 -0.2568960E-01  0.2234507E+00  0.2580675E+01  0.1892107E+00 -0.1188677E+00
  0.2145990E+01 -0.1078860E+02 -0.2568960E-01  0.1952142E+00  0.2640409E+01  0.1712056E+00 -0.9379343E-01
  0.3193140E+01 -0.1052630E+02 -0.2568960E-01  0.1663355E+00  0.2733706E+01  0.1526895E+00 -0.6598033E-01
  0.4209520E+01 -0.1016270E+02 -0.2568960E-01  0.1389936E+00  0.2880412E+01  0.1342797E+00 -0.3589116E-01
  0.5185360E+01 -0.9701130E+01 -0.2568960E-01  0.1163489E+00  0.3114761E+01  0.1163070E+00 -0.3121438E-02
  0.6111270E+01 -0.9146160E+01 -0.2568960E-01  0.1040854E+00 -0.2832389E+01  0.9914926E-01  0.3167323E-01
  0.6978330E+01 -0.8503110E+01 -0.2568960E-01  0.1076046E+00 -0.2456627E+01  0.8333339E-01  0.6807569E-01
  0.7778180E+01 -0.7778170E+01 -0.2568960E-01  0.1261439E+00 -0.2151784E+01  0.6923408E-01  0.1054464E+00
  0.8503120E+01 -0.6978320E+01 -0.2568960E-01  0.1546587E+00 -0.1949304E+01  0.5715172E-01  0.1437115E+00
  0.9146170E+01 -0.6111270E+01 -0.2568960E-01  0.1884414E+00 -0.1823650E+01  0.4714195E-01  0.1824494E+00
  0.9701130E+01 -0.5185360E+01 -0.2568960E-01  0.2245058E+00 -0.1747171E+01  0.3939220E-01  0.2210228E+00
  0.1016270E+02 -0.4209520E+01 -0.2568960E-01  0.2610134E+00 -0.1700840E+01  0.3384751E-01  0.2588095E+00
  0.1052630E+02 -0.3193130E+01 -0.2568960E-01  0.2969325E+00 -0.1673943E+01  0.3057335E-01  0.2953543E+00
  0.1078860E+02 -0.2145990E+01 -0.2568960E-01  0.3319418E+00 -0.1659292E+01  0.2933703E-01  0.3306429E+00
  0.1094700E+02 -0.1078180E+01 -0.2568960E-01  0.3652855E+00 -0.1652779E+01  0.2991362E-01  0.3640586E+00
  0.1100000E+02  0.0000000E+00 -0.1027320E+00  0.3949205E+00 -0.1651438E+01  0.3181275E-01  0.3936371E+00
  0.1094700E+02  0.1078190E+01 -0.1027320E+00  0.4233186E+00 -0.1653671E+01  0.3504232E-01  0.4218657E+00
  0.1078860E+02  0.2145990E+01 -0.1027320E+00  0.4493178E+00 -0.1658142E+01  0.3919615E-01  0.4476049E+00
  0.1052630E+02  0.3193130E+01 -0.1027320E+00  0.4724883E+00 -0.1663712E+01  0.4383834E-01  0.4704502E+00
  0.1016270E+02  0.4209520E+01 -0.1027320E+00  0.4927243E+00 -0.1669486E+01  0.4854807E-01  0.4903268E+00
  0.9701130E+01  0.5185360E+01 -0.1027320E+00  0.5094316E+00 -0.1675096E+01  0.5303708E-01  0.5066632E+00
  0.9146170E+01  0.6111270E+01 -0.1027320E+00  0.5231634E+00 -0.1680198E+01  0.5712102E-01  0.5200357E+00
  0.8503110E+01  0.6978330E+01 -0.1027320E+00  0.5336474E+00 -0.1684314E+01  0.6044826E-01  0.5302127E+00
  0.7778170E+01  0.7778170E+01 -0.1027320E+00  0.5409625E+00 -0.1687194E+01  0.6282474E-01  0.5373020E+00
  0.6978330E+01  0.8503110E+01 -0.1027320E+00  0.5444396E+00 -0.1688724E+01  0.6405565E-01  0.5406582E+00
  0.6111270E+01  0.9146170E+01 -0.1027320E+00  0.5447505E+00 -0.1688879E+01  0.6417625E-01  0.5409570E+00
  0.5185360E+01  0.9701130E+01 -0.1027320E+00  0.5417249E+00 -0.1687576E+01  0.6311859E-01  0.5380353E+00
  0.4209520E+01  0.1016270E+02 -0.1027320E+00  0.5355518E+00 -0.1684973E+01  0.6101491E-01  0.5320647E+00
  0.3193130E+01  0.1052630E+02 -0.1027320E+00  0.5255744E+00 -0.1681144E+01  0.5787849E-01  0.5223778E+00
  0.2145990E+01  0.1078860E+02 -0.1027320E+00  0.5124455E+00 -0.1676232E+01  0.5393020E-01  0.5095998E+00
  0.1078190E+01  0.1094700E+02 -0.1027320E+00  0.4961195E+00 -0.1670586E+01  0.4942562E-01  0.4936513E+00
 -0.4808250E-06  0.1100000E+02 -0.1027320E+00  0.4768932E+00 -0.1664779E+01  0.4475367E-01  0.4747886E+00
 -0.1078190E+01  0.1094700E+02 -0.1027320E+00  0.4542527E+00 -0.1659261E+01  0.4013287E-01  0.4524764E+00
 -0.2145990E+01  0.1078860E+02 -0.1027320E+00  0.4287788E+00 -0.1654511E+01  0.3585319E-01  0.4272772E+00
 -0.3193130E+01  0.1052630E+02 -0.1027320E+00  0.4006296E+00 -0.1651634E+01  0.3235088E-01  0.3993213E+00
 -0.4209520E+01  0.1016270E+02 -0.1027320E+00  0.3702704E+00 -0.1652028E+01  0.3004466E-01  0.3690494E+00
 -0.5185370E+01  0.9701130E+01 -0.1027320E+00  0.3375176E+00 -0.1657488E+01  0.2922324E-01  0.3362502E+00
 -0.6111270E+01  0.9146160E+01 -0.1027320E+00  0.3029261E+00 -0.1670223E+01  0.3006923E-01  0.3014300E+00
 -0.6978330E+01  0.8503120E+01 -0.1027320E+00  0.2670611E+00 -0.1694360E+01  0.3291506E-01  0.2650250E+00
 -0.7778170E+01  0.7778170E+01 -0.1027320E+00  0.2307968E+00 -0.1735835E+01  0.3791782E-01  0.2276607E+00
 -0.8503120E+01  0.6978330E+01 -0.1027320E+00  0.1948191E+00 -0.1804998E+01  0.4521095E-01  0.1895006E+00
 -0.9146170E+01  0.6111270E+01 -0.1027320E+00  0.1605309E+00 -0.1918706E+01  0.5473029E-01  0.1509131E+00
 -0.9701130E+01  0.5185360E+01 -0.1027320E+00  0.1306842E+00 -0.2104087E+01  0.6643586E-01  0.1125373E+00
 -0.1016270E+02  0.4209520E+01 -0.1027320E+00  0.1096963E+00 -0.2388949E+01  0.8006560E-01  0.7498518E-01
 -0.1052630E+02  0.3193130E+01 -0.1027320E+00  0.1029906E+00 -0.2756551E+01  0.9544992E-01  0.3868306E-01
 -0.1078860E+02  0.2145990E+01 -0.1027320E+00  0.1123588E+00 -0.3108702E+01  0.1122981E+00  0.3694916E-02
 -0.1094700E+02  0.1078190E+01 -0.1027320E+00  0.1334357E+00  0.2919621E+01  0.1301619E+00 -0.2937628E-01
 -0.1100000E+02 -0.9616510E-06 -0.1027320E+00  0.1602150E+00  0.2756583E+01  0.1484864E+00 -0.6017156E-01
 -0.1094700E+02 -0.1078190E+01 -0.1027320E+00  0.1887029E+00  0.2655508E+01  0.1668452E+00 -0.8815596E-01
 -0.1078860E+02 -0.2146000E+01 -0.1027320E+00  0.2170479E+00  0.2590499E+01  0.1849146E+00 -0.1136504E+00
 -0.1052630E+02 -0.3193130E+01 -0.1027320E+00  0.2437219E+00  0.2548331E+01  0.2020750E+00 -0.1362572E+00
 -0.1016270E+02 -0.4209520E+01 -0.1027320E+00  0.2678505E+00  0.2520286E+01  0.2177942E+00 -0.1559152E+00
 -0.9701130E+01 -0.5185360E+01 -0.1027320E+00  0.2884907E+00  0.2502650E+01  0.2315793E+00 -0.1720405E+00
 -0.9146160E+01 -0.6111270E+01 -0.1027320E+00  0.3057865E+00  0.2490856E+01  0.2432953E+00 -0.1852371E+00
 -0.8503110E+01 -0.6978330E+01 -0.1027320E+00  0.3191756E+00  0.2483243E+01  0.2524688E+00 -0.1952756E+00
 -0.7778170E+01 -0.7778180E+01 -0.1027320E+00  0.3285313E+00  0.2478325E+01  0.2588776E+00 -0.2022751E+00
 -0.6978330E+01 -0.8503110E+01 -0.1027320E+00  0.3331447E+00  0.2476585E+01  0.2621555E+00 -0.2055720E+00
 -0.6111270E+01 -0.9146170E+01 -0.1027320E+00  0.3335669E+00  0.2476462E+01  0.2624626E+00 -0.2058647E+00
 -0.5185360E+01 -0.9701130E+01 -0.1027320E+00  0.3296095E+00  0.2478141E+01  0.2596899E+00 -0.2029867E+00
 -0.4209510E+01 -0.1016270E+02 -0.1027320E+00  0.3215319E+00  0.2481692E+01  0.2540273E+00 -0.1971114E+00
 -0.3193130E+01 -0.1052630E+02 -0.1027320E+00  0.3088433E+00  0.2488986E+01  0.2453771E+00 -0.1875481E+00
 -0.2145990E+01 -0.1078860E+02 -0.1027320E+00  0.2922767E+00  0.2499920E+01  0.2341416E+00 -0.1749382E+00
 -0.1078190E+01 -0.1094700E+02 -0.1027320E+00  0.2720573E+00  0.2516548E+01  0.2206214E+00 -0.1591898E+00
  0.1311740E-06 -0.1100000E+02 -0.1027320E+00  0.2488395E+00  0.2541343E+01  0.2053410E+00 -0.1405567E+00
  0.1078190E+01 -0.1094700E+02 -0.1027320E+00  0.2226272E+00  0.2580439E+01  0.1884855E+00 -0.1184740E+00
  0.2145990E+01 -0.1078860E+02 -0.1027320E+00  0.1945109E+00  0.2640038E+01  0.1705542E+00 -0.9351869E-01
  0.3193140E+01 -0.1052630E+02 -0.1027320E+00  0.1657301E+00  0.2733308E+01  0.1521076E+00 -0.6580078E-01
  0.4209520E+01 -0.1016270E+02 -0.1027320E+00  0.1384577E+00  0.2880328E+01  0.1337590E+00 -0.3576396E-01
  0.5185360E+01 -0.9701130E+01 -0.1027320E+00  0.1158882E+00  0.3114300E+01  0.1158450E+00 -0.3162554E-02
  0.6111270E+01 -0.9146160E+01 -0.1027320E+00  0.1036496E+00 -0.2832971E+01  0.9875252E-01  0.3148313E-01
  0.6978330E+01 -0.8503110E+01 -0.1027320E+00  0.1071408E+00 -0.2457033E+01  0.8300170E-01  0.6774855E-01
  0.7778180E+01 -0.7778170E+01 -0.1027320E+00  0.1256319E+00 -0.2151942E+01  0.6896962E-01  0.1050075E+00
  0.8503120E+01 -0.6978320E+01 -0.1027320E+00  0.1540241E+00 -0.1949279E+01  0.5691357E-01  0.1431232E+00
  0.9146170E+01 -0.6111270E+01 -0.1027320E+00  0.1876712E+00 -0.1823596E+01  0.4693942E-01  0.1817062E+00
