 VARIABLES="X" "Y" "Z" "abs(eta) (m)" "angle(phi) (rad)" "PRE1" "PRE2"
ZONE N=   3200 ,E =    3136 ,F=FEPOINT,ET=QUADRILATERAL
  0.1100000E+02  0.0000000E+00  0.0000000E+00  0.7111606E-06 -0.4541894E+00 -0.6390609E-06  0.3120104E-06
  0.1094700E+02  0.1078190E+01  0.0000000E+00  0.4990983E-01 -0.1461850E+01 -0.5426720E-02  0.4961392E-01
  0.1078860E+02  0.2145990E+01  0.0000000E+00  0.9974187E-01 -0.1462111E+01 -0.1081913E-01  0.9915335E-01
  0.1052630E+02  0.3193130E+01  0.0000000E+00  0.1482779E+00 -0.1462065E+01 -0.1609072E-01  0.1474023E+00
  0.1016270E+02  0.4209520E+01  0.0000000E+00  0.1950876E+00 -0.1461942E+01 -0.2119417E-01  0.1939330E+00
  0.9701130E+01  0.5185360E+01  0.0000000E+00  0.2404980E+00 -0.1461990E+01 -0.2611622E-01  0.2390758E+00
  0.9146170E+01  0.6111270E+01  0.0000000E+00  0.2840436E+00 -0.1462119E+01 -0.3080827E-01  0.2823678E+00
  0.8503110E+01  0.6978330E+01  0.0000000E+00  0.3238907E+00 -0.1462034E+01 -0.3515755E-01  0.3219769E+00
  0.7778170E+01  0.7778170E+01  0.0000000E+00  0.3604775E+00 -0.1461944E+01 -0.3916123E-01  0.3583440E+00
  0.6978330E+01  0.8503110E+01  0.0000000E+00  0.3944733E+00 -0.1462005E+01 -0.4283075E-01  0.3921412E+00
  0.6111270E+01  0.9146170E+01  0.0000000E+00  0.4251005E+00 -0.1462119E+01 -0.4610796E-01  0.4225926E+00
  0.5185360E+01  0.9701130E+01  0.0000000E+00  0.4501956E+00 -0.1462026E+01 -0.4887165E-01  0.4475351E+00
  0.4209520E+01  0.1016270E+02  0.0000000E+00  0.4709856E+00 -0.1461945E+01 -0.5116642E-01  0.4681981E+00
  0.3193130E+01  0.1052630E+02  0.0000000E+00  0.4883957E+00 -0.1462014E+01 -0.5302424E-01  0.4855088E+00
  0.2145990E+01  0.1078860E+02  0.0000000E+00  0.5014427E+00 -0.1462120E+01 -0.5438764E-01  0.4984845E+00
  0.1078190E+01  0.1094700E+02  0.0000000E+00  0.5079615E+00 -0.1462019E+01 -0.5514562E-01  0.5049593E+00
 -0.4808250E-06  0.1100000E+02  0.0000000E+00  0.5097914E+00 -0.1461945E+01 -0.5538209E-01  0.5067742E+00
 -0.1078190E+01  0.1094700E+02  0.0000000E+00  0.5079618E+00 -0.1462020E+01 -0.5514531E-01  0.5049596E+00
 -0.2145990E+01  0.1078860E+02  0.0000000E+00  0.5014423E+00 -0.1462119E+01 -0.5438819E-01  0.4984840E+00
 -0.3193130E+01  0.1052630E+02  0.0000000E+00  0.4883957E+00 -0.1462014E+01 -0.5302430E-01  0.4855088E+00
 -0.4209520E+01  0.1016270E+02  0.0000000E+00  0.4709857E+00 -0.1461945E+01 -0.5116636E-01  0.4681981E+00
 -0.5185370E+01  0.9701130E+01  0.0000000E+00  0.4501943E+00 -0.1462025E+01 -0.4887163E-01  0.4475338E+00
 -0.6111270E+01  0.9146160E+01  0.0000000E+00  0.4251005E+00 -0.1462119E+01 -0.4610791E-01  0.4225926E+00
 -0.6978330E+01  0.8503120E+01  0.0000000E+00  0.3944732E+00 -0.1462005E+01 -0.4283056E-01  0.3921411E+00
 -0.7778170E+01  0.7778170E+01  0.0000000E+00  0.3604777E+00 -0.1461944E+01 -0.3916127E-01  0.3583442E+00
 -0.8503120E+01  0.6978330E+01  0.0000000E+00  0.3238901E+00 -0.1462036E+01 -0.3515697E-01  0.3219764E+00
 -0.9146170E+01  0.6111270E+01  0.0000000E+00  0.2840436E+00 -0.1462119E+01 -0.3080848E-01  0.2823678E+00
 -0.9701130E+01  0.5185360E+01  0.0000000E+00  0.2404988E+00 -0.1461988E+01 -0.2611669E-01  0.2390765E+00
 -0.1016270E+02  0.4209520E+01  0.0000000E+00  0.1950881E+00 -0.1461941E+01 -0.2119438E-01  0.1939335E+00
 -0.1052630E+02  0.3193130E+01  0.0000000E+00  0.1482777E+00 -0.1462065E+01 -0.1609068E-01  0.1474020E+00
 -0.1078860E+02  0.2145990E+01  0.0000000E+00  0.9974229E-01 -0.1462111E+01 -0.1081924E-01  0.9915376E-01
 -0.1094700E+02  0.1078190E+01  0.0000000E+00  0.4990996E-01 -0.1461851E+01 -0.5426714E-02  0.4961406E-01
 -0.1100000E+02 -0.9616510E-06  0.0000000E+00  0.1091771E-05 -0.5862011E+00 -0.9094975E-06  0.6039679E-06
 -0.1094700E+02 -0.1078190E+01  0.0000000E+00  0.4990860E-01  0.1679709E+01  0.5424944E-02 -0.4961289E-01
 -0.1078860E+02 -0.2146000E+01  0.0000000E+00  0.9974101E-01  0.1679465E+01  0.1081743E-01 -0.9915267E-01
 -0.1052630E+02 -0.3193130E+01  0.0000000E+00  0.1482762E+00  0.1679518E+01  0.1608905E-01 -0.1474008E+00
 -0.1016270E+02 -0.4209520E+01  0.0000000E+00  0.1950866E+00  0.1679644E+01  0.2119285E-01 -0.1939321E+00
 -0.9701130E+01 -0.5185360E+01  0.0000000E+00  0.2404978E+00  0.1679598E+01  0.2611507E-01 -0.2390757E+00
 -0.9146160E+01 -0.6111270E+01  0.0000000E+00  0.2840430E+00  0.1679469E+01  0.3080698E-01 -0.2823674E+00
 -0.8503110E+01 -0.6978330E+01  0.0000000E+00  0.3238891E+00  0.1679553E+01  0.3515555E-01 -0.3219756E+00
 -0.7778170E+01 -0.7778180E+01  0.0000000E+00  0.3604765E+00  0.1679644E+01  0.3915960E-01 -0.3583432E+00
 -0.6978330E+01 -0.8503110E+01  0.0000000E+00  0.3944720E+00  0.1679583E+01  0.4282880E-01 -0.3921401E+00
 -0.6111270E+01 -0.9146170E+01  0.0000000E+00  0.4250991E+00  0.1679470E+01  0.4610619E-01 -0.4225914E+00
 -0.5185360E+01 -0.9701130E+01  0.0000000E+00  0.4501932E+00  0.1679564E+01  0.4886989E-01 -0.4475328E+00
 -0.4209510E+01 -0.1016270E+02  0.0000000E+00  0.4709841E+00  0.1679645E+01  0.5116484E-01 -0.4681968E+00
 -0.3193130E+01 -0.1052630E+02  0.0000000E+00  0.4883937E+00  0.1679576E+01  0.5302260E-01 -0.4855069E+00
 -0.2145990E+01 -0.1078860E+02  0.0000000E+00  0.5014413E+00  0.1679470E+01  0.5438627E-01 -0.4984832E+00
 -0.1078190E+01 -0.1094700E+02  0.0000000E+00  0.5079597E+00  0.1679571E+01  0.5514409E-01 -0.5049576E+00
  0.1311740E-06 -0.1100000E+02  0.0000000E+00  0.5097903E+00  0.1679645E+01  0.5538043E-01 -0.5067733E+00
  0.1078190E+01 -0.1094700E+02  0.0000000E+00  0.5079600E+00  0.1679570E+01  0.5514397E-01 -0.5049579E+00
  0.2145990E+01 -0.1078860E+02  0.0000000E+00  0.5014412E+00  0.1679470E+01  0.5438617E-01 -0.4984832E+00
  0.3193140E+01 -0.1052630E+02  0.0000000E+00  0.4883941E+00  0.1679576E+01  0.5302255E-01 -0.4855073E+00
  0.4209520E+01 -0.1016270E+02  0.0000000E+00  0.4709837E+00  0.1679645E+01  0.5116480E-01 -0.4681963E+00
  0.5185360E+01 -0.9701130E+01  0.0000000E+00  0.4501930E+00  0.1679563E+01  0.4886962E-01 -0.4475327E+00
  0.6111270E+01 -0.9146160E+01  0.0000000E+00  0.4250992E+00  0.1679470E+01  0.4610626E-01 -0.4225914E+00
  0.6978330E+01 -0.8503110E+01  0.0000000E+00  0.3944722E+00  0.1679584E+01  0.4282900E-01 -0.3921403E+00
  0.7778180E+01 -0.7778170E+01  0.0000000E+00  0.3604758E+00  0.1679644E+01  0.3915944E-01 -0.3583425E+00
  0.8503120E+01 -0.6978320E+01  0.0000000E+00  0.3238883E+00  0.1679554E+01  0.3515580E-01 -0.3219747E+00
  0.9146170E+01 -0.6111270E+01  0.0000000E+00  0.2840420E+00  0.1679469E+01  0.3080702E-01 -0.2823664E+00
  0.9701130E+01 -0.5185360E+01  0.0000000E+00  0.2404977E+00  0.1679598E+01  0.2611492E-01 -0.2390756E+00
  0.1016270E+02 -0.4209520E+01  0.0000000E+00  0.1950866E+00  0.1679643E+01  0.2119259E-01 -0.1939321E+00
  0.1052630E+02 -0.3193130E+01  0.0000000E+00  0.1482762E+00  0.1679518E+01  0.1608912E-01 -0.1474007E+00
  0.1078860E+02 -0.2145990E+01  0.0000000E+00  0.9974089E-01  0.1679467E+01  0.1081761E-01 -0.9915254E-01
  0.1094700E+02 -0.1078180E+01  0.0000000E+00  0.4990846E-01  0.1679711E+01  0.5425048E-02 -0.4961273E-01
  0.1100000E+02  0.0000000E+00 -0.2568960E-01  0.9187784E-06 -0.6937855E+00 -0.7063852E-06  0.5875148E-06
  0.1094700E+02  0.1078190E+01 -0.2568960E-01  0.4986780E-01 -0.1461856E+01 -0.5421897E-02  0.4957217E-01
  0.1078860E+02  0.2145990E+01 -0.2568960E-01  0.9964573E-01 -0.1462109E+01 -0.1080888E-01  0.9905776E-01
  0.1052630E+02  0.3193130E+01 -0.2568960E-01  0.1481403E+00 -0.1462063E+01 -0.1607602E-01  0.1472654E+00
  0.1016270E+02  0.4209520E+01 -0.2568960E-01  0.1949207E+00 -0.1461947E+01 -0.2117508E-01  0.1937671E+00
  0.9701130E+01  0.5185360E+01 -0.2568960E-01  0.2402833E+00 -0.1461991E+01 -0.2609266E-01  0.2388624E+00
  0.9146170E+01  0.6111270E+01 -0.2568960E-01  0.2837690E+00 -0.1462115E+01 -0.3077969E-01  0.2820948E+00
  0.8503110E+01  0.6978330E+01 -0.2568960E-01  0.3235945E+00 -0.1462036E+01 -0.3512502E-01  0.3216825E+00
  0.7778170E+01  0.7778170E+01 -0.2568960E-01  0.3601698E+00 -0.1461949E+01 -0.3912627E-01  0.3580383E+00
  0.6978330E+01  0.8503110E+01 -0.2568960E-01  0.3941181E+00 -0.1462006E+01 -0.4279174E-01  0.3917881E+00
  0.6111270E+01  0.9146170E+01 -0.2568960E-01  0.4246905E+00 -0.1462116E+01 -0.4606454E-01  0.4221849E+00
  0.5185360E+01  0.9701130E+01 -0.2568960E-01  0.4497842E+00 -0.1462026E+01 -0.4882685E-01  0.4471262E+00
  0.4209520E+01  0.1016270E+02 -0.2568960E-01  0.4705825E+00 -0.1461948E+01 -0.5112113E-01  0.4677976E+00
  0.3193130E+01  0.1052630E+02 -0.2568960E-01  0.4879548E+00 -0.1462014E+01 -0.5297603E-01  0.4850705E+00
  0.2145990E+01  0.1078860E+02 -0.2568960E-01  0.5009590E+00 -0.1462117E+01 -0.5433685E-01  0.4980035E+00
  0.1078190E+01  0.1094700E+02 -0.2568960E-01  0.5075021E+00 -0.1462021E+01 -0.5509498E-01  0.5045027E+00
 -0.4808250E-06  0.1100000E+02 -0.2568960E-01  0.5093556E+00 -0.1461949E+01 -0.5533276E-01  0.5063412E+00
 -0.1078190E+01  0.1094700E+02 -0.2568960E-01  0.5075019E+00 -0.1462020E+01 -0.5509517E-01  0.5045024E+00
 -0.2145990E+01  0.1078860E+02 -0.2568960E-01  0.5009586E+00 -0.1462117E+01 -0.5433674E-01  0.4980031E+00
 -0.3193130E+01  0.1052630E+02 -0.2568960E-01  0.4879547E+00 -0.1462014E+01 -0.5297608E-01  0.4850705E+00
 -0.4209520E+01  0.1016270E+02 -0.2568960E-01  0.4705827E+00 -0.1461949E+01 -0.5112053E-01  0.4677978E+00
 -0.5185370E+01  0.9701130E+01 -0.2568960E-01  0.4497847E+00 -0.1462026E+01 -0.4882688E-01  0.4471266E+00
 -0.6111270E+01  0.9146160E+01 -0.2568960E-01  0.4246911E+00 -0.1462116E+01 -0.4606482E-01  0.4221855E+00
 -0.6978330E+01  0.8503120E+01 -0.2568960E-01  0.3941180E+00 -0.1462006E+01 -0.4279159E-01  0.3917880E+00
 -0.7778170E+01  0.7778170E+01 -0.2568960E-01  0.3601702E+00 -0.1461948E+01 -0.3912644E-01  0.3580387E+00
 -0.8503120E+01  0.6978330E+01 -0.2568960E-01  0.3235949E+00 -0.1462036E+01 -0.3512507E-01  0.3216829E+00
 -0.9146170E+01  0.6111270E+01 -0.2568960E-01  0.2837695E+00 -0.1462117E+01 -0.3077924E-01  0.2820953E+00
 -0.9701130E+01  0.5185360E+01 -0.2568960E-01  0.2402840E+00 -0.1461990E+01 -0.2609288E-01  0.2388630E+00
 -0.1016270E+02  0.4209520E+01 -0.2568960E-01  0.1949212E+00 -0.1461945E+01 -0.2117556E-01  0.1937676E+00
 -0.1052630E+02  0.3193130E+01 -0.2568960E-01  0.1481408E+00 -0.1462062E+01 -0.1607623E-01  0.1472659E+00
 -0.1078860E+02  0.2145990E+01 -0.2568960E-01  0.9964607E-01 -0.1462110E+01 -0.1080887E-01  0.9905810E-01
 -0.1094700E+02  0.1078190E+01 -0.2568960E-01  0.4986815E-01 -0.1461855E+01 -0.5421976E-02  0.4957252E-01
 -0.1100000E+02 -0.9616510E-06 -0.2568960E-01  0.1239142E-05 -0.5508602E+00 -0.1055841E-05  0.6485919E-06
 -0.1094700E+02 -0.1078190E+01 -0.2568960E-01  0.4986659E-01  0.1679710E+01  0.5420401E-02 -0.4957112E-01
 -0.1078860E+02 -0.2146000E+01 -0.2568960E-01  0.9964485E-01  0.1679466E+01  0.1080713E-01 -0.9905706E-01
 -0.1052630E+02 -0.3193130E+01 -0.2568960E-01  0.1481388E+00  0.1679520E+01  0.1607448E-01 -0.1472641E+00
 -0.1016270E+02 -0.4209520E+01 -0.2568960E-01  0.1949198E+00  0.1679640E+01  0.2117390E-01 -0.1937664E+00
 -0.9701130E+01 -0.5185360E+01 -0.2568960E-01  0.2402825E+00  0.1679597E+01  0.2609132E-01 -0.2388617E+00
 -0.9146160E+01 -0.6111270E+01 -0.2568960E-01  0.2837685E+00  0.1679471E+01  0.3077778E-01 -0.2820945E+00
 -0.8503110E+01 -0.6978330E+01 -0.2568960E-01  0.3235933E+00  0.1679553E+01  0.3512362E-01 -0.3216814E+00
 -0.7778170E+01 -0.7778180E+01 -0.2568960E-01  0.3601680E+00  0.1679640E+01  0.3912478E-01 -0.3580366E+00
 -0.6978330E+01 -0.8503110E+01 -0.2568960E-01  0.3941167E+00  0.1679582E+01  0.4278985E-01 -0.3917869E+00
 -0.6111270E+01 -0.9146170E+01 -0.2568960E-01  0.4246891E+00  0.1679473E+01  0.4606289E-01 -0.4221836E+00
 -0.5185360E+01 -0.9701130E+01 -0.2568960E-01  0.4497837E+00  0.1679564E+01  0.4882530E-01 -0.4471258E+00
 -0.4209510E+01 -0.1016270E+02 -0.2568960E-01  0.4705812E+00  0.1679641E+01  0.5111931E-01 -0.4677964E+00
 -0.3193130E+01 -0.1052630E+02 -0.2568960E-01  0.4879529E+00  0.1679575E+01  0.5297405E-01 -0.4850688E+00
 -0.2145990E+01 -0.1078860E+02 -0.2568960E-01  0.5009574E+00  0.1679473E+01  0.5433506E-01 -0.4980020E+00
 -0.1078190E+01 -0.1094700E+02 -0.2568960E-01  0.5074995E+00  0.1679569E+01  0.5509352E-01 -0.5045002E+00
  0.1311740E-06 -0.1100000E+02 -0.2568960E-01  0.5093542E+00  0.1679641E+01  0.5533106E-01 -0.5063400E+00
  0.1078190E+01 -0.1094700E+02 -0.2568960E-01  0.5074992E+00  0.1679569E+01  0.5509341E-01 -0.5044999E+00
  0.2145990E+01 -0.1078860E+02 -0.2568960E-01  0.5009573E+00  0.1679473E+01  0.5433502E-01 -0.4980019E+00
  0.3193140E+01 -0.1052630E+02 -0.2568960E-01  0.4879526E+00  0.1679575E+01  0.5297422E-01 -0.4850685E+00
  0.4209520E+01 -0.1016270E+02 -0.2568960E-01  0.4705814E+00  0.1679641E+01  0.5111934E-01 -0.4677966E+00
  0.5185360E+01 -0.9701130E+01 -0.2568960E-01  0.4497837E+00  0.1679563E+01  0.4882510E-01 -0.4471258E+00
  0.6111270E+01 -0.9146160E+01 -0.2568960E-01  0.4246893E+00  0.1679472E+01  0.4606267E-01 -0.4221839E+00
  0.6978330E+01 -0.8503110E+01 -0.2568960E-01  0.3941170E+00  0.1679582E+01  0.4278993E-01 -0.3917872E+00
  0.7778180E+01 -0.7778170E+01 -0.2568960E-01  0.3601677E+00  0.1679640E+01  0.3912453E-01 -0.3580364E+00
  0.8503120E+01 -0.6978320E+01 -0.2568960E-01  0.3235926E+00  0.1679552E+01  0.3512329E-01 -0.3216808E+00
  0.9146170E+01 -0.6111270E+01 -0.2568960E-01  0.2837681E+00  0.1679472E+01  0.3077803E-01 -0.2820941E+00
  0.9701130E+01 -0.5185360E+01 -0.2568960E-01  0.2402828E+00  0.1679597E+01  0.2609128E-01 -0.2388620E+00
  0.1016270E+02 -0.4209520E+01 -0.2568960E-01  0.1949199E+00  0.1679638E+01  0.2117345E-01 -0.1937665E+00
  0.1052630E+02 -0.3193130E+01 -0.2568960E-01  0.1481391E+00  0.1679519E+01  0.1607435E-01 -0.1472644E+00
  0.1078860E+02 -0.2145990E+01 -0.2568960E-01  0.9964459E-01  0.1679469E+01  0.1080736E-01 -0.9905678E-01
  0.1094700E+02 -0.1078180E+01 -0.2568960E-01  0.4986636E-01  0.1679705E+01  0.5420153E-02 -0.4957092E-01
  0.1100000E+02  0.0000000E+00 -0.1027320E+00  0.8969071E-06 -0.3943431E+00 -0.8280687E-06  0.3445933E-06
  0.1094700E+02  0.1078190E+01 -0.1027320E+00  0.4973824E-01 -0.1461864E+01 -0.5407367E-02  0.4944343E-01
  0.1078860E+02  0.2145990E+01 -0.1027320E+00  0.9935531E-01 -0.1462102E+01 -0.1077806E-01  0.9876898E-01
  0.1052630E+02  0.3193130E+01 -0.1027320E+00  0.1477238E+00 -0.1462060E+01 -0.1603127E-01  0.1468514E+00
  0.1016270E+02  0.4209520E+01 -0.1027320E+00  0.1944083E+00 -0.1461954E+01 -0.2111819E-01  0.1932579E+00
  0.9701130E+01  0.5185360E+01 -0.1027320E+00  0.2396278E+00 -0.1461993E+01 -0.2602093E-01  0.2382108E+00
  0.9146170E+01  0.6111270E+01 -0.1027320E+00  0.2829430E+00 -0.1462106E+01 -0.3069259E-01  0.2812733E+00
  0.8503110E+01  0.6978330E+01 -0.1027320E+00  0.3226960E+00 -0.1462034E+01 -0.3502806E-01  0.3207892E+00
  0.7778170E+01  0.7778170E+01 -0.1027320E+00  0.3592230E+00 -0.1461956E+01 -0.3902065E-01  0.3570974E+00
  0.6978330E+01  0.8503110E+01 -0.1027320E+00  0.3930375E+00 -0.1462008E+01 -0.4267345E-01  0.3907140E+00
  0.6111270E+01  0.9146170E+01 -0.1027320E+00  0.4234548E+00 -0.1462107E+01 -0.4593433E-01  0.4209560E+00
  0.5185360E+01  0.9701130E+01 -0.1027320E+00  0.4485413E+00 -0.1462026E+01 -0.4869179E-01  0.4458906E+00
  0.4209520E+01  0.1016270E+02 -0.1027320E+00  0.4693459E+00 -0.1461956E+01 -0.5098310E-01  0.4665686E+00
  0.3193130E+01  0.1052630E+02 -0.1027320E+00  0.4866121E+00 -0.1462016E+01 -0.5282939E-01  0.4837359E+00
  0.2145990E+01  0.1078860E+02 -0.1027320E+00  0.4995019E+00 -0.1462108E+01 -0.5418313E-01  0.4965544E+00
  0.1078190E+01  0.1094700E+02 -0.1027320E+00  0.5061015E+00 -0.1462021E+01 -0.5494263E-01  0.5031104E+00
 -0.4808250E-06  0.1100000E+02 -0.1027320E+00  0.5080165E+00 -0.1461957E+01 -0.5518301E-01  0.5050105E+00
 -0.1078190E+01  0.1094700E+02 -0.1027320E+00  0.5061010E+00 -0.1462020E+01 -0.5494314E-01  0.5031098E+00
 -0.2145990E+01  0.1078860E+02 -0.1027320E+00  0.4995016E+00 -0.1462108E+01 -0.5418343E-01  0.4965542E+00
 -0.3193130E+01  0.1052630E+02 -0.1027320E+00  0.4866121E+00 -0.1462015E+01 -0.5282996E-01  0.4837359E+00
 -0.4209520E+01  0.1016270E+02 -0.1027320E+00  0.4693459E+00 -0.1461957E+01 -0.5098268E-01  0.4665686E+00
 -0.5185370E+01  0.9701130E+01 -0.1027320E+00  0.4485416E+00 -0.1462027E+01 -0.4869130E-01  0.4458910E+00
 -0.6111270E+01  0.9146160E+01 -0.1027320E+00  0.4234546E+00 -0.1462108E+01 -0.4593412E-01  0.4209558E+00
 -0.6978330E+01  0.8503120E+01 -0.1027320E+00  0.3930375E+00 -0.1462008E+01 -0.4267375E-01  0.3907140E+00
 -0.7778170E+01  0.7778170E+01 -0.1027320E+00  0.3592228E+00 -0.1461957E+01 -0.3902052E-01  0.3570972E+00
 -0.8503120E+01  0.6978330E+01 -0.1027320E+00  0.3226957E+00 -0.1462034E+01 -0.3502796E-01  0.3207889E+00
 -0.9146170E+01  0.6111270E+01 -0.1027320E+00  0.2829433E+00 -0.1462107E+01 -0.3069244E-01  0.2812737E+00
 -0.9701130E+01  0.5185360E+01 -0.1027320E+00  0.2396286E+00 -0.1461991E+01 -0.2602142E-01  0.2382116E+00
 -0.1016270E+02  0.4209520E+01 -0.1027320E+00  0.1944092E+00 -0.1461954E+01 -0.2111829E-01  0.1932588E+00
 -0.1052630E+02  0.3193130E+01 -0.1027320E+00  0.1477245E+00 -0.1462061E+01 -0.1603123E-01  0.1468521E+00
 -0.1078860E+02  0.2145990E+01 -0.1027320E+00  0.9935590E-01 -0.1462102E+01 -0.1077818E-01  0.9876956E-01
 -0.1094700E+02  0.1078190E+01 -0.1027320E+00  0.4973841E-01 -0.1461862E+01 -0.5407512E-02  0.4944359E-01
 -0.1100000E+02 -0.9616510E-06 -0.1027320E+00  0.9819784E-06 -0.5919827E+00 -0.8148809E-06  0.5479512E-06
 -0.1094700E+02 -0.1078190E+01 -0.1027320E+00  0.4973696E-01  0.1679696E+01  0.5405637E-02 -0.4944233E-01
 -0.1078860E+02 -0.2146000E+01 -0.1027320E+00  0.9935483E-01  0.1679475E+01  0.1077652E-01 -0.9876867E-01
 -0.1052630E+02 -0.3193130E+01 -0.1027320E+00  0.1477230E+00  0.1679522E+01  0.1602972E-01 -0.1468507E+00
 -0.1016270E+02 -0.4209520E+01 -0.1027320E+00  0.1944072E+00  0.1679631E+01  0.2111658E-01 -0.1932570E+00
 -0.9701130E+01 -0.5185360E+01 -0.1027320E+00  0.2396270E+00  0.1679594E+01  0.2601947E-01 -0.2382102E+00
 -0.9146160E+01 -0.6111270E+01 -0.1027320E+00  0.2829430E+00  0.1679481E+01  0.3069096E-01 -0.2812736E+00
 -0.8503110E+01 -0.6978330E+01 -0.1027320E+00  0.3226948E+00  0.1679554E+01  0.3502631E-01 -0.3207882E+00
 -0.7778170E+01 -0.7778180E+01 -0.1027320E+00  0.3592215E+00  0.1679632E+01  0.3901896E-01 -0.3570961E+00
 -0.6978330E+01 -0.8503110E+01 -0.1027320E+00  0.3930355E+00  0.1679581E+01  0.4267192E-01 -0.3907122E+00
 -0.6111270E+01 -0.9146170E+01 -0.1027320E+00  0.4234527E+00  0.1679482E+01  0.4593268E-01 -0.4209542E+00
 -0.5185360E+01 -0.9701130E+01 -0.1027320E+00  0.4485396E+00  0.1679563E+01  0.4868996E-01 -0.4458890E+00
 -0.4209510E+01 -0.1016270E+02 -0.1027320E+00  0.4693443E+00  0.1679633E+01  0.5098087E-01 -0.4665673E+00
 -0.3193130E+01 -0.1052630E+02 -0.1027320E+00  0.4866099E+00  0.1679574E+01  0.5282813E-01 -0.4837338E+00
 -0.2145990E+01 -0.1078860E+02 -0.1027320E+00  0.4994995E+00  0.1679482E+01  0.5418152E-01 -0.4965523E+00
 -0.1078190E+01 -0.1094700E+02 -0.1027320E+00  0.5060998E+00  0.1679569E+01  0.5494111E-01 -0.5031088E+00
  0.1311740E-06 -0.1100000E+02 -0.1027320E+00  0.5080150E+00  0.1679633E+01  0.5518167E-01 -0.5050092E+00
  0.1078190E+01 -0.1094700E+02 -0.1027320E+00  0.5060990E+00  0.1679569E+01  0.5494111E-01 -0.5031081E+00
  0.2145990E+01 -0.1078860E+02 -0.1027320E+00  0.4994994E+00  0.1679482E+01  0.5418140E-01 -0.4965522E+00
  0.3193140E+01 -0.1052630E+02 -0.1027320E+00  0.4866093E+00  0.1679574E+01  0.5282798E-01 -0.4837332E+00
  0.4209520E+01 -0.1016270E+02 -0.1027320E+00  0.4693438E+00  0.1679633E+01  0.5098091E-01 -0.4665667E+00
  0.5185360E+01 -0.9701130E+01 -0.1027320E+00  0.4485399E+00  0.1679563E+01  0.4869008E-01 -0.4458894E+00
  0.6111270E+01 -0.9146160E+01 -0.1027320E+00  0.4234532E+00  0.1679482E+01  0.4593267E-01 -0.4209546E+00
  0.6978330E+01 -0.8503110E+01 -0.1027320E+00  0.3930354E+00  0.1679581E+01  0.4267210E-01 -0.3907120E+00
  0.7778180E+01 -0.7778170E+01 -0.1027320E+00  0.3592205E+00  0.1679632E+01  0.3901892E-01 -0.3570951E+00
  0.8503120E+01 -0.6978320E+01 -0.1027320E+00  0.3226941E+00  0.1679553E+01  0.3502611E-01 -0.3207875E+00
  0.9146170E+01 -0.6111270E+01 -0.1027320E+00  0.2829422E+00  0.1679481E+01  0.3069100E-01 -0.2812727E+00
