 VARIABLES="X" "Y" "Z" "abs(eta) (m)" "angle(phi) (rad)" "PRE1" "PRE2"
ZONE N=   3200 ,E =    3136 ,F=FEPOINT,ET=QUADRILATERAL
  0.1010000E+02  0.0000000E+00  0.0000000E+00  0.2091011E+00  0.2258972E+01  0.1328061E+00 -0.1615109E+00
  0.1005140E+02  0.9899730E+00  0.0000000E+00  0.2208598E+00  0.2247749E+01  0.1383511E+00 -0.1721570E+00
  0.9905930E+01  0.1970410E+01  0.0000000E+00  0.2301836E+00  0.2240631E+01  0.1429109E+00 -0.1804466E+00
  0.9665100E+01  0.2931880E+01  0.0000000E+00  0.2371792E+00  0.2235295E+01  0.1462600E+00 -0.1867137E+00
  0.9331180E+01  0.3865100E+01  0.0000000E+00  0.2411714E+00  0.2232296E+01  0.1481517E+00 -0.1903016E+00
  0.8907400E+01  0.4761110E+01  0.0000000E+00  0.2418176E+00  0.2232247E+01  0.1485395E+00 -0.1908188E+00
  0.8397840E+01  0.5611260E+01  0.0000000E+00  0.2394875E+00  0.2234111E+01  0.1474601E+00 -0.1887055E+00
  0.7807410E+01  0.6407370E+01  0.0000000E+00  0.2347167E+00  0.2236856E+01  0.1450296E+00 -0.1845490E+00
  0.7141780E+01  0.7141780E+01  0.0000000E+00  0.2272124E+00  0.2242179E+01  0.1413419E+00 -0.1778988E+00
  0.6407370E+01  0.7807410E+01  0.0000000E+00  0.2165852E+00  0.2251926E+01  0.1363775E+00 -0.1682567E+00
  0.5611260E+01  0.8397840E+01  0.0000000E+00  0.2031380E+00  0.2266476E+01  0.1301926E+00 -0.1559324E+00
  0.4761110E+01  0.8907410E+01  0.0000000E+00  0.1877404E+00  0.2286545E+01  0.1231920E+00 -0.1416694E+00
  0.3865100E+01  0.9331180E+01  0.0000000E+00  0.1706152E+00  0.2316427E+01  0.1157514E+00 -0.1253442E+00
  0.2931870E+01  0.9665100E+01  0.0000000E+00  0.1515690E+00  0.2362867E+01  0.1078882E+00 -0.1064579E+00
  0.1970410E+01  0.9905930E+01  0.0000000E+00  0.1310730E+00  0.2434560E+01  0.9965391E-01 -0.8514246E-01
  0.9899730E+00  0.1005140E+02  0.0000000E+00  0.1107275E+00  0.2544158E+01  0.9154745E-01 -0.6228685E-01
 -0.4414850E-06  0.1010000E+02  0.0000000E+00  0.9227759E-01  0.2714899E+01  0.8400391E-01 -0.3819026E-01
 -0.9899740E+00  0.1005140E+02  0.0000000E+00  0.7806197E-01  0.2981510E+01  0.7706388E-01 -0.1244303E-01
 -0.1970410E+01  0.9905930E+01  0.0000000E+00  0.7232323E-01 -0.2932946E+01  0.7075470E-01  0.1498073E-01
 -0.2931880E+01  0.9665100E+01  0.0000000E+00  0.7835343E-01 -0.2558395E+01  0.6540207E-01  0.4314893E-01
 -0.3865100E+01  0.9331180E+01  0.0000000E+00  0.9403184E-01 -0.2280087E+01  0.6124251E-01  0.7135364E-01
 -0.4761110E+01  0.8907400E+01  0.0000000E+00  0.1156337E+00 -0.2099306E+01  0.5830796E-01  0.9985661E-01
 -0.5611260E+01  0.8397840E+01  0.0000000E+00  0.1407322E+00 -0.1984594E+01  0.5658689E-01  0.1288545E+00
 -0.6407370E+01  0.7807410E+01  0.0000000E+00  0.1672018E+00 -0.1912711E+01  0.5606133E-01  0.1575232E+00
 -0.7141780E+01  0.7141780E+01  0.0000000E+00  0.1934327E+00 -0.1867908E+01  0.5662926E-01  0.1849576E+00
 -0.7807410E+01  0.6407370E+01  0.0000000E+00  0.2191445E+00 -0.1840060E+01  0.5829716E-01  0.2112481E+00
 -0.8397840E+01  0.5611260E+01  0.0000000E+00  0.2444815E+00 -0.1823052E+01  0.6101984E-01  0.2367442E+00
 -0.8907410E+01  0.4761110E+01  0.0000000E+00  0.2688217E+00 -0.1813007E+01  0.6447668E-01  0.2609749E+00
 -0.9331180E+01  0.3865100E+01  0.0000000E+00  0.2911402E+00 -0.1807624E+01  0.6830738E-01  0.2830136E+00
 -0.9665100E+01  0.2931880E+01  0.0000000E+00  0.3113537E+00 -0.1805798E+01  0.7249691E-01  0.3027958E+00
 -0.9905930E+01  0.1970410E+01  0.0000000E+00  0.3299044E+00 -0.1806367E+01  0.7699888E-01  0.3207929E+00
 -0.1005140E+02  0.9899730E+00  0.0000000E+00  0.3466520E+00 -0.1807848E+01  0.8140711E-01  0.3369577E+00
 -0.1010000E+02 -0.8829700E-06  0.0000000E+00  0.3607349E+00 -0.1809629E+01  0.8533853E-01  0.3504954E+00
 -0.1005140E+02 -0.9899740E+00  0.0000000E+00  0.3719081E+00 -0.1811813E+01  0.8877078E-01  0.3611584E+00
 -0.9905930E+01 -0.1970410E+01  0.0000000E+00  0.3806683E+00 -0.1814031E+01  0.9168126E-01  0.3694630E+00
 -0.9665100E+01 -0.2931880E+01  0.0000000E+00  0.3872777E+00 -0.1815521E+01  0.9383316E-01  0.3757384E+00
 -0.9331180E+01 -0.3865100E+01  0.0000000E+00  0.3910577E+00 -0.1816292E+01  0.9504154E-01  0.3793326E+00
 -0.8907400E+01 -0.4761110E+01  0.0000000E+00  0.3916221E+00 -0.1816603E+01  0.9529689E-01  0.3798504E+00
 -0.8397840E+01 -0.5611260E+01  0.0000000E+00  0.3894015E+00 -0.1816192E+01  0.9460124E-01  0.3777355E+00
 -0.7807400E+01 -0.6407370E+01  0.0000000E+00  0.3849775E+00 -0.1814836E+01  0.9301989E-01  0.3735706E+00
 -0.7141780E+01 -0.7141780E+01  0.0000000E+00  0.3779472E+00 -0.1813074E+01  0.9067494E-01  0.3669089E+00
 -0.6407370E+01 -0.7807410E+01  0.0000000E+00  0.3678300E+00 -0.1811202E+01  0.8757907E-01  0.3572517E+00
 -0.5611260E+01 -0.8397850E+01  0.0000000E+00  0.3549325E+00 -0.1809007E+01  0.8375126E-01  0.3449099E+00
 -0.4761110E+01 -0.8907410E+01  0.0000000E+00  0.3400533E+00 -0.1806820E+01  0.7951742E-01  0.3306255E+00
 -0.3865100E+01 -0.9331190E+01  0.0000000E+00  0.3231589E+00 -0.1805784E+01  0.7524154E-01  0.3142776E+00
 -0.2931870E+01 -0.9665100E+01  0.0000000E+00  0.3037747E+00 -0.1806580E+01  0.7096338E-01  0.2953697E+00
 -0.1970410E+01 -0.9905930E+01  0.0000000E+00  0.2820343E+00 -0.1809559E+01  0.6670137E-01  0.2740333E+00
 -0.9899710E+00 -0.1005140E+02  0.0000000E+00  0.2589012E+00 -0.1816034E+01  0.6285772E-01  0.2511548E+00
  0.1204410E-06 -0.1010000E+02  0.0000000E+00  0.2347861E+00 -0.1828415E+01  0.5981851E-01  0.2270380E+00
  0.9899760E+00 -0.1005140E+02  0.0000000E+00  0.2093635E+00 -0.1849677E+01  0.5763357E-01  0.2012746E+00
  0.1970410E+01 -0.9905930E+01  0.0000000E+00  0.1827300E+00 -0.1884036E+01  0.5630686E-01  0.1738384E+00
  0.2931880E+01 -0.9665100E+01  0.0000000E+00  0.1560759E+00 -0.1938218E+01  0.5606404E-01  0.1456588E+00
  0.3865100E+01 -0.9331180E+01  0.0000000E+00  0.1305766E+00 -0.2023064E+01  0.5706279E-01  0.1174482E+00
  0.4761110E+01 -0.8907410E+01  0.0000000E+00  0.1069164E+00 -0.2159060E+01  0.5932985E-01  0.8894435E-01
  0.5611260E+01 -0.8397840E+01  0.0000000E+00  0.8685250E-01 -0.2379744E+01  0.6284312E-01  0.5995081E-01
  0.6407370E+01 -0.7807410E+01  0.0000000E+00  0.7439572E-01 -0.2707523E+01  0.6749639E-01  0.3128833E-01
  0.7141780E+01 -0.7141780E+01  0.0000000E+00  0.7319359E-01 -0.3088763E+01  0.7309148E-01  0.3864995E-02
  0.7807410E+01 -0.6407370E+01  0.0000000E+00  0.8270967E-01  0.2867212E+01  0.7961576E-01 -0.2241027E-01
  0.8397840E+01 -0.5611260E+01  0.0000000E+00  0.9933268E-01  0.2638558E+01  0.8702769E-01 -0.4788696E-01
  0.8907410E+01 -0.4761110E+01  0.0000000E+00  0.1192167E+00  0.2492121E+01  0.9494459E-01 -0.7209821E-01
  0.9331180E+01 -0.3865100E+01  0.0000000E+00  0.1394535E+00  0.2400781E+01  0.1029056E+00 -0.9411540E-01
  0.9665100E+01 -0.2931870E+01  0.0000000E+00  0.1589307E+00  0.2342812E+01  0.1108670E+00 -0.1138748E+00
  0.9905930E+01 -0.1970410E+01  0.0000000E+00  0.1774746E+00  0.2304182E+01  0.1187995E+00 -0.1318481E+00
  0.1005140E+02 -0.9899690E+00  0.0000000E+00  0.1945400E+00  0.2277152E+01  0.1262693E+00 -0.1479928E+00
  0.1010000E+02  0.0000000E+00 -0.2568960E-01  0.2089272E+00  0.2258932E+01  0.1326893E+00 -0.1613819E+00
  0.1005140E+02  0.9899730E+00 -0.2568960E-01  0.2207146E+00  0.2247630E+01  0.1382397E+00 -0.1720602E+00
  0.9905930E+01  0.1970410E+01 -0.2568960E-01  0.2299848E+00  0.2240611E+01  0.1427839E+00 -0.1802936E+00
  0.9665100E+01  0.2931880E+01 -0.2568960E-01  0.2370218E+00  0.2235188E+01  0.1461430E+00 -0.1866054E+00
  0.9331180E+01  0.3865100E+01 -0.2568960E-01  0.2409711E+00  0.2232265E+01  0.1480227E+00 -0.1901482E+00
  0.8907400E+01  0.4761110E+01 -0.2568960E-01  0.2416570E+00  0.2232145E+01  0.1484213E+00 -0.1907072E+00
  0.8397840E+01  0.5611260E+01 -0.2568960E-01  0.2392814E+00  0.2234092E+01  0.1473297E+00 -0.1885458E+00
  0.7807410E+01  0.6407370E+01 -0.2568960E-01  0.2345619E+00  0.2236748E+01  0.1449141E+00 -0.1844429E+00
  0.7141780E+01  0.7141780E+01 -0.2568960E-01  0.2270234E+00  0.2242145E+01  0.1412182E+00 -0.1777556E+00
  0.6407370E+01  0.7807410E+01 -0.2568960E-01  0.2164399E+00  0.2251802E+01  0.1362652E+00 -0.1681607E+00
  0.5611260E+01  0.8397840E+01 -0.2568960E-01  0.2029630E+00  0.2266450E+01  0.1300765E+00 -0.1558014E+00
  0.4761110E+01  0.8907410E+01 -0.2568960E-01  0.1876169E+00  0.2286389E+01  0.1230888E+00 -0.1415953E+00
  0.3865100E+01  0.9331180E+01 -0.2568960E-01  0.1704727E+00  0.2316374E+01  0.1156481E+00 -0.1252456E+00
  0.2931870E+01  0.9665100E+01 -0.2568960E-01  0.1514634E+00  0.2362669E+01  0.1077920E+00 -0.1064052E+00
  0.1970410E+01  0.9905930E+01 -0.2568960E-01  0.1309594E+00  0.2434512E+01  0.9956339E-01 -0.8507348E-01
  0.9899730E+00  0.1005140E+02 -0.2568960E-01  0.1106475E+00  0.2543857E+01  0.9146252E-01 -0.6226936E-01
 -0.4414850E-06  0.1010000E+02 -0.2568960E-01  0.9219699E-01  0.2714789E+01  0.8392633E-01 -0.3816617E-01
 -0.9899740E+00  0.1005140E+02 -0.2568960E-01  0.7798686E-01  0.2981199E+01  0.7698585E-01 -0.1245507E-01
 -0.1970410E+01  0.9905930E+01 -0.2568960E-01  0.7225519E-01 -0.2933013E+01  0.7068913E-01  0.1496193E-01
 -0.2931880E+01  0.9665100E+01 -0.2568960E-01  0.7826482E-01 -0.2558505E+01  0.6533283E-01  0.4309295E-01
 -0.3865100E+01  0.9331180E+01 -0.2568960E-01  0.9394141E-01 -0.2280087E+01  0.6118366E-01  0.7128496E-01
 -0.4761110E+01  0.8907400E+01 -0.2568960E-01  0.1155245E+00 -0.2099212E+01  0.5824351E-01  0.9976770E-01
 -0.5611260E+01  0.8397840E+01 -0.2568960E-01  0.1406025E+00 -0.1984586E+01  0.5653379E-01  0.1287361E+00
 -0.6407370E+01  0.7807410E+01 -0.2568960E-01  0.1670543E+00 -0.1912631E+01  0.5599929E-01  0.1573887E+00
 -0.7141780E+01  0.7141780E+01 -0.2568960E-01  0.1932593E+00 -0.1867889E+01  0.5657500E-01  0.1847929E+00
 -0.7807410E+01  0.6407370E+01 -0.2568960E-01  0.2189686E+00 -0.1839995E+01  0.5823673E-01  0.2110823E+00
 -0.8397840E+01  0.5611260E+01 -0.2568960E-01  0.2442619E+00 -0.1823047E+01  0.6096378E-01  0.2365318E+00
 -0.8907410E+01  0.4761110E+01 -0.2568960E-01  0.2686070E+00 -0.1812961E+01  0.6441317E-01  0.2607694E+00
 -0.9331180E+01  0.3865100E+01 -0.2568960E-01  0.2908845E+00 -0.1807617E+01  0.6824535E-01  0.2827656E+00
 -0.9665100E+01  0.2931880E+01 -0.2568960E-01  0.3111139E+00 -0.1805769E+01  0.7243247E-01  0.3025647E+00
 -0.9905930E+01  0.1970410E+01 -0.2568960E-01  0.3296099E+00 -0.1806366E+01  0.7693006E-01  0.3205065E+00
 -0.1005140E+02  0.9899730E+00 -0.2568960E-01  0.3463849E+00 -0.1807828E+01  0.8133741E-01  0.3366997E+00
 -0.1010000E+02 -0.8829700E-06 -0.2568960E-01  0.3604204E+00 -0.1809628E+01  0.8526395E-01  0.3501899E+00
 -0.1005140E+02 -0.9899740E+00 -0.2568960E-01  0.3716259E+00 -0.1811803E+01  0.8869976E-01  0.3608852E+00
 -0.9905930E+01 -0.1970410E+01 -0.2568960E-01  0.3803289E+00 -0.1814034E+01  0.9160068E-01  0.3691333E+00
 -0.9665100E+01 -0.2931880E+01 -0.2568960E-01  0.3869831E+00 -0.1815513E+01  0.9375892E-01  0.3754533E+00
 -0.9331180E+01 -0.3865100E+01 -0.2568960E-01  0.3907169E+00 -0.1816295E+01  0.9495970E-01  0.3790018E+00
 -0.8907400E+01 -0.4761110E+01 -0.2568960E-01  0.3913250E+00 -0.1816598E+01  0.9522250E-01  0.3795628E+00
 -0.8397840E+01 -0.5611260E+01 -0.2568960E-01  0.3890548E+00 -0.1816195E+01  0.9451815E-01  0.3773990E+00
 -0.7807400E+01 -0.6407370E+01 -0.2568960E-01  0.3846852E+00 -0.1814829E+01  0.9294679E-01  0.3732876E+00
 -0.7141780E+01 -0.7141780E+01 -0.2568960E-01  0.3776179E+00 -0.1813075E+01  0.9059644E-01  0.3665891E+00
 -0.6407370E+01 -0.7807410E+01 -0.2568960E-01  0.3675482E+00 -0.1811188E+01  0.8750695E-01  0.3569793E+00
 -0.5611260E+01 -0.8397850E+01 -0.2568960E-01  0.3546164E+00 -0.1809008E+01  0.8367699E-01  0.3446026E+00
 -0.4761110E+01 -0.8907410E+01 -0.2568960E-01  0.3397938E+00 -0.1806800E+01  0.7945032E-01  0.3303747E+00
 -0.3865100E+01 -0.9331190E+01 -0.2568960E-01  0.3228765E+00 -0.1805780E+01  0.7517454E-01  0.3140032E+00
 -0.2931870E+01 -0.9665100E+01 -0.2568960E-01  0.3035365E+00 -0.1806546E+01  0.7089756E-01  0.2951405E+00
 -0.1970410E+01 -0.9905930E+01 -0.2568960E-01  0.2817813E+00 -0.1809557E+01  0.6664083E-01  0.2737877E+00
 -0.9899710E+00 -0.1005140E+02 -0.2568960E-01  0.2586980E+00 -0.1815985E+01  0.6279628E-01  0.2509607E+00
  0.1204410E-06 -0.1010000E+02 -0.2568960E-01  0.2345783E+00 -0.1828401E+01  0.5976233E-01  0.2268379E+00
  0.9899760E+00 -0.1005140E+02 -0.2568960E-01  0.2091882E+00 -0.1849610E+01  0.5757181E-01  0.2011099E+00
  0.1970410E+01 -0.9905930E+01 -0.2568960E-01  0.1825639E+00 -0.1884028E+01  0.5625418E-01  0.1736808E+00
  0.2931880E+01 -0.9665100E+01 -0.2568960E-01  0.1559412E+00 -0.1938126E+01  0.5600233E-01  0.1455383E+00
  0.3865100E+01 -0.9331180E+01 -0.2568960E-01  0.1304554E+00 -0.2023045E+01  0.5700754E-01  0.1173403E+00
  0.4761110E+01 -0.8907410E+01 -0.2568960E-01  0.1068074E+00 -0.2159008E+01  0.5926465E-01  0.8885679E-01
  0.5611260E+01 -0.8397840E+01 -0.2568960E-01  0.8676980E-01 -0.2379760E+01  0.6278422E-01  0.5989273E-01
  0.6407370E+01 -0.7807410E+01 -0.2568960E-01  0.7431306E-01 -0.2707630E+01  0.6742474E-01  0.3124636E-01
  0.7141780E+01 -0.7141780E+01 -0.2568960E-01  0.7312443E-01 -0.3088872E+01  0.7302283E-01  0.3853398E-02
  0.7807410E+01 -0.6407370E+01 -0.2568960E-01  0.8263767E-01  0.2866836E+01  0.7953802E-01 -0.2242067E-01
  0.8397840E+01 -0.5611260E+01 -0.2568960E-01  0.9924561E-01  0.2638491E+01  0.8694822E-01 -0.4785079E-01
  0.8907410E+01 -0.4761110E+01 -0.2568960E-01  0.1191282E+00  0.2491863E+01  0.9485554E-01 -0.7206909E-01
  0.9331180E+01 -0.3865100E+01 -0.2568960E-01  0.1393369E+00  0.2400711E+01  0.1028131E+00 -0.9404385E-01
  0.9665100E+01 -0.2931870E+01 -0.2568960E-01  0.1588250E+00  0.2342619E+01  0.1107714E+00 -0.1138204E+00
  0.9905930E+01 -0.1970410E+01 -0.2568960E-01  0.1773217E+00  0.2304151E+01  0.1186931E+00 -0.1317381E+00
  0.1005140E+02 -0.9899690E+00 -0.2568960E-01  0.1944086E+00  0.2277009E+01  0.1261628E+00 -0.1479110E+00
  0.1010000E+02  0.0000000E+00 -0.1027320E+00  0.2083802E+00  0.2258921E+01  0.1323401E+00 -0.1609609E+00
  0.1005140E+02  0.9899730E+00 -0.1027320E+00  0.2201725E+00  0.2247554E+01  0.1378872E+00 -0.1716481E+00
  0.9905930E+01  0.1970410E+01 -0.1027320E+00  0.2293673E+00  0.2240644E+01  0.1424064E+00 -0.1798048E+00
  0.9665100E+01  0.2931880E+01 -0.1027320E+00  0.2364330E+00  0.2235132E+01  0.1457694E+00 -0.1861501E+00
  0.9331180E+01  0.3865100E+01 -0.1027320E+00  0.2403409E+00  0.2232278E+01  0.1476382E+00 -0.1896490E+00
  0.8907400E+01  0.4761110E+01 -0.1027320E+00  0.2410595E+00  0.2232092E+01  0.1480443E+00 -0.1902434E+00
  0.8397840E+01  0.5611260E+01 -0.1027320E+00  0.2386387E+00  0.2234130E+01  0.1469411E+00 -0.1880339E+00
  0.7807410E+01  0.6407370E+01 -0.1027320E+00  0.2339846E+00  0.2236689E+01  0.1445466E+00 -0.1839975E+00
  0.7141780E+01  0.7141780E+01 -0.1027320E+00  0.2264300E+00  0.2242147E+01  0.1408495E+00 -0.1772907E+00
  0.6407370E+01  0.7807410E+01 -0.1027320E+00  0.2158992E+00  0.2251721E+01  0.1359110E+00 -0.1677518E+00
  0.5611260E+01  0.8397840E+01 -0.1027320E+00  0.2024173E+00  0.2266469E+01  0.1297297E+00 -0.1553801E+00
  0.4761110E+01  0.8907410E+01 -0.1027320E+00  0.1871577E+00  0.2286264E+01  0.1227700E+00 -0.1412641E+00
  0.3865100E+01  0.9331180E+01 -0.1027320E+00  0.1700256E+00  0.2316324E+01  0.1153385E+00 -0.1249229E+00
  0.2931870E+01  0.9665100E+01 -0.1027320E+00  0.1510756E+00  0.2362495E+01  0.1074975E+00 -0.1061514E+00
  0.1970410E+01  0.9905930E+01 -0.1027320E+00  0.1306055E+00  0.2434480E+01  0.9929164E-01 -0.8484681E-01
  0.9899730E+00  0.1005140E+02 -0.1027320E+00  0.1103706E+00  0.2543516E+01  0.9121248E-01 -0.6214464E-01
 -0.4414850E-06  0.1010000E+02 -0.1027320E+00  0.9194597E-01  0.2714617E+01  0.8369126E-01 -0.3807668E-01
 -0.9899740E+00  0.1005140E+02 -0.1027320E+00  0.7776152E-01  0.2980950E+01  0.7676031E-01 -0.1243818E-01
 -0.1970410E+01  0.9905930E+01 -0.1027320E+00  0.7204987E-01 -0.2933077E+01  0.7048922E-01  0.1491488E-01
 -0.2931880E+01  0.9665100E+01 -0.1027320E+00  0.7802310E-01 -0.2558690E+01  0.6513903E-01  0.4294776E-01
 -0.3865100E+01  0.9331180E+01 -0.1027320E+00  0.9367085E-01 -0.2280041E+01  0.6100414E-01  0.7108251E-01
 -0.4761110E+01  0.8907400E+01 -0.1027320E+00  0.1152043E+00 -0.2099040E+01  0.5806493E-01  0.9950121E-01
 -0.5611260E+01  0.8397840E+01 -0.1027320E+00  0.1402093E+00 -0.1984550E+01  0.5637110E-01  0.1283782E+00
 -0.6407370E+01  0.7807410E+01 -0.1027320E+00  0.1665874E+00 -0.1912536E+01  0.5582784E-01  0.1569542E+00
 -0.7141780E+01  0.7141780E+01 -0.1027320E+00  0.1927283E+00 -0.1867842E+01  0.5641092E-01  0.1842879E+00
 -0.7807410E+01  0.6407370E+01 -0.1027320E+00  0.2183934E+00 -0.1839920E+01  0.5806783E-01  0.2105322E+00
 -0.8397840E+01  0.5611260E+01 -0.1027320E+00  0.2435879E+00 -0.1823042E+01  0.6079454E-01  0.2358794E+00
 -0.8907410E+01  0.4761110E+01 -0.1027320E+00  0.2678879E+00 -0.1812915E+01  0.6422877E-01  0.2600742E+00
 -0.9331180E+01  0.3865100E+01 -0.1027320E+00  0.2900957E+00 -0.1807615E+01  0.6805980E-01  0.2819989E+00
 -0.9665100E+01  0.2931880E+01 -0.1027320E+00  0.3103052E+00 -0.1805762E+01  0.7224189E-01  0.3017788E+00
 -0.9905930E+01  0.1970410E+01 -0.1027320E+00  0.3287039E+00 -0.1806390E+01  0.7672603E-01  0.3196238E+00
 -0.1005140E+02  0.9899730E+00 -0.1027320E+00  0.3454732E+00 -0.1807830E+01  0.8112402E-01  0.3358133E+00
 -0.1010000E+02 -0.8829700E-06 -0.1027320E+00  0.3594465E+00 -0.1809658E+01  0.8504377E-01  0.3492411E+00
 -0.1005140E+02 -0.9899740E+00 -0.1027320E+00  0.3706600E+00 -0.1811830E+01  0.8847897E-01  0.3599449E+00
 -0.9905930E+01 -0.1970410E+01 -0.1027320E+00  0.3792852E+00 -0.1814073E+01  0.9136368E-01  0.3681167E+00
 -0.9665100E+01 -0.2931880E+01 -0.1027320E+00  0.3859731E+00 -0.1815542E+01  0.9352496E-01  0.3744707E+00
 -0.9331180E+01 -0.3865100E+01 -0.1027320E+00  0.3896626E+00 -0.1816337E+01  0.9471945E-01  0.3779750E+00
 -0.8907400E+01 -0.4761110E+01 -0.1027320E+00  0.3903055E+00 -0.1816631E+01  0.9498716E-01  0.3785707E+00
 -0.8397840E+01 -0.5611260E+01 -0.1027320E+00  0.3879872E+00 -0.1816237E+01  0.9427463E-01  0.3763593E+00
 -0.7807400E+01 -0.6407370E+01 -0.1027320E+00  0.3836855E+00 -0.1814862E+01  0.9271732E-01  0.3723144E+00
 -0.7141780E+01 -0.7141780E+01 -0.1027320E+00  0.3765981E+00 -0.1813112E+01  0.9036523E-01  0.3655958E+00
 -0.6407370E+01 -0.7807410E+01 -0.1027320E+00  0.3665847E+00 -0.1811203E+01  0.8728313E-01  0.3560421E+00
 -0.5611260E+01 -0.8397850E+01 -0.1027320E+00  0.3536420E+00 -0.1809039E+01  0.8345781E-01  0.3436531E+00
 -0.4761110E+01 -0.8907410E+01 -0.1027320E+00  0.3389109E+00 -0.1806811E+01  0.7924736E-01  0.3295155E+00
 -0.3865100E+01 -0.9331190E+01 -0.1027320E+00  0.3220023E+00 -0.1805793E+01  0.7497504E-01  0.3131521E+00
 -0.2931870E+01 -0.9665100E+01 -0.1027320E+00  0.3027307E+00 -0.1806521E+01  0.7070214E-01  0.2943588E+00
 -0.1970410E+01 -0.9905930E+01 -0.1027320E+00  0.2810055E+00 -0.1809564E+01  0.6645938E-01  0.2730334E+00
 -0.9899710E+00 -0.1005140E+02 -0.1027320E+00  0.2580222E+00 -0.1815943E+01  0.6262162E-01  0.2503078E+00
  0.1204410E-06 -0.1010000E+02 -0.1027320E+00  0.2339385E+00 -0.1828373E+01  0.5959307E-01  0.2262209E+00
  0.9899760E+00 -0.1005140E+02 -0.1027320E+00  0.2086171E+00 -0.1849531E+01  0.5739878E-01  0.2005654E+00
  0.1970410E+01 -0.9905930E+01 -0.1027320E+00  0.1820572E+00 -0.1884003E+01  0.5609382E-01  0.1732002E+00
  0.2931880E+01 -0.9665100E+01 -0.1027320E+00  0.1555232E+00 -0.1937989E+01  0.5583230E-01  0.1451558E+00
  0.3865100E+01 -0.9331180E+01 -0.1027320E+00  0.1300896E+00 -0.2022974E+01  0.5683943E-01  0.1170153E+00
  0.4761110E+01 -0.8907410E+01 -0.1027320E+00  0.1064902E+00 -0.2158961E+01  0.5908446E-01  0.8859567E-01
  0.5611260E+01 -0.8397840E+01 -0.1027320E+00  0.8652263E-01 -0.2379745E+01  0.6260450E-01  0.5972305E-01
  0.6407370E+01 -0.7807410E+01 -0.1027320E+00  0.7408977E-01 -0.2707621E+01  0.6722187E-01  0.3115310E-01
  0.7141780E+01 -0.7141780E+01 -0.1027320E+00  0.7291443E-01 -0.3089032E+01  0.7281373E-01  0.3830676E-02
  0.7807410E+01 -0.6407370E+01 -0.1027320E+00  0.8241546E-01  0.2866354E+01  0.7931337E-01 -0.2239861E-01
  0.8397840E+01 -0.5611260E+01 -0.1027320E+00  0.9897439E-01  0.2638423E+01  0.8670737E-01 -0.4772591E-01
