 VARIABLES="X" "Y" "Z" "abs(eta) (m)" "angle(phi) (rad)" "PRE1" "PRE2"
ZONE N=   3200 ,E =    3136 ,F=FEPOINT,ET=QUADRILATERAL
  0.1010000E+02  0.0000000E+00  0.0000000E+00  0.2393285E+00 -0.1737827E+01  0.3978967E-01  0.2359977E+00
  0.1005140E+02  0.9899730E+00  0.0000000E+00  0.1989979E+00 -0.1807789E+01  0.4672076E-01  0.1934356E+00
  0.9905930E+01  0.1970410E+01  0.0000000E+00  0.1604623E+00 -0.1928859E+01  0.5623570E-01  0.1502854E+00
  0.9665100E+01  0.2931880E+01  0.0000000E+00  0.1272790E+00 -0.2137925E+01  0.6837590E-01  0.1073531E+00
  0.9331180E+01  0.3865100E+01  0.0000000E+00  0.1055030E+00 -0.2472456E+01  0.8275205E-01  0.6544453E-01
  0.8907400E+01  0.4761110E+01  0.0000000E+00  0.1025038E+00 -0.2893884E+01  0.9937505E-01  0.2513225E-01
  0.8397840E+01  0.5611260E+01  0.0000000E+00  0.1186324E+00  0.3024821E+01  0.1178245E+00 -0.1382148E-01
  0.7807410E+01  0.6407370E+01  0.0000000E+00  0.1466179E+00  0.2788584E+01  0.1375770E+00 -0.5068909E-01
  0.7141780E+01  0.7141780E+01  0.0000000E+00  0.1792942E+00  0.2647671E+01  0.1578651E+00 -0.8500019E-01
  0.6407370E+01  0.7807410E+01  0.0000000E+00  0.2125467E+00  0.2565800E+01  0.1782759E+00 -0.1157316E+00
  0.5611260E+01  0.8397840E+01  0.0000000E+00  0.2451494E+00  0.2514768E+01  0.1985451E+00 -0.1437988E+00
  0.4761110E+01  0.8907410E+01  0.0000000E+00  0.2756546E+00  0.2482427E+01  0.2179060E+00 -0.1688268E+00
  0.3865100E+01  0.9331180E+01  0.0000000E+00  0.3031245E+00  0.2461263E+01  0.2356385E+00 -0.1906802E+00
  0.2931870E+01  0.9665100E+01  0.0000000E+00  0.3260638E+00  0.2449532E+01  0.2510472E+00 -0.2080695E+00
  0.1970410E+01  0.9905930E+01  0.0000000E+00  0.3453826E+00  0.2442076E+01  0.2642708E+00 -0.2223737E+00
  0.9899730E+00  0.1005140E+02  0.0000000E+00  0.3605221E+00  0.2437168E+01  0.2747123E+00 -0.2334724E+00
 -0.4414850E-06  0.1010000E+02  0.0000000E+00  0.3712755E+00  0.2433722E+01  0.2820759E+00 -0.2414099E+00
 -0.9899740E+00  0.1005140E+02  0.0000000E+00  0.3761124E+00  0.2433239E+01  0.2856326E+00 -0.2446927E+00
 -0.1970410E+01  0.9905930E+01  0.0000000E+00  0.3764531E+00  0.2433403E+01  0.2859314E+00 -0.2448676E+00
 -0.2931880E+01  0.9665100E+01  0.0000000E+00  0.3721580E+00  0.2434094E+01  0.2828363E+00 -0.2418785E+00
 -0.3865100E+01  0.9331180E+01  0.0000000E+00  0.3634430E+00  0.2435675E+01  0.2765862E+00 -0.2357771E+00
 -0.4761110E+01  0.8907400E+01  0.0000000E+00  0.3489621E+00  0.2440722E+01  0.2667051E+00 -0.2250398E+00
 -0.5611260E+01  0.8397840E+01  0.0000000E+00  0.3302311E+00  0.2448020E+01  0.2539369E+00 -0.2111129E+00
 -0.6407370E+01  0.7807410E+01  0.0000000E+00  0.3075690E+00  0.2459140E+01  0.2386822E+00 -0.1939833E+00
 -0.7141780E+01  0.7141780E+01  0.0000000E+00  0.2816264E+00  0.2476497E+01  0.2215999E+00 -0.1738014E+00
 -0.7807410E+01  0.6407370E+01  0.0000000E+00  0.2516714E+00  0.2506768E+01  0.2026397E+00 -0.1492504E+00
 -0.8397840E+01  0.5611260E+01  0.0000000E+00  0.2192636E+00  0.2553796E+01  0.1824634E+00 -0.1215880E+00
 -0.8907410E+01  0.4761110E+01  0.0000000E+00  0.1856532E+00  0.2629389E+01  0.1618276E+00 -0.9098856E-01
 -0.9331180E+01  0.3865100E+01  0.0000000E+00  0.1528866E+00  0.2753090E+01  0.1414931E+00 -0.5791390E-01
 -0.9665100E+01  0.2931880E+01  0.0000000E+00  0.1236744E+00  0.2966272E+01  0.1217785E+00 -0.2157181E-01
 -0.9905930E+01  0.1970410E+01  0.0000000E+00  0.1044232E+00 -0.2977081E+01  0.1030133E+00  0.1710151E-01
 -0.1005140E+02  0.9899730E+00  0.0000000E+00  0.1034108E+00 -0.2551595E+01  0.8592837E-01  0.5753348E-01
 -0.1010000E+02 -0.8829700E-06  0.0000000E+00  0.1217674E+00 -0.2192733E+01  0.7094295E-01  0.9896661E-01
 -0.1005140E+02 -0.9899740E+00  0.0000000E+00  0.1531008E+00 -0.1962672E+01  0.5847263E-01  0.1414949E+00
 -0.9905930E+01 -0.1970410E+01  0.0000000E+00  0.1908913E+00 -0.1827277E+01  0.4842496E-01  0.1846470E+00
 -0.9665100E+01 -0.2931880E+01  0.0000000E+00  0.2312904E+00 -0.1749324E+01  0.4107285E-01  0.2276143E+00
 -0.9331180E+01 -0.3865100E+01  0.0000000E+00  0.2720197E+00 -0.1704503E+01  0.3626250E-01  0.2695918E+00
 -0.8907400E+01 -0.4761110E+01  0.0000000E+00  0.3119280E+00 -0.1680674E+01  0.3420502E-01  0.3100469E+00
 -0.8397840E+01 -0.5611260E+01  0.0000000E+00  0.3508740E+00 -0.1669340E+01  0.3452036E-01  0.3491718E+00
 -0.7807400E+01 -0.6407370E+01  0.0000000E+00  0.3879884E+00 -0.1666081E+01  0.3691344E-01  0.3862285E+00
 -0.7141780E+01 -0.7141780E+01  0.0000000E+00  0.4227124E+00 -0.1667499E+01  0.4081367E-01  0.4207374E+00
 -0.6407370E+01 -0.7807410E+01  0.0000000E+00  0.4540603E+00 -0.1672518E+01  0.4610806E-01  0.4517132E+00
 -0.5611260E+01 -0.8397850E+01  0.0000000E+00  0.4828798E+00 -0.1679601E+01  0.5243579E-01  0.4800244E+00
 -0.4761110E+01 -0.8907410E+01  0.0000000E+00  0.5087372E+00 -0.1687447E+01  0.5920995E-01  0.5052798E+00
 -0.3865100E+01 -0.9331190E+01  0.0000000E+00  0.5314320E+00 -0.1695024E+01  0.6584872E-01  0.5273367E+00
 -0.2931870E+01 -0.9665100E+01  0.0000000E+00  0.5496750E+00 -0.1702171E+01  0.7200605E-01  0.5449383E+00
 -0.1970410E+01 -0.9905930E+01  0.0000000E+00  0.5647765E+00 -0.1708634E+01  0.7760109E-01  0.5594198E+00
 -0.9899710E+00 -0.1005140E+02  0.0000000E+00  0.5765298E+00 -0.1713766E+01  0.8214584E-01  0.5706476E+00
  0.1204410E-06 -0.1010000E+02  0.0000000E+00  0.5849321E+00 -0.1717315E+01  0.8539718E-01  0.5786647E+00
  0.9899760E+00 -0.1005140E+02  0.0000000E+00  0.5884749E+00 -0.1719139E+01  0.8697599E-01  0.5820119E+00
  0.1970410E+01 -0.9905930E+01  0.0000000E+00  0.5886797E+00 -0.1719332E+01  0.8711883E-01  0.5821976E+00
  0.2931880E+01 -0.9665100E+01  0.0000000E+00  0.5854685E+00 -0.1717726E+01  0.8571347E-01  0.5791603E+00
  0.3865100E+01 -0.9331180E+01  0.0000000E+00  0.5789345E+00 -0.1714584E+01  0.8295713E-01  0.5729601E+00
  0.4761110E+01 -0.8907410E+01  0.0000000E+00  0.5675883E+00 -0.1709851E+01  0.7867189E-01  0.5621096E+00
  0.5611260E+01 -0.8397840E+01  0.0000000E+00  0.5528982E+00 -0.1703662E+01  0.7324512E-01  0.5480252E+00
  0.6407370E+01 -0.7807410E+01  0.0000000E+00  0.5349085E+00 -0.1696397E+01  0.6700858E-01  0.5306948E+00
  0.7141780E+01 -0.7141780E+01  0.0000000E+00  0.5138569E+00 -0.1688799E+01  0.6049572E-01  0.5102835E+00
  0.7807410E+01 -0.6407370E+01  0.0000000E+00  0.4884964E+00 -0.1681265E+01  0.5385404E-01  0.4855187E+00
  0.8397840E+01 -0.5611260E+01  0.0000000E+00  0.4600731E+00 -0.1674006E+01  0.4739949E-01  0.4576249E+00
  0.8907410E+01 -0.4761110E+01  0.0000000E+00  0.4288221E+00 -0.1668288E+01  0.4174020E-01  0.4267858E+00
  0.9331180E+01 -0.3865100E+01  0.0000000E+00  0.3952546E+00 -0.1665669E+01  0.3744275E-01  0.3934771E+00
  0.9665100E+01 -0.2931870E+01  0.0000000E+00  0.3586545E+00 -0.1668242E+01  0.3489404E-01  0.3569530E+00
  0.9905930E+01 -0.1970410E+01  0.0000000E+00  0.3199427E+00 -0.1677720E+01  0.3414422E-01  0.3181156E+00
  0.1005140E+02 -0.9899690E+00  0.0000000E+00  0.2798293E+00 -0.1698768E+01  0.3571252E-01  0.2775411E+00
  0.1010000E+02  0.0000000E+00 -0.2568960E-01  0.2390136E+00 -0.1737783E+01  0.3972686E-01  0.2356889E+00
  0.1005140E+02  0.9899730E+00 -0.2568960E-01  0.1987274E+00 -0.1807766E+01  0.4665278E-01  0.1931738E+00
  0.9905930E+01  0.1970410E+01 -0.2568960E-01  0.1602515E+00 -0.1928988E+01  0.5618124E-01  0.1500807E+00
  0.9665100E+01  0.2931880E+01 -0.2568960E-01  0.1270929E+00 -0.2137969E+01  0.6828065E-01  0.1071931E+00
  0.9331180E+01  0.3865100E+01 -0.2568960E-01  0.1053400E+00 -0.2472632E+01  0.8263575E-01  0.6532878E-01
  0.8907400E+01  0.4761110E+01 -0.2568960E-01  0.1023607E+00 -0.2894165E+01  0.9924342E-01  0.2506921E-01
  0.8397840E+01  0.5611260E+01 -0.2568960E-01  0.1184859E+00  0.3024958E+01  0.1176809E+00 -0.1378828E-01
  0.7807410E+01  0.6407370E+01 -0.2568960E-01  0.1464429E+00  0.2788343E+01  0.1374006E+00 -0.5066165E-01
  0.7141780E+01  0.7141780E+01 -0.2568960E-01  0.1790929E+00  0.2647426E+01  0.1576670E+00 -0.8494346E-01
  0.6407370E+01  0.7807410E+01 -0.2568960E-01  0.2123036E+00  0.2565649E+01  0.1780545E+00 -0.1156261E+00
  0.5611260E+01  0.8397840E+01 -0.2568960E-01  0.2448075E+00  0.2514873E+01  0.1982832E+00 -0.1435774E+00
  0.4761110E+01  0.8907410E+01 -0.2568960E-01  0.2753400E+00  0.2482326E+01  0.2176401E+00 -0.1686561E+00
  0.3865100E+01  0.9331180E+01 -0.2568960E-01  0.3027925E+00  0.2461145E+01  0.2353580E+00 -0.1904991E+00
  0.2931870E+01  0.9665100E+01 -0.2568960E-01  0.3256909E+00  0.2449456E+01  0.2507443E+00 -0.2078506E+00
  0.1970410E+01  0.9905930E+01 -0.2568960E-01  0.3448930E+00  0.2442151E+01  0.2639127E+00 -0.2220390E+00
  0.9899730E+00  0.1005140E+02 -0.2568960E-01  0.3601088E+00  0.2437106E+01  0.2743827E+00 -0.2332219E+00
 -0.4414850E-06  0.1010000E+02 -0.2568960E-01  0.3708678E+00  0.2433642E+01  0.2817469E+00 -0.2411672E+00
 -0.9899740E+00  0.1005140E+02 -0.2568960E-01  0.3756812E+00  0.2433183E+01  0.2852913E+00 -0.2444283E+00
 -0.1970410E+01  0.9905930E+01 -0.2568960E-01  0.3759184E+00  0.2433470E+01  0.2855418E+00 -0.2445005E+00
 -0.2931880E+01  0.9665100E+01 -0.2568960E-01  0.3717310E+00  0.2434036E+01  0.2824979E+00 -0.2416171E+00
 -0.3865100E+01  0.9331180E+01 -0.2568960E-01  0.3630435E+00  0.2435589E+01  0.2762618E+00 -0.2355420E+00
 -0.4761110E+01  0.8907400E+01 -0.2568960E-01  0.3485628E+00  0.2440657E+01  0.2663852E+00 -0.2247998E+00
 -0.5611260E+01  0.8397840E+01 -0.2568960E-01  0.3297634E+00  0.2448097E+01  0.2535935E+00 -0.2107943E+00
 -0.6407370E+01  0.7807410E+01 -0.2568960E-01  0.3072179E+00  0.2459054E+01  0.2383932E+00 -0.1937822E+00
 -0.7141780E+01  0.7141780E+01 -0.2568960E-01  0.2813179E+00  0.2476363E+01  0.2213338E+00 -0.1736406E+00
 -0.7807410E+01  0.6407370E+01 -0.2568960E-01  0.2513839E+00  0.2506647E+01  0.2023902E+00 -0.1491042E+00
 -0.8397840E+01  0.5611260E+01 -0.2568960E-01  0.2189606E+00  0.2553912E+01  0.1822253E+00 -0.1213988E+00
 -0.8907410E+01  0.4761110E+01 -0.2568960E-01  0.1854388E+00  0.2629207E+01  0.1616242E+00 -0.9091283E-01
 -0.9331180E+01  0.3865100E+01 -0.2568960E-01  0.1527100E+00  0.2752796E+01  0.1413126E+00 -0.5788862E-01
 -0.9665100E+01  0.2931880E+01 -0.2568960E-01  0.1235199E+00  0.2965990E+01  0.1216204E+00 -0.2157917E-01
 -0.9905930E+01  0.1970410E+01 -0.2568960E-01  0.1043011E+00 -0.2977000E+01  0.1028915E+00  0.1708976E-01
 -0.1005140E+02  0.9899730E+00 -0.2568960E-01  0.1032578E+00 -0.2551787E+01  0.8581231E-01  0.5743191E-01
 -0.1010000E+02 -0.8829700E-06 -0.2568960E-01  0.1215827E+00 -0.2192786E+01  0.7084057E-01  0.9881284E-01
 -0.1005140E+02 -0.9899740E+00 -0.2568960E-01  0.1528839E+00 -0.1962670E+01  0.5838960E-01  0.1412945E+00
 -0.9905930E+01 -0.1970410E+01 -0.2568960E-01  0.1906336E+00 -0.1827393E+01  0.4838096E-01  0.1843921E+00
 -0.9665100E+01 -0.2931880E+01 -0.2568960E-01  0.2309824E+00 -0.1749301E+01  0.4101280E-01  0.2273121E+00
 -0.9331180E+01 -0.3865100E+01 -0.2568960E-01  0.2716686E+00 -0.1704467E+01  0.3620601E-01  0.2692452E+00
 -0.8907400E+01 -0.4761110E+01 -0.2568960E-01  0.3115262E+00 -0.1680662E+01  0.3415707E-01  0.3096480E+00
 -0.8397840E+01 -0.5611260E+01 -0.2568960E-01  0.3503809E+00 -0.1669402E+01  0.3449350E-01  0.3486789E+00
 -0.7807400E+01 -0.6407370E+01 -0.2568960E-01  0.3874959E+00 -0.1666082E+01  0.3686709E-01  0.3857381E+00
 -0.7141780E+01 -0.7141780E+01 -0.2568960E-01  0.4221906E+00 -0.1667500E+01  0.4076399E-01  0.4202181E+00
 -0.6407370E+01 -0.7807410E+01 -0.2568960E-01  0.4534894E+00 -0.1672532E+01  0.4605671E-01  0.4511445E+00
 -0.5611260E+01 -0.8397850E+01 -0.2568960E-01  0.4821955E+00 -0.1679637E+01  0.5237912E-01  0.4793422E+00
 -0.4761110E+01 -0.8907410E+01 -0.2568960E-01  0.5081003E+00 -0.1687472E+01  0.5914832E-01  0.5046458E+00
 -0.3865100E+01 -0.9331190E+01 -0.2568960E-01  0.5307836E+00 -0.1695052E+01  0.6578348E-01  0.5266913E+00
 -0.2931870E+01 -0.9665100E+01 -0.2568960E-01  0.5489874E+00 -0.1702204E+01  0.7193375E-01  0.5442543E+00
 -0.1970410E+01 -0.9905930E+01 -0.2568960E-01  0.5639729E+00 -0.1708659E+01  0.7750469E-01  0.5586220E+00
 -0.9899710E+00 -0.1005140E+02 -0.2568960E-01  0.5758101E+00 -0.1713803E+01  0.8206453E-01  0.5699322E+00
  0.1204410E-06 -0.1010000E+02 -0.2568960E-01  0.5842201E+00 -0.1717358E+01  0.8531779E-01  0.5779567E+00
  0.9899760E+00 -0.1005140E+02 -0.2568960E-01  0.5877410E+00 -0.1719178E+01  0.8689042E-01  0.5812827E+00
  0.1970410E+01 -0.9905930E+01 -0.2568960E-01  0.5878419E+00 -0.1719354E+01  0.8700768E-01  0.5813672E+00
  0.2931880E+01 -0.9665100E+01 -0.2568960E-01  0.5847378E+00 -0.1717765E+01  0.8562931E-01  0.5784340E+00
  0.3865100E+01 -0.9331180E+01 -0.2568960E-01  0.5782299E+00 -0.1714625E+01  0.8287931E-01  0.5722594E+00
  0.4761110E+01 -0.8907410E+01 -0.2568960E-01  0.5668797E+00 -0.1709887E+01  0.7859352E-01  0.5614051E+00
  0.5611260E+01 -0.8397840E+01 -0.2568960E-01  0.5521124E+00 -0.1703688E+01  0.7315519E-01  0.5472444E+00
  0.6407370E+01 -0.7807410E+01 -0.2568960E-01  0.5342396E+00 -0.1696428E+01  0.6694105E-01  0.5300291E+00
  0.7141780E+01 -0.7141780E+01 -0.2568960E-01  0.5132290E+00 -0.1688823E+01  0.6043437E-01  0.5096583E+00
  0.7807410E+01 -0.6407370E+01 -0.2568960E-01  0.4878835E+00 -0.1681286E+01  0.5379640E-01  0.4849085E+00
  0.8397840E+01 -0.5611260E+01 -0.2568960E-01  0.4594220E+00 -0.1674045E+01  0.4735067E-01  0.4569754E+00
  0.8907410E+01 -0.4761110E+01 -0.2568960E-01  0.4282809E+00 -0.1668298E+01  0.4169199E-01  0.4262467E+00
  0.9331180E+01 -0.3865100E+01 -0.2568960E-01  0.3947636E+00 -0.1665663E+01  0.3739382E-01  0.3929886E+00
  0.9665100E+01 -0.2931870E+01 -0.2568960E-01  0.3581970E+00 -0.1668239E+01  0.3484832E-01  0.3564978E+00
  0.9905930E+01 -0.1970410E+01 -0.2568960E-01  0.3194946E+00 -0.1677791E+01  0.3411910E-01  0.3176676E+00
  0.1005140E+02 -0.9899690E+00 -0.2568960E-01  0.2794647E+00 -0.1698750E+01  0.3566110E-01  0.2771801E+00
  0.1010000E+02  0.0000000E+00 -0.1027320E+00  0.2380622E+00 -0.1737690E+01  0.3954700E-01  0.2347545E+00
  0.1005140E+02  0.9899730E+00 -0.1027320E+00  0.1979181E+00 -0.1807736E+01  0.4645713E-01  0.1923884E+00
  0.9905930E+01  0.1970410E+01 -0.1027320E+00  0.1596141E+00 -0.1929269E+01  0.5599966E-01  0.1494680E+00
  0.9665100E+01  0.2931880E+01 -0.1027320E+00  0.1265500E+00 -0.2138080E+01  0.6800076E-01  0.1067277E+00
  0.9331180E+01  0.3865100E+01 -0.1027320E+00  0.1048702E+00 -0.2473027E+01  0.8229287E-01  0.6500499E-01
  0.8907400E+01  0.4761110E+01 -0.1027320E+00  0.1019400E+00 -0.2894761E+01  0.9885032E-01  0.2490730E-01
  0.8397840E+01  0.5611260E+01 -0.1027320E+00  0.1180382E+00  0.3025242E+01  0.1172401E+00 -0.1370290E-01
  0.7807410E+01  0.6407370E+01 -0.1027320E+00  0.1459008E+00  0.2787859E+01  0.1368675E+00 -0.5054039E-01
  0.7141780E+01  0.7141780E+01 -0.1027320E+00  0.1784576E+00  0.2646906E+01  0.1570636E+00 -0.8472376E-01
  0.6407370E+01  0.7807410E+01 -0.1027320E+00  0.2115378E+00  0.2565356E+01  0.1773785E+00 -0.1152612E+00
  0.5611260E+01  0.8397840E+01 -0.1027320E+00  0.2437991E+00  0.2515108E+01  0.1975001E+00 -0.1429396E+00
  0.4761110E+01  0.8907410E+01 -0.1027320E+00  0.2743470E+00  0.2482128E+01  0.2168221E+00 -0.1680907E+00
  0.3865100E+01  0.9331180E+01 -0.1027320E+00  0.3017367E+00  0.2460908E+01  0.2344923E+00 -0.1898905E+00
  0.2931870E+01  0.9665100E+01 -0.1027320E+00  0.3245160E+00  0.2449319E+01  0.2498114E+00 -0.2071350E+00
  0.1970410E+01  0.9905930E+01 -0.1027320E+00  0.3434550E+00  0.2442322E+01  0.2628502E+00 -0.2210681E+00
  0.9899730E+00  0.1005140E+02 -0.1027320E+00  0.3588074E+00  0.2436994E+01  0.2733651E+00 -0.2324097E+00
 -0.4414850E-06  0.1010000E+02 -0.1027320E+00  0.3695717E+00  0.2433489E+01  0.2807255E+00 -0.2403673E+00
 -0.9899740E+00  0.1005140E+02 -0.1027320E+00  0.3743235E+00  0.2433087E+01  0.2842368E+00 -0.2435723E+00
 -0.1970410E+01  0.9905930E+01 -0.1027320E+00  0.3743474E+00  0.2433628E+01  0.2843868E+00 -0.2434341E+00
 -0.2931880E+01  0.9665100E+01 -0.1027320E+00  0.3703879E+00  0.2433937E+01  0.2814533E+00 -0.2407722E+00
 -0.3865100E+01  0.9331180E+01 -0.1027320E+00  0.3617757E+00  0.2435429E+01  0.2752596E+00 -0.2347633E+00
 -0.4761110E+01  0.8907400E+01 -0.1027320E+00  0.3473035E+00  0.2440535E+01  0.2653956E+00 -0.2240199E+00
 -0.5611260E+01  0.8397840E+01 -0.1027320E+00  0.3283893E+00  0.2448275E+01  0.2525740E+00 -0.2098712E+00
 -0.6407370E+01  0.7807410E+01 -0.1027320E+00  0.3061103E+00  0.2458899E+01  0.2375037E+00 -0.1931204E+00
 -0.7141780E+01  0.7141780E+01 -0.1027320E+00  0.2803366E+00  0.2476094E+01  0.2205152E+00 -0.1730943E+00
 -0.7807410E+01  0.6407370E+01 -0.1027320E+00  0.2504771E+00  0.2506416E+01  0.2016258E+00 -0.1486130E+00
 -0.8397840E+01  0.5611260E+01 -0.1027320E+00  0.2180644E+00  0.2554168E+01  0.1815104E+00 -0.1208555E+00
 -0.8907410E+01  0.4761110E+01 -0.1027320E+00  0.1847677E+00  0.2628852E+01  0.1610072E+00 -0.9064102E-01
 -0.9331180E+01  0.3865100E+01 -0.1027320E+00  0.1521574E+00  0.2752170E+01  0.1407651E+00 -0.5776725E-01
 -0.9665100E+01  0.2931880E+01 -0.1027320E+00  0.1230494E+00  0.2965418E+01  0.1211448E+00 -0.2156622E-01
 -0.9905930E+01  0.1970410E+01 -0.1027320E+00  0.1039202E+00 -0.2976841E+01  0.1025131E+00  0.1704371E-01
 -0.1005140E+02  0.9899730E+00 -0.1027320E+00  0.1028149E+00 -0.2552206E+01  0.8546819E-01  0.5714978E-01
 -0.1010000E+02 -0.8829700E-06 -0.1027320E+00  0.1210469E+00 -0.2192905E+01  0.7054013E-01  0.9836896E-01
 -0.1005140E+02 -0.9899740E+00 -0.1027320E+00  0.1522446E+00 -0.1962686E+01  0.5814757E-01  0.1407028E+00
 -0.9905930E+01 -0.1970410E+01 -0.1027320E+00  0.1898621E+00 -0.1827649E+01  0.4823221E-01  0.1836335E+00
 -0.9665100E+01 -0.2931880E+01 -0.1027320E+00  0.2300543E+00 -0.1749266E+01  0.4084011E-01  0.2264003E+00
 -0.9331180E+01 -0.3865100E+01 -0.1027320E+00  0.2706015E+00 -0.1704390E+01  0.3604319E-01  0.2681904E+00
 -0.8907400E+01 -0.4761110E+01 -0.1027320E+00  0.3103023E+00 -0.1680651E+01  0.3401971E-01  0.3084319E+00
 -0.8397840E+01 -0.5611260E+01 -0.1027320E+00  0.3489199E+00 -0.1669544E+01  0.3439889E-01  0.3472201E+00
 -0.7807400E+01 -0.6407370E+01 -0.1027320E+00  0.3859892E+00 -0.1666098E+01  0.3672962E-01  0.3842377E+00
 -0.7141780E+01 -0.7141780E+01 -0.1027320E+00  0.4205828E+00 -0.1667514E+01  0.4061435E-01  0.4186172E+00
 -0.6407370E+01 -0.7807410E+01 -0.1027320E+00  0.4517370E+00 -0.1672580E+01  0.4589993E-01  0.4493991E+00
 -0.5611260E+01 -0.8397850E+01 -0.1027320E+00  0.4801742E+00 -0.1679728E+01  0.5220266E-01  0.4773282E+00
 -0.4761110E+01 -0.8907410E+01 -0.1027320E+00  0.5061432E+00 -0.1687537E+01  0.5895330E-01  0.5026982E+00
 -0.3865100E+01 -0.9331190E+01 -0.1027320E+00  0.5287799E+00 -0.1695130E+01  0.6557591E-01  0.5246980E+00
 -0.2931870E+01 -0.9665100E+01 -0.1027320E+00  0.5468764E+00 -0.1702290E+01  0.7170351E-01  0.5421554E+00
 -0.1970410E+01 -0.9905930E+01 -0.1027320E+00  0.5616052E+00 -0.1708728E+01  0.7721757E-01  0.5562714E+00
 -0.9899710E+00 -0.1005140E+02 -0.1027320E+00  0.5735978E+00 -0.1713898E+01  0.8180305E-01  0.5677347E+00
  0.1204410E-06 -0.1010000E+02 -0.1027320E+00  0.5820196E+00 -0.1717466E+01  0.8505858E-01  0.5757706E+00
  0.9899760E+00 -0.1005140E+02 -0.1027320E+00  0.5854829E+00 -0.1719279E+01  0.8661502E-01  0.5790406E+00
  0.1970410E+01 -0.9905930E+01 -0.1027320E+00  0.5853731E+00 -0.1719418E+01  0.8667916E-01  0.5789200E+00
  0.2931880E+01 -0.9665100E+01 -0.1027320E+00  0.5824915E+00 -0.1717865E+01  0.8535749E-01  0.5762035E+00
  0.3865100E+01 -0.9331180E+01 -0.1027320E+00  0.5760514E+00 -0.1714729E+01  0.8262682E-01  0.5700948E+00
  0.4761110E+01 -0.8907410E+01 -0.1027320E+00  0.5647013E+00 -0.1709977E+01  0.7834200E-01  0.5592406E+00
  0.5611260E+01 -0.8397840E+01 -0.1027320E+00  0.5497943E+00 -0.1703760E+01  0.7288720E-01  0.5449415E+00
  0.6407370E+01 -0.7807410E+01 -0.1027320E+00  0.5321839E+00 -0.1696507E+01  0.6672529E-01  0.5279843E+00
  0.7141780E+01 -0.7141780E+01 -0.1027320E+00  0.5112892E+00 -0.1688890E+01  0.6024003E-01  0.5077281E+00
  0.7807410E+01 -0.6407370E+01 -0.1027320E+00  0.4860020E+00 -0.1681343E+01  0.5361636E-01  0.4830355E+00
  0.8397840E+01 -0.5611260E+01 -0.1027320E+00  0.4574967E+00 -0.1674143E+01  0.4719685E-01  0.4550557E+00
