 VARIABLES="X" "Y" "Z" "abs(eta) (m)" "angle(phi) (rad)" "PRE1" "PRE2"
ZONE N=   3200 ,E =    3136 ,F=FEPOINT,ET=QUADRILATERAL
  0.1010000E+02  0.0000000E+00  0.0000000E+00  0.1925838E+00 -0.1853222E+01  0.5367046E-01  0.1849540E+00
  0.1005140E+02  0.9899730E+00  0.0000000E+00  0.1599942E+00 -0.1934258E+01  0.5687978E-01  0.1495421E+00
  0.9905930E+01  0.1970410E+01  0.0000000E+00  0.1293849E+00 -0.2070802E+01  0.6203102E-01  0.1135456E+00
  0.9665100E+01  0.2931880E+01  0.0000000E+00  0.1038062E+00 -0.2295843E+01  0.6884123E-01  0.7769568E-01
  0.9331180E+01  0.3865100E+01  0.0000000E+00  0.8843044E-01 -0.2635903E+01  0.7736256E-01  0.4283664E-01
  0.8907400E+01  0.4761110E+01  0.0000000E+00  0.8770981E-01 -0.3040743E+01  0.8726415E-01  0.8830509E-02
  0.8397840E+01  0.5611260E+01  0.0000000E+00  0.1014286E+00  0.2903937E+01  0.9857766E-01 -0.2387882E-01
  0.7807410E+01  0.6407370E+01  0.0000000E+00  0.1237079E+00  0.2680016E+01  0.1107620E+00 -0.5509460E-01
  0.7141780E+01  0.7141780E+01  0.0000000E+00  0.1491518E+00  0.2545486E+01  0.1234272E+00 -0.8373750E-01
  0.6407370E+01  0.7807410E+01  0.0000000E+00  0.1754367E+00  0.2460712E+01  0.1363176E+00 -0.1104334E+00
  0.5611260E+01  0.8397840E+01  0.0000000E+00  0.2007980E+00  0.2408126E+01  0.1491645E+00 -0.1344240E+00
  0.4761110E+01  0.8907410E+01  0.0000000E+00  0.2246466E+00  0.2373125E+01  0.1615156E+00 -0.1561371E+00
  0.3865100E+01  0.9331180E+01  0.0000000E+00  0.2454646E+00  0.2351304E+01  0.1727188E+00 -0.1744164E+00
  0.2931870E+01  0.9665100E+01  0.0000000E+00  0.2638288E+00  0.2336190E+01  0.1827860E+00 -0.1902495E+00
  0.1970410E+01  0.9905930E+01  0.0000000E+00  0.2786744E+00  0.2327213E+01  0.1912598E+00 -0.2026798E+00
  0.9899730E+00  0.1005140E+02  0.0000000E+00  0.2905394E+00  0.2320851E+01  0.1980546E+00 -0.2125735E+00
 -0.4414850E-06  0.1010000E+02  0.0000000E+00  0.2981826E+00  0.2317698E+01  0.2025758E+00 -0.2188057E+00
 -0.9899740E+00  0.1005140E+02  0.0000000E+00  0.3026069E+00  0.2315647E+01  0.2051257E+00 -0.2224733E+00
 -0.1970410E+01  0.9905930E+01  0.0000000E+00  0.3027202E+00  0.2315884E+01  0.2052552E+00 -0.2225081E+00
 -0.2931880E+01  0.9665100E+01  0.0000000E+00  0.2995473E+00  0.2316842E+01  0.2033147E+00 -0.2199811E+00
 -0.3865100E+01  0.9331180E+01  0.0000000E+00  0.2921343E+00  0.2320338E+01  0.1990321E+00 -0.2138426E+00
 -0.4761110E+01  0.8907400E+01  0.0000000E+00  0.2815847E+00  0.2325370E+01  0.1928792E+00 -0.2051524E+00
 -0.5611260E+01  0.8397840E+01  0.0000000E+00  0.2669323E+00  0.2334455E+01  0.1846021E+00 -0.1928081E+00
 -0.6407370E+01  0.7807410E+01  0.0000000E+00  0.2494689E+00  0.2347353E+01  0.1748346E+00 -0.1779539E+00
 -0.7141780E+01  0.7141780E+01  0.0000000E+00  0.2287922E+00  0.2368428E+01  0.1637475E+00 -0.1597893E+00
 -0.7807410E+01  0.6407370E+01  0.0000000E+00  0.2059637E+00  0.2399265E+01  0.1517741E+00 -0.1392324E+00
 -0.8397840E+01  0.5611260E+01  0.0000000E+00  0.1806092E+00  0.2448749E+01  0.1389667E+00 -0.1153601E+00
 -0.8907410E+01  0.4761110E+01  0.0000000E+00  0.1543963E+00  0.2524768E+01  0.1259440E+00 -0.8931022E-01
 -0.9331180E+01  0.3865100E+01  0.0000000E+00  0.1284933E+00  0.2648864E+01  0.1132084E+00 -0.6078146E-01
 -0.9665100E+01  0.2931880E+01  0.0000000E+00  0.1054716E+00  0.2848418E+01  0.1009712E+00 -0.3048056E-01
 -0.9905930E+01  0.1970410E+01  0.0000000E+00  0.8954579E-01 -0.3117711E+01  0.8952025E-01  0.2138340E-02
 -0.1005140E+02  0.9899730E+00  0.0000000E+00  0.8697242E-01 -0.2714749E+01  0.7916899E-01  0.3600656E-01
 -0.1010000E+02 -0.8829700E-06  0.0000000E+00  0.9987633E-01 -0.2353428E+01  0.7042759E-01  0.7081833E-01
 -0.1005140E+02 -0.9899740E+00  0.0000000E+00  0.1235950E+00 -0.2107622E+01  0.6320778E-01  0.1062097E+00
 -0.9905930E+01 -0.1970410E+01  0.0000000E+00  0.1535142E+00 -0.1957009E+01  0.5782619E-01  0.1422067E+00
 -0.9665100E+01 -0.2931880E+01  0.0000000E+00  0.1861168E+00 -0.1865957E+01  0.5414008E-01  0.1780682E+00
 -0.9331180E+01 -0.3865100E+01  0.0000000E+00  0.2193006E+00 -0.1811866E+01  0.5235610E-01  0.2129591E+00
 -0.8907400E+01 -0.4761110E+01  0.0000000E+00  0.2524524E+00 -0.1778974E+01  0.5217612E-01  0.2470018E+00
 -0.8397840E+01 -0.5611260E+01  0.0000000E+00  0.2848800E+00 -0.1760550E+01  0.5373327E-01  0.2797666E+00
 -0.7807400E+01 -0.6407370E+01  0.0000000E+00  0.3161443E+00 -0.1750679E+01  0.5656271E-01  0.3110433E+00
 -0.7141780E+01 -0.7141780E+01  0.0000000E+00  0.3450978E+00 -0.1746918E+01  0.6046563E-01  0.3397593E+00
 -0.6407370E+01 -0.7807410E+01  0.0000000E+00  0.3722726E+00 -0.1746726E+01  0.6515655E-01  0.3665262E+00
 -0.5611260E+01 -0.8397850E+01  0.0000000E+00  0.3969082E+00 -0.1749392E+01  0.7050984E-01  0.3905950E+00
 -0.4761110E+01 -0.8907410E+01  0.0000000E+00  0.4193389E+00 -0.1753212E+01  0.7607031E-01  0.4123814E+00
 -0.3865100E+01 -0.9331190E+01  0.0000000E+00  0.4383574E+00 -0.1757547E+01  0.8138871E-01  0.4307355E+00
 -0.2931870E+01 -0.9665100E+01  0.0000000E+00  0.4549070E+00 -0.1761856E+01  0.8638663E-01  0.4466293E+00
 -0.1970410E+01 -0.9905930E+01  0.0000000E+00  0.4680037E+00 -0.1765985E+01  0.9077009E-01  0.4591168E+00
 -0.9899710E+00 -0.1005140E+02  0.0000000E+00  0.4784521E+00 -0.1769342E+01  0.9437170E-01  0.4690526E+00
  0.1204410E-06 -0.1010000E+02  0.0000000E+00  0.4850718E+00 -0.1771664E+01  0.9678136E-01  0.4753188E+00
  0.9899760E+00 -0.1005140E+02  0.0000000E+00  0.4889548E+00 -0.1772933E+01  0.9816398E-01  0.4789996E+00
  0.1970410E+01 -0.9905930E+01  0.0000000E+00  0.4890047E+00 -0.1773047E+01  0.9822865E-01  0.4790373E+00
  0.2931880E+01 -0.9665100E+01  0.0000000E+00  0.4863037E+00 -0.1771982E+01  0.9717876E-01  0.4764951E+00
  0.3865100E+01 -0.9331180E+01  0.0000000E+00  0.4798062E+00 -0.1769853E+01  0.9487909E-01  0.4703317E+00
  0.4761110E+01 -0.8907410E+01  0.0000000E+00  0.4706048E+00 -0.1766771E+01  0.9163733E-01  0.4615967E+00
  0.5611260E+01 -0.8397840E+01  0.0000000E+00  0.4576117E+00 -0.1762814E+01  0.8733063E-01  0.4492013E+00
  0.6407370E+01 -0.7807410E+01  0.0000000E+00  0.4420313E+00 -0.1758311E+01  0.8240253E-01  0.4342827E+00
  0.7141780E+01 -0.7141780E+01  0.0000000E+00  0.4231337E+00 -0.1754007E+01  0.7708953E-01  0.4160521E+00
  0.7807410E+01 -0.6407370E+01  0.0000000E+00  0.4018587E+00 -0.1750088E+01  0.7166468E-01  0.3954169E+00
  0.8397840E+01 -0.5611260E+01  0.0000000E+00  0.3773331E+00 -0.1747308E+01  0.6625843E-01  0.3714702E+00
  0.8907410E+01 -0.4761110E+01  0.0000000E+00  0.3507386E+00 -0.1746435E+01  0.6128716E-01  0.3453425E+00
  0.9331180E+01 -0.3865100E+01  0.0000000E+00  0.3218775E+00 -0.1749578E+01  0.5723981E-01  0.3167472E+00
  0.9665100E+01 -0.2931870E+01  0.0000000E+00  0.2914599E+00 -0.1757814E+01  0.5419108E-01  0.2863777E+00
  0.9905930E+01 -0.1970410E+01  0.0000000E+00  0.2590702E+00 -0.1774647E+01  0.5244663E-01  0.2537060E+00
  0.1005140E+02 -0.9899690E+00  0.0000000E+00  0.2258899E+00 -0.1803684E+01  0.5213267E-01  0.2197918E+00
  0.1010000E+02  0.0000000E+00 -0.2568960E-01  0.1923683E+00 -0.1853125E+01  0.5359253E-01  0.1847523E+00
  0.1005140E+02  0.9899730E+00 -0.2568960E-01  0.1598129E+00 -0.1934252E+01  0.5681454E-01  0.1493729E+00
  0.9905930E+01  0.1970410E+01 -0.2568960E-01  0.1292456E+00 -0.2070830E+01  0.6196743E-01  0.1134216E+00
  0.9665100E+01  0.2931880E+01 -0.2568960E-01  0.1036922E+00 -0.2295802E+01  0.6876241E-01  0.7761318E-01
  0.9331180E+01  0.3865100E+01 -0.2568960E-01  0.8831290E-01 -0.2635924E+01  0.7726062E-01  0.4277809E-01
  0.8907400E+01  0.4761110E+01 -0.2568960E-01  0.8761090E-01 -0.3040542E+01  0.8716397E-01  0.8838113E-02
  0.8397840E+01  0.5611260E+01 -0.2568960E-01  0.1013079E+00  0.2904298E+01  0.9846902E-01 -0.2381488E-01
  0.7807410E+01  0.6407370E+01 -0.2568960E-01  0.1235583E+00  0.2680182E+01  0.1106373E+00 -0.5500955E-01
  0.7141780E+01  0.7141780E+01 -0.2568960E-01  0.1489969E+00  0.2545357E+01  0.1232883E+00 -0.8366653E-01
  0.6407370E+01  0.7807410E+01 -0.2568960E-01  0.1752174E+00  0.2460858E+01  0.1361633E+00 -0.1102756E+00
  0.5611260E+01  0.8397840E+01 -0.2568960E-01  0.2005260E+00  0.2408355E+01  0.1489931E+00 -0.1342079E+00
  0.4761110E+01  0.8907410E+01 -0.2568960E-01  0.2243681E+00  0.2373255E+01  0.1613356E+00 -0.1559226E+00
  0.3865100E+01  0.9331180E+01 -0.2568960E-01  0.2452221E+00  0.2351269E+01  0.1725421E+00 -0.1742502E+00
  0.2931870E+01  0.9665100E+01 -0.2568960E-01  0.2634994E+00  0.2336312E+01  0.1825811E+00 -0.1899898E+00
  0.1970410E+01  0.9905930E+01 -0.2568960E-01  0.2782953E+00  0.2327392E+01  0.1910358E+00 -0.2023700E+00
  0.9899730E+00  0.1005140E+02 -0.2568960E-01  0.2901784E+00  0.2320970E+01  0.1978337E+00 -0.2122860E+00
 -0.4414850E-06  0.1010000E+02 -0.2568960E-01  0.2978903E+00  0.2317698E+01  0.2023772E+00 -0.2185912E+00
 -0.9899740E+00  0.1005140E+02 -0.2568960E-01  0.3022312E+00  0.2315766E+01  0.2048975E+00 -0.2221727E+00
 -0.1970410E+01  0.9905930E+01 -0.2568960E-01  0.3023087E+00  0.2316053E+01  0.2050138E+00 -0.2221709E+00
 -0.2931880E+01  0.9665100E+01 -0.2568960E-01  0.2991750E+00  0.2316961E+01  0.2030882E+00 -0.2196835E+00
 -0.3865100E+01  0.9331180E+01 -0.2568960E-01  0.2918473E+00  0.2320336E+01  0.1988362E+00 -0.2136329E+00
 -0.4761110E+01  0.8907400E+01 -0.2568960E-01  0.2812353E+00  0.2325493E+01  0.1926653E+00 -0.2048741E+00
 -0.5611260E+01  0.8397840E+01 -0.2568960E-01  0.2665690E+00  0.2334640E+01  0.1843864E+00 -0.1925116E+00
 -0.6407370E+01  0.7807410E+01 -0.2568960E-01  0.2491579E+00  0.2347477E+01  0.1746388E+00 -0.1777103E+00
 -0.7141780E+01  0.7141780E+01 -0.2568960E-01  0.2285652E+00  0.2368381E+01  0.1635775E+00 -0.1596384E+00
 -0.7807410E+01  0.6407370E+01 -0.2568960E-01  0.2057086E+00  0.2399397E+01  0.1516044E+00 -0.1390401E+00
 -0.8397840E+01  0.5611260E+01 -0.2568960E-01  0.1803661E+00  0.2448994E+01  0.1388079E+00 -0.1151708E+00
 -0.8907410E+01  0.4761110E+01 -0.2568960E-01  0.1542034E+00  0.2524924E+01  0.1258006E+00 -0.8917904E-01
 -0.9331180E+01  0.3865100E+01 -0.2568960E-01  0.1283552E+00  0.2648703E+01  0.1130770E+00 -0.6073433E-01
 -0.9665100E+01  0.2931880E+01 -0.2568960E-01  0.1053469E+00  0.2848594E+01  0.1008572E+00 -0.3042676E-01
 -0.9905930E+01  0.1970410E+01 -0.2568960E-01  0.8944900E-01 -0.3117369E+01  0.8942275E-01  0.2166603E-02
 -0.1005140E+02  0.9899730E+00 -0.2568960E-01  0.8687825E-01 -0.2714595E+01  0.7907772E-01  0.3597977E-01
 -0.1010000E+02 -0.8829700E-06 -0.2568960E-01  0.9974746E-01 -0.2353362E+01  0.7033206E-01  0.7073158E-01
 -0.1005140E+02 -0.9899740E+00 -0.2568960E-01  0.1234562E+00 -0.2107607E+01  0.6313523E-01  0.1060913E+00
 -0.9905930E+01 -0.1970410E+01 -0.2568960E-01  0.1533412E+00 -0.1957059E+01  0.5776810E-01  0.1420436E+00
 -0.9665100E+01 -0.2931880E+01 -0.2568960E-01  0.1859026E+00 -0.1865962E+01  0.5407873E-01  0.1778631E+00
 -0.9331180E+01 -0.3865100E+01 -0.2568960E-01  0.2190594E+00 -0.1811785E+01  0.5228123E-01  0.2127292E+00
 -0.8907400E+01 -0.4761110E+01 -0.2568960E-01  0.2521518E+00 -0.1778987E+01  0.5211731E-01  0.2467070E+00
 -0.8397840E+01 -0.5611260E+01 -0.2568960E-01  0.2845250E+00 -0.1760599E+01  0.5367986E-01  0.2794153E+00
 -0.7807400E+01 -0.6407370E+01 -0.2568960E-01  0.3157666E+00 -0.1750702E+01  0.5650215E-01  0.3106703E+00
 -0.7141780E+01 -0.7141780E+01 -0.2568960E-01  0.3447316E+00 -0.1746897E+01  0.6039422E-01  0.3394001E+00
 -0.6407370E+01 -0.7807410E+01 -0.2568960E-01  0.3718215E+00 -0.1746750E+01  0.6508642E-01  0.3660806E+00
 -0.5611260E+01 -0.8397850E+01 -0.2568960E-01  0.3963996E+00 -0.1749432E+01  0.7043529E-01  0.3900916E+00
 -0.4761110E+01 -0.8907410E+01 -0.2568960E-01  0.4188313E+00 -0.1753243E+01  0.7599111E-01  0.4118798E+00
 -0.3865100E+01 -0.9331190E+01 -0.2568960E-01  0.4378954E+00 -0.1757565E+01  0.8131043E-01  0.4302801E+00
 -0.2931870E+01 -0.9665100E+01 -0.2568960E-01  0.4543513E+00 -0.1761890E+01  0.8629618E-01  0.4460808E+00
 -0.1970410E+01 -0.9905930E+01 -0.2568960E-01  0.4673977E+00 -0.1766023E+01  0.9066987E-01  0.4585189E+00
 -0.9899710E+00 -0.1005140E+02 -0.2568960E-01  0.4778685E+00 -0.1769380E+01  0.9427437E-01  0.4684769E+00
  0.1204410E-06 -0.1010000E+02 -0.2568960E-01  0.4845614E+00 -0.1771701E+01  0.9669688E-01  0.4748152E+00
  0.9899760E+00 -0.1005140E+02 -0.2568960E-01  0.4883569E+00 -0.1772971E+01  0.9806226E-01  0.4784101E+00
  0.1970410E+01 -0.9905930E+01 -0.2568960E-01  0.4883701E+00 -0.1773084E+01  0.9811903E-01  0.4784120E+00
  0.2931880E+01 -0.9665100E+01 -0.2568960E-01  0.4857095E+00 -0.1772020E+01  0.9707798E-01  0.4759092E+00
  0.3865100E+01 -0.9331180E+01 -0.2568960E-01  0.4793015E+00 -0.1769887E+01  0.9479535E-01  0.4698338E+00
  0.4761110E+01 -0.8907410E+01 -0.2568960E-01  0.4700311E+00 -0.1766808E+01  0.9154267E-01  0.4610305E+00
  0.5611260E+01 -0.8397840E+01 -0.2568960E-01  0.4570201E+00 -0.1762852E+01  0.8723487E-01  0.4486172E+00
  0.6407370E+01 -0.7807410E+01 -0.2568960E-01  0.4414927E+00 -0.1758343E+01  0.8231603E-01  0.4337510E+00
  0.7141780E+01 -0.7141780E+01 -0.2568960E-01  0.4226873E+00 -0.1754019E+01  0.7701328E-01  0.4156122E+00
  0.7807410E+01 -0.6407370E+01 -0.2568960E-01  0.4013730E+00 -0.1750119E+01  0.7159000E-01  0.3949369E+00
  0.8397840E+01 -0.5611260E+01 -0.2568960E-01  0.3768513E+00 -0.1747349E+01  0.6618913E-01  0.3709931E+00
  0.8907410E+01 -0.4761110E+01 -0.2568960E-01  0.3503145E+00 -0.1746458E+01  0.6122072E-01  0.3449236E+00
  0.9331180E+01 -0.3865100E+01 -0.2568960E-01  0.3215347E+00 -0.1749548E+01  0.5716921E-01  0.3164115E+00
  0.9665100E+01 -0.2931870E+01 -0.2568960E-01  0.2911135E+00 -0.1757833E+01  0.5413204E-01  0.2860364E+00
  0.9905930E+01 -0.1970410E+01 -0.2568960E-01  0.2587508E+00 -0.1774698E+01  0.5239480E-01  0.2533906E+00
  0.1005140E+02 -0.9899690E+00 -0.2568960E-01  0.2256225E+00 -0.1803695E+01  0.5207344E-01  0.2195311E+00
  0.1010000E+02  0.0000000E+00 -0.1027320E+00  0.1917416E+00 -0.1852821E+01  0.5336187E-01  0.1841666E+00
  0.1005140E+02  0.9899730E+00 -0.1027320E+00  0.1592806E+00 -0.1934108E+01  0.5660380E-01  0.1488836E+00
  0.9905930E+01  0.1970410E+01 -0.1027320E+00  0.1287926E+00 -0.2070642E+01  0.6172900E-01  0.1130357E+00
  0.9665100E+01  0.2931880E+01 -0.1027320E+00  0.1033193E+00 -0.2295789E+01  0.6851418E-01  0.7733492E-01
  0.9331180E+01  0.3865100E+01 -0.1027320E+00  0.8795311E-01 -0.2636236E+01  0.7695914E-01  0.4257981E-01
  0.8907400E+01  0.4761110E+01 -0.1027320E+00  0.8729836E-01 -0.3040663E+01  0.8685409E-01  0.8796039E-02
  0.8397840E+01  0.5611260E+01 -0.1027320E+00  0.1009637E+00  0.2903802E+01  0.9812267E-01 -0.2378263E-01
  0.7807410E+01  0.6407370E+01 -0.1027320E+00  0.1231572E+00  0.2679896E+01  0.1102624E+00 -0.5486255E-01
  0.7141780E+01  0.7141780E+01 -0.1027320E+00  0.1485682E+00  0.2544610E+01  0.1228711E+00 -0.8351761E-01
  0.6407370E+01  0.7807410E+01 -0.1027320E+00  0.1746479E+00  0.2460697E+01  0.1357031E+00 -0.1099389E+00
  0.5611260E+01  0.8397840E+01 -0.1027320E+00  0.1999146E+00  0.2408089E+01  0.1485032E+00 -0.1338381E+00
  0.4761110E+01  0.8907410E+01 -0.1027320E+00  0.2236596E+00  0.2373134E+01  0.1608073E+00 -0.1554497E+00
  0.3865100E+01  0.9331180E+01 -0.1027320E+00  0.2445602E+00  0.2350874E+01  0.1720076E+00 -0.1738479E+00
  0.2931870E+01  0.9665100E+01 -0.1027320E+00  0.2626592E+00  0.2336223E+01  0.1819820E+00 -0.1894001E+00
  0.1970410E+01  0.9905930E+01 -0.1027320E+00  0.2774559E+00  0.2327236E+01  0.1904282E+00 -0.2017892E+00
  0.9899730E+00  0.1005140E+02 -0.1027320E+00  0.2892617E+00  0.2320900E+01  0.1971940E+00 -0.2116291E+00
 -0.4414850E-06  0.1010000E+02 -0.1027320E+00  0.2970922E+00  0.2317410E+01  0.2017723E+00 -0.2180636E+00
 -0.9899740E+00  0.1005140E+02 -0.1027320E+00  0.3012733E+00  0.2315703E+01  0.2042342E+00 -0.2214813E+00
 -0.1970410E+01  0.9905930E+01 -0.1027320E+00  0.3013988E+00  0.2315924E+01  0.2043683E+00 -0.2215284E+00
 -0.2931880E+01  0.9665100E+01 -0.1027320E+00  0.2982258E+00  0.2316895E+01  0.2024294E+00 -0.2190000E+00
 -0.3865100E+01  0.9331180E+01 -0.1027320E+00  0.2910657E+00  0.2320039E+01  0.1982404E+00 -0.2131197E+00
 -0.4761110E+01  0.8907400E+01 -0.1027320E+00  0.2803468E+00  0.2325417E+01  0.1920411E+00 -0.2042414E+00
 -0.5611260E+01  0.8397840E+01 -0.1027320E+00  0.2657645E+00  0.2334472E+01  0.1837977E+00 -0.1919614E+00
 -0.6407370E+01  0.7807410E+01 -0.1027320E+00  0.2483611E+00  0.2347378E+01  0.1740627E+00 -0.1771593E+00
 -0.7141780E+01  0.7141780E+01 -0.1027320E+00  0.2279455E+00  0.2367941E+01  0.1630640E+00 -0.1592774E+00
 -0.7807410E+01  0.6407370E+01 -0.1027320E+00  0.2050581E+00  0.2399256E+01  0.1511054E+00 -0.1386217E+00
 -0.8397840E+01  0.5611260E+01 -0.1027320E+00  0.1798121E+00  0.2448690E+01  0.1383465E+00 -0.1148591E+00
 -0.8907410E+01  0.4761110E+01 -0.1027320E+00  0.1536975E+00  0.2524741E+01  0.1253716E+00 -0.8890940E-01
 -0.9331180E+01  0.3865100E+01 -0.1027320E+00  0.1279694E+00  0.2647847E+01  0.1126852E+00 -0.6064826E-01
 -0.9665100E+01  0.2931880E+01 -0.1027320E+00  0.1049964E+00  0.2848262E+01  0.1005116E+00 -0.3035887E-01
 -0.9905930E+01  0.1970410E+01 -0.1027320E+00  0.8912749E-01 -0.3117812E+01  0.8910229E-01  0.2119341E-02
 -0.1005140E+02  0.9899730E+00 -0.1027320E+00  0.8656646E-01 -0.2714582E+01  0.7879347E-01  0.3585165E-01
 -0.1010000E+02 -0.8829700E-06 -0.1027320E+00  0.9935337E-01 -0.2353293E+01  0.7004928E-01  0.7045701E-01
 -0.1005140E+02 -0.9899740E+00 -0.1027320E+00  0.1230212E+00 -0.2107531E+01  0.6290468E-01  0.1057223E+00
 -0.9905930E+01 -0.1970410E+01 -0.1027320E+00  0.1528182E+00 -0.1956859E+01  0.5754268E-01  0.1415706E+00
 -0.9665100E+01 -0.2931880E+01 -0.1027320E+00  0.1852891E+00 -0.1865835E+01  0.5387774E-01  0.1772829E+00
 -0.9331180E+01 -0.3865100E+01 -0.1027320E+00  0.2183631E+00 -0.1811511E+01  0.5205705E-01  0.2120672E+00
 -0.8907400E+01 -0.4761110E+01 -0.1027320E+00  0.2513129E+00 -0.1778905E+01  0.5192366E-01  0.2458904E+00
 -0.8397840E+01 -0.5611260E+01 -0.1027320E+00  0.2836114E+00 -0.1760490E+01  0.5347728E-01  0.2785240E+00
 -0.7807400E+01 -0.6407370E+01 -0.1027320E+00  0.3147417E+00 -0.1750653E+01  0.5630374E-01  0.3096647E+00
 -0.7141780E+01 -0.7141780E+01 -0.1027320E+00  0.3436981E+00 -0.1746775E+01  0.6017177E-01  0.3383899E+00
 -0.6407370E+01 -0.7807410E+01 -0.1027320E+00  0.3706038E+00 -0.1746715E+01  0.6486025E-01  0.3648840E+00
 -0.5611260E+01 -0.8397850E+01 -0.1027320E+00  0.3951469E+00 -0.1749396E+01  0.7019841E-01  0.3888615E+00
 -0.4761110E+01 -0.8907410E+01 -0.1027320E+00  0.4174752E+00 -0.1753237E+01  0.7574256E-01  0.4105467E+00
 -0.3865100E+01 -0.9331190E+01 -0.1027320E+00  0.4366067E+00 -0.1757534E+01  0.8105770E-01  0.4290164E+00
 -0.2931870E+01 -0.9665100E+01 -0.1027320E+00  0.4528742E+00 -0.1761886E+01  0.8601367E-01  0.4446310E+00
 -0.1970410E+01 -0.9905930E+01 -0.1027320E+00  0.4659286E+00 -0.1766025E+01  0.9038592E-01  0.4570775E+00
 -0.9899710E+00 -0.1005140E+02 -0.1027320E+00  0.4763211E+00 -0.1769391E+01  0.9397428E-01  0.4669589E+00
  0.1204410E-06 -0.1010000E+02 -0.1027320E+00  0.4831439E+00 -0.1771710E+01  0.9641832E-01  0.4734253E+00
  0.9899760E+00 -0.1005140E+02 -0.1027320E+00  0.4867736E+00 -0.1772983E+01  0.9774981E-01  0.4768580E+00
  0.1970410E+01 -0.9905930E+01 -0.1027320E+00  0.4868370E+00 -0.1773098E+01  0.9781769E-01  0.4769087E+00
  0.2931880E+01 -0.9665100E+01 -0.1027320E+00  0.4841342E+00 -0.1772030E+01  0.9676772E-01  0.4743647E+00
  0.3865100E+01 -0.9331180E+01 -0.1027320E+00  0.4778984E+00 -0.1769892E+01  0.9451994E-01  0.4684579E+00
  0.4761110E+01 -0.8907410E+01 -0.1027320E+00  0.4685094E+00 -0.1766817E+01  0.9125055E-01  0.4595372E+00
  0.5611260E+01 -0.8397840E+01 -0.1027320E+00  0.4555825E+00 -0.1762849E+01  0.8695900E-01  0.4472063E+00
  0.6407370E+01 -0.7807410E+01 -0.1027320E+00  0.4400557E+00 -0.1758334E+01  0.8204414E-01  0.4323398E+00
  0.7141780E+01 -0.7141780E+01 -0.1027320E+00  0.4214404E+00 -0.1753973E+01  0.7676698E-01  0.4143898E+00
  0.7807410E+01 -0.6407370E+01 -0.1027320E+00  0.4000731E+00 -0.1750106E+01  0.7135298E-01  0.3936588E+00
  0.8397840E+01 -0.5611260E+01 -0.1027320E+00  0.3756580E+00 -0.1747301E+01  0.6596176E-01  0.3698216E+00
