 VARIABLES="X" "Y" "Z" "abs(eta) (m)" "angle(phi) (rad)" "PRE1" "PRE2"
ZONE N=   3200 ,E =    3136 ,F=FEPOINT,ET=QUADRILATERAL
  0.1010000E+02  0.0000000E+00  0.0000000E+00  0.6628093E+00 -0.1644989E+01  0.4913059E-01  0.6609859E+00
  0.1005140E+02  0.9899730E+00  0.0000000E+00  0.6484422E+00 -0.1637154E+01  0.4299773E-01  0.6470150E+00
  0.9905930E+01  0.1970410E+01  0.0000000E+00  0.6296875E+00 -0.1627179E+01  0.3548441E-01  0.6286869E+00
  0.9665100E+01  0.2931880E+01  0.0000000E+00  0.6069564E+00 -0.1615969E+01  0.2740854E-01  0.6063372E+00
  0.9331180E+01  0.3865100E+01  0.0000000E+00  0.5803505E+00 -0.1604625E+01  0.1962871E-01  0.5800184E+00
  0.8907400E+01  0.4761110E+01  0.0000000E+00  0.5503651E+00 -0.1593371E+01  0.1242314E-01  0.5502248E+00
  0.8397840E+01  0.5611260E+01  0.0000000E+00  0.5160516E+00 -0.1582407E+01  0.5991460E-02  0.5160168E+00
  0.7807410E+01  0.6407370E+01  0.0000000E+00  0.4782094E+00 -0.1573463E+01  0.1275173E-02  0.4782077E+00
  0.7141780E+01  0.7141780E+01  0.0000000E+00  0.4374368E+00 -0.1569202E+01 -0.6972905E-03  0.4374363E+00
  0.6407370E+01  0.7807410E+01  0.0000000E+00  0.3940701E+00 -0.1570977E+01  0.7116149E-04  0.3940701E+00
  0.5611260E+01  0.8397840E+01  0.0000000E+00  0.3475702E+00 -0.1582341E+01  0.4012463E-02  0.3475470E+00
  0.4761110E+01  0.8907410E+01  0.0000000E+00  0.2994136E+00 -0.1609236E+01  0.1150651E-01  0.2991924E+00
  0.3865100E+01  0.9331180E+01  0.0000000E+00  0.2513719E+00 -0.1662537E+01  0.2302876E-01  0.2503149E+00
  0.2931870E+01  0.9665100E+01  0.0000000E+00  0.2045877E+00 -0.1758788E+01  0.3823467E-01  0.2009831E+00
  0.1970410E+01  0.9905930E+01  0.0000000E+00  0.1616881E+00 -0.1934090E+01  0.5745662E-01  0.1511350E+00
  0.9899730E+00  0.1005140E+02  0.0000000E+00  0.1298561E+00 -0.2235382E+01  0.8008653E-01  0.1022192E+00
 -0.4414850E-06  0.1010000E+02  0.0000000E+00  0.1193666E+00 -0.2656502E+01  0.1055956E+00  0.5565927E-01
 -0.9899740E+00  0.1005140E+02  0.0000000E+00  0.1339677E+00 -0.3059103E+01  0.1335122E+00  0.1103838E-01
 -0.1970410E+01  0.9905930E+01  0.0000000E+00  0.1667477E+00  0.2952559E+01  0.1637773E+00 -0.3133358E-01
 -0.2931880E+01  0.9665100E+01  0.0000000E+00  0.2074304E+00  0.2794554E+01  0.1950642E+00 -0.7055002E-01
 -0.3865100E+01  0.9331180E+01  0.0000000E+00  0.2495379E+00  0.2704625E+01  0.2260911E+00 -0.1056029E+00
 -0.4761110E+01  0.8907400E+01  0.0000000E+00  0.2910825E+00  0.2650063E+01  0.2566218E+00 -0.1373837E+00
 -0.5611260E+01  0.8397840E+01  0.0000000E+00  0.3305660E+00  0.2617510E+01  0.2861986E+00 -0.1654214E+00
 -0.6407370E+01  0.7807410E+01  0.0000000E+00  0.3663384E+00  0.2597947E+01  0.3135228E+00 -0.1894921E+00
 -0.7141780E+01  0.7141780E+01  0.0000000E+00  0.3968821E+00  0.2586532E+01  0.3372976E+00 -0.2091547E+00
 -0.7807410E+01  0.6407370E+01  0.0000000E+00  0.4228297E+00  0.2579242E+01  0.3577156E+00 -0.2254429E+00
 -0.8397840E+01  0.5611260E+01  0.0000000E+00  0.4432708E+00  0.2575435E+01  0.3741064E+00 -0.2377675E+00
 -0.8907410E+01  0.4761110E+01  0.0000000E+00  0.4577792E+00  0.2573533E+01  0.3858834E+00 -0.2462839E+00
 -0.9331180E+01  0.3865100E+01  0.0000000E+00  0.4656412E+00  0.2572875E+01  0.3923456E+00 -0.2507722E+00
 -0.9665100E+01  0.2931880E+01  0.0000000E+00  0.4678143E+00  0.2572378E+01  0.3940514E+00 -0.2521382E+00
 -0.9905930E+01  0.1970410E+01  0.0000000E+00  0.4633220E+00  0.2572748E+01  0.3903599E+00 -0.2495726E+00
 -0.1005140E+02  0.9899730E+00  0.0000000E+00  0.4525682E+00  0.2574067E+01  0.3816208E+00 -0.2432767E+00
 -0.1010000E+02 -0.8829700E-06  0.0000000E+00  0.4356422E+00  0.2577098E+01  0.3680562E+00 -0.2330639E+00
 -0.1005140E+02 -0.9899740E+00  0.0000000E+00  0.4134764E+00  0.2581713E+01  0.3503464E+00 -0.2195908E+00
 -0.9905930E+01 -0.1970410E+01  0.0000000E+00  0.3852526E+00  0.2590098E+01  0.3281360E+00 -0.2018572E+00
 -0.9665100E+01 -0.2931880E+01  0.0000000E+00  0.3521200E+00  0.2604484E+01  0.3025385E+00 -0.1801635E+00
 -0.9331180E+01 -0.3865100E+01  0.0000000E+00  0.3151217E+00  0.2629047E+01  0.2746282E+00 -0.1545349E+00
 -0.8907400E+01 -0.4761110E+01  0.0000000E+00  0.2752453E+00  0.2668209E+01  0.2449768E+00 -0.1254845E+00
 -0.8397840E+01 -0.5611260E+01  0.0000000E+00  0.2326243E+00  0.2734928E+01  0.2136527E+00 -0.9201419E-01
 -0.7807400E+01 -0.6407370E+01  0.0000000E+00  0.1901376E+00  0.2848718E+01  0.1820412E+00 -0.5489375E-01
 -0.7141780E+01 -0.7141780E+01  0.0000000E+00  0.1522663E+00  0.3044678E+01  0.1515518E+00 -0.1473370E-01
 -0.6407370E+01 -0.7807410E+01  0.0000000E+00  0.1255961E+00 -0.2916190E+01  0.1224190E+00  0.2807063E-01
 -0.5611260E+01 -0.8397850E+01  0.0000000E+00  0.1205576E+00 -0.2479225E+01  0.9506427E-01  0.7414120E-01
 -0.4761110E+01 -0.8907410E+01  0.0000000E+00  0.1410026E+00 -0.2093411E+01  0.7038116E-01  0.1221812E+00
 -0.3865100E+01 -0.9331190E+01  0.0000000E+00  0.1778744E+00 -0.1851876E+01  0.4934107E-01  0.1708940E+00
 -0.2931870E+01 -0.9665100E+01  0.0000000E+00  0.2224409E+00 -0.1713997E+01  0.3174492E-01  0.2201640E+00
 -0.1970410E+01 -0.9905930E+01  0.0000000E+00  0.2707063E+00 -0.1637445E+01  0.1802889E-01  0.2701053E+00
 -0.9899710E+00 -0.1005140E+02  0.0000000E+00  0.3193731E+00 -0.1596171E+01  0.8103269E-02  0.3192703E+00
  0.1204410E-06 -0.1010000E+02  0.0000000E+00  0.3662223E+00 -0.1576158E+01  0.1963706E-02  0.3662170E+00
  0.9899760E+00 -0.1005140E+02  0.0000000E+00  0.4113042E+00 -0.1568787E+01 -0.8265440E-03  0.4113034E+00
  0.1970410E+01 -0.9905930E+01  0.0000000E+00  0.4542557E+00 -0.1570530E+01 -0.1209316E-03  0.4542557E+00
  0.2931880E+01 -0.9665100E+01  0.0000000E+00  0.4941533E+00 -0.1577245E+01  0.3186718E-02  0.4941430E+00
  0.3865100E+01 -0.9331180E+01  0.0000000E+00  0.5299819E+00 -0.1586455E+01  0.8298652E-02  0.5299169E+00
  0.4761110E+01 -0.8907410E+01  0.0000000E+00  0.5626055E+00 -0.1597269E+01  0.1489218E-01  0.5624084E+00
  0.5611260E+01 -0.8397840E+01  0.0000000E+00  0.5916086E+00 -0.1609321E+01  0.2278562E-01  0.5911697E+00
  0.6407370E+01 -0.7807410E+01  0.0000000E+00  0.6167225E+00 -0.1621035E+01  0.3097038E-01  0.6159444E+00
  0.7141780E+01 -0.7141780E+01  0.0000000E+00  0.6374134E+00 -0.1631244E+01  0.3850675E-01  0.6362492E+00
  0.7807410E+01 -0.6407370E+01  0.0000000E+00  0.6546443E+00 -0.1640204E+01  0.4540087E-01  0.6530680E+00
  0.8397840E+01 -0.5611260E+01  0.0000000E+00  0.6678040E+00 -0.1647670E+01  0.5128616E-01  0.6658317E+00
  0.8907410E+01 -0.4761110E+01  0.0000000E+00  0.6769689E+00 -0.1653124E+01  0.5567067E-01  0.6746759E+00
  0.9331180E+01 -0.3865100E+01  0.0000000E+00  0.6818364E+00 -0.1656028E+01  0.5804389E-01  0.6793613E+00
  0.9665100E+01 -0.2931870E+01  0.0000000E+00  0.6832828E+00 -0.1656804E+01  0.5869538E-01  0.6807571E+00
  0.9905930E+01 -0.1970410E+01  0.0000000E+00  0.6804987E+00 -0.1655059E+01  0.5727277E-01  0.6780843E+00
  0.1005140E+02 -0.9899690E+00  0.0000000E+00  0.6737226E+00 -0.1651057E+01  0.5401539E-01  0.6715537E+00
  0.1010000E+02  0.0000000E+00 -0.2568960E-01  0.6617870E+00 -0.1645025E+01  0.4907874E-01  0.6599647E+00
  0.1005140E+02  0.9899730E+00 -0.2568960E-01  0.6474580E+00 -0.1637193E+01  0.4295753E-01  0.6460314E+00
  0.9905930E+01  0.1970410E+01 -0.2568960E-01  0.6286539E+00 -0.1627201E+01  0.3544016E-01  0.6276541E+00
  0.9665100E+01  0.2931880E+01 -0.2568960E-01  0.6060333E+00 -0.1616001E+01  0.2738597E-01  0.6054142E+00
  0.9331180E+01  0.3865100E+01 -0.2568960E-01  0.5794525E+00 -0.1604651E+01  0.1961326E-01  0.5791204E+00
  0.8907400E+01  0.4761110E+01 -0.2568960E-01  0.5495245E+00 -0.1593390E+01  0.1241499E-01  0.5493842E+00
  0.8397840E+01  0.5611260E+01 -0.2568960E-01  0.5152047E+00 -0.1582437E+01  0.5997374E-02  0.5151698E+00
  0.7807410E+01  0.6407370E+01 -0.2568960E-01  0.4774752E+00 -0.1573470E+01  0.1276766E-02  0.4774735E+00
  0.7141780E+01  0.7141780E+01 -0.2568960E-01  0.4367523E+00 -0.1569211E+01 -0.6925294E-03  0.4367517E+00
  0.6407370E+01  0.7807410E+01 -0.2568960E-01  0.3934564E+00 -0.1570966E+01  0.6686799E-04  0.3934564E+00
  0.5611260E+01  0.8397840E+01 -0.2568960E-01  0.3469991E+00 -0.1582390E+01  0.4022966E-02  0.3469757E+00
  0.4761110E+01  0.8907410E+01 -0.2568960E-01  0.2989374E+00 -0.1609209E+01  0.1148009E-01  0.2987169E+00
  0.3865100E+01  0.9331180E+01 -0.2568960E-01  0.2509628E+00 -0.1662531E+01  0.2298971E-01  0.2499076E+00
  0.2931870E+01  0.9665100E+01 -0.2568960E-01  0.2042439E+00 -0.1758764E+01  0.3816562E-01  0.2006463E+00
  0.1970410E+01  0.9905930E+01 -0.2568960E-01  0.1614276E+00 -0.1934199E+01  0.5738059E-01  0.1508852E+00
  0.9899730E+00  0.1005140E+02 -0.2568960E-01  0.1296222E+00 -0.2235501E+01  0.7995441E-01  0.1020255E+00
 -0.4414850E-06  0.1010000E+02 -0.2568960E-01  0.1191646E+00 -0.2656749E+01  0.1054307E+00  0.5553907E-01
 -0.9899740E+00  0.1005140E+02 -0.2568960E-01  0.1337543E+00 -0.3059451E+01  0.1333034E+00  0.1097450E-01
 -0.1970410E+01  0.9905930E+01 -0.2568960E-01  0.1664924E+00  0.2952567E+01  0.1635268E+00 -0.3128432E-01
 -0.2931880E+01  0.9665100E+01 -0.2568960E-01  0.2071323E+00  0.2794319E+01  0.1947673E+00 -0.7049447E-01
 -0.3865100E+01  0.9331180E+01 -0.2568960E-01  0.2491767E+00  0.2704480E+01  0.2257486E+00 -0.1054828E+00
 -0.4761110E+01  0.8907400E+01 -0.2568960E-01  0.2906728E+00  0.2649904E+01  0.2562389E+00 -0.1372309E+00
 -0.5611260E+01  0.8397840E+01 -0.2568960E-01  0.3300405E+00  0.2617532E+01  0.2857473E+00 -0.1651521E+00
 -0.6407370E+01  0.7807410E+01 -0.2568960E-01  0.3658222E+00  0.2597831E+01  0.3130592E+00 -0.1892612E+00
 -0.7141780E+01  0.7141780E+01 -0.2568960E-01  0.3963071E+00  0.2586454E+01  0.3367927E+00 -0.2088779E+00
 -0.7807410E+01  0.6407370E+01 -0.2568960E-01  0.4222338E+00  0.2579149E+01  0.3571906E+00 -0.2251583E+00
 -0.8397840E+01  0.5611260E+01 -0.2568960E-01  0.4425599E+00  0.2575453E+01  0.3735107E+00 -0.2373795E+00
 -0.8907410E+01  0.4761110E+01 -0.2568960E-01  0.4571327E+00  0.2573452E+01  0.3853185E+00 -0.2459672E+00
 -0.9331180E+01  0.3865100E+01 -0.2568960E-01  0.4649640E+00  0.2572813E+01  0.3917594E+00 -0.2504318E+00
 -0.9665100E+01  0.2931880E+01 -0.2568960E-01  0.4671537E+00  0.2572300E+01  0.3934754E+00 -0.2518129E+00
 -0.9905930E+01  0.1970410E+01 -0.2568960E-01  0.4625779E+00  0.2572767E+01  0.3897376E+00 -0.2491644E+00
 -0.1005140E+02  0.9899730E+00 -0.2568960E-01  0.4519294E+00  0.2573984E+01  0.3810619E+00 -0.2429650E+00
 -0.1010000E+02 -0.8829700E-06 -0.2568960E-01  0.4350097E+00  0.2577029E+01  0.3675058E+00 -0.2327508E+00
 -0.1005140E+02 -0.9899740E+00 -0.2568960E-01  0.4128935E+00  0.2581616E+01  0.3498312E+00 -0.2193153E+00
 -0.9905930E+01 -0.1970410E+01 -0.2568960E-01  0.3846370E+00  0.2590118E+01  0.3276157E+00 -0.2015282E+00
 -0.9665100E+01 -0.2931880E+01 -0.2568960E-01  0.3516244E+00  0.2604360E+01  0.3020904E+00 -0.1799475E+00
 -0.9331180E+01 -0.3865100E+01 -0.2568960E-01  0.3146657E+00  0.2628937E+01  0.2742138E+00 -0.1543415E+00
 -0.8907400E+01 -0.4761110E+01 -0.2568960E-01  0.2748561E+00  0.2668039E+01  0.2446091E+00 -0.1253485E+00
 -0.8397840E+01 -0.5611260E+01 -0.2568960E-01  0.2322604E+00  0.2734950E+01  0.2133205E+00 -0.9186554E-01
 -0.7807400E+01 -0.6407370E+01 -0.2568960E-01  0.1898628E+00  0.2848456E+01  0.1817636E+00 -0.5486209E-01
 -0.7141780E+01 -0.7141780E+01 -0.2568960E-01  0.1520358E+00  0.3044427E+01  0.1513187E+00 -0.1474944E-01
 -0.6407370E+01 -0.7807410E+01 -0.2568960E-01  0.1253880E+00 -0.2916523E+01  0.1222256E+00  0.2798343E-01
 -0.5611260E+01 -0.8397850E+01 -0.2568960E-01  0.1203727E+00 -0.2479332E+01  0.9492644E-01  0.7401735E-01
 -0.4761110E+01 -0.8907410E+01 -0.2568960E-01  0.1407502E+00 -0.2093483E+01  0.7026391E-01  0.1219573E+00
 -0.3865100E+01 -0.9331190E+01 -0.2568960E-01  0.1775731E+00 -0.1851895E+01  0.4926077E-01  0.1706035E+00
 -0.2931870E+01 -0.9665100E+01 -0.2568960E-01  0.2220738E+00 -0.1713966E+01  0.3168584E-01  0.2198017E+00
 -0.1970410E+01 -0.9905930E+01 -0.2568960E-01  0.2702621E+00 -0.1637509E+01  0.1801665E-01  0.2696609E+00
 -0.9899710E+00 -0.1005140E+02 -0.2568960E-01  0.3188672E+00 -0.1596147E+01  0.8082759E-02  0.3187648E+00
  0.1204410E-06 -0.1010000E+02 -0.2568960E-01  0.3656431E+00 -0.1576159E+01  0.1960769E-02  0.3656379E+00
  0.9899760E+00 -0.1005140E+02 -0.2568960E-01  0.4106674E+00 -0.1568781E+01 -0.8277801E-03  0.4106666E+00
  0.1970410E+01 -0.9905930E+01 -0.2568960E-01  0.4535097E+00 -0.1570566E+01 -0.1043585E-03  0.4535097E+00
  0.2931880E+01 -0.9665100E+01 -0.2568960E-01  0.4933952E+00 -0.1577254E+01  0.3186308E-02  0.4933849E+00
  0.3865100E+01 -0.9331180E+01 -0.2568960E-01  0.5291589E+00 -0.1586475E+01  0.8296302E-02  0.5290939E+00
  0.4761110E+01 -0.8907410E+01 -0.2568960E-01  0.5617482E+00 -0.1597293E+01  0.1488275E-01  0.5615510E+00
  0.5611260E+01 -0.8397840E+01 -0.2568960E-01  0.5906378E+00 -0.1609346E+01  0.2276301E-01  0.5901990E+00
  0.6407370E+01 -0.7807410E+01 -0.2568960E-01  0.6157845E+00 -0.1621068E+01  0.3094336E-01  0.6150066E+00
  0.7141780E+01 -0.7141780E+01 -0.2568960E-01  0.6364293E+00 -0.1631277E+01  0.3846844E-01  0.6352656E+00
  0.7807410E+01 -0.6407370E+01 -0.2568960E-01  0.6536509E+00 -0.1640245E+01  0.4535861E-01  0.6520753E+00
  0.8397840E+01 -0.5611260E+01 -0.2568960E-01  0.6667080E+00 -0.1647691E+01  0.5121560E-01  0.6647379E+00
  0.8907410E+01 -0.4761110E+01 -0.2568960E-01  0.6759421E+00 -0.1653169E+01  0.5561630E-01  0.6736502E+00
  0.9331180E+01 -0.3865100E+01 -0.2568960E-01  0.6807851E+00 -0.1656067E+01  0.5798066E-01  0.6783116E+00
  0.9665100E+01 -0.2931870E+01 -0.2568960E-01  0.6822466E+00 -0.1656850E+01  0.5863748E-01  0.6797220E+00
  0.9905930E+01 -0.1970410E+01 -0.2568960E-01  0.6793820E+00 -0.1655079E+01  0.5719213E-01  0.6769705E+00
  0.1005140E+02 -0.9899690E+00 -0.2568960E-01  0.6726997E+00 -0.1651101E+01  0.5396316E-01  0.6705317E+00
  0.1010000E+02  0.0000000E+00 -0.1027320E+00  0.6587894E+00 -0.1645128E+01  0.4892356E-01  0.6569703E+00
  0.1005140E+02  0.9899730E+00 -0.1027320E+00  0.6444507E+00 -0.1637267E+01  0.4280530E-01  0.6430275E+00
  0.9905930E+01  0.1970410E+01 -0.1027320E+00  0.6256821E+00 -0.1627263E+01  0.3531157E-01  0.6246849E+00
  0.9665100E+01  0.2931880E+01 -0.1027320E+00  0.6032173E+00 -0.1616064E+01  0.2729702E-01  0.6025994E+00
  0.9331180E+01  0.3865100E+01 -0.1027320E+00  0.5768161E+00 -0.1604699E+01  0.1955183E-01  0.5764846E+00
  0.8907400E+01  0.4761110E+01 -0.1027320E+00  0.5469593E+00 -0.1593420E+01  0.1237305E-01  0.5468194E+00
  0.8397840E+01  0.5611260E+01 -0.1027320E+00  0.5127594E+00 -0.1582467E+01  0.5983918E-02  0.5127245E+00
  0.7807410E+01  0.6407370E+01 -0.1027320E+00  0.4752421E+00 -0.1573479E+01  0.1274840E-02  0.4752404E+00
  0.7141780E+01  0.7141780E+01 -0.1027320E+00  0.4347385E+00 -0.1569162E+01 -0.7104572E-03  0.4347379E+00
  0.6407370E+01  0.7807410E+01 -0.1027320E+00  0.3915934E+00 -0.1570927E+01  0.5124508E-04  0.3915934E+00
  0.5611260E+01  0.8397840E+01 -0.1027320E+00  0.3453324E+00 -0.1582373E+01  0.3997627E-02  0.3453093E+00
  0.4761110E+01  0.8907410E+01 -0.1027320E+00  0.2975067E+00 -0.1609135E+01  0.1140335E-01  0.2972881E+00
  0.3865100E+01  0.9331180E+01 -0.1027320E+00  0.2497433E+00 -0.1662355E+01  0.2283421E-01  0.2486973E+00
  0.2931870E+01  0.9665100E+01 -0.1027320E+00  0.2032233E+00 -0.1758694E+01  0.3796088E-01  0.1996464E+00
  0.1970410E+01  0.9905930E+01 -0.1027320E+00  0.1606144E+00 -0.1934239E+01  0.5709749E-01  0.1501228E+00
  0.9899730E+00  0.1005140E+02 -0.1027320E+00  0.1289443E+00 -0.2235685E+01  0.7955501E-01  0.1014773E+00
 -0.4414850E-06  0.1010000E+02 -0.1027320E+00  0.1185261E+00 -0.2657492E+01  0.1049068E+00  0.5516356E-01
 -0.9899740E+00  0.1005140E+02 -0.1027320E+00  0.1331106E+00 -0.3060176E+01  0.1326697E+00  0.1082541E-01
 -0.1970410E+01  0.9905930E+01 -0.1027320E+00  0.1657195E+00  0.2952158E+01  0.1627549E+00 -0.3120562E-01
 -0.2931880E+01  0.9665100E+01 -0.1027320E+00  0.2061966E+00  0.2793840E+01  0.1938539E+00 -0.7026894E-01
 -0.3865100E+01  0.9331180E+01 -0.1027320E+00  0.2481031E+00  0.2703892E+01  0.2247141E+00 -0.1051606E+00
 -0.4761110E+01  0.8907400E+01 -0.1027320E+00  0.2893899E+00  0.2649575E+01  0.2550629E+00 -0.1367093E+00
 -0.5611260E+01  0.8397840E+01 -0.1027320E+00  0.3285400E+00  0.2617358E+01  0.2844195E+00 -0.1644508E+00
 -0.6407370E+01  0.7807410E+01 -0.1027320E+00  0.3642016E+00  0.2597589E+01  0.3116266E+00 -0.1884985E+00
 -0.7141780E+01  0.7141780E+01 -0.1027320E+00  0.3946237E+00  0.2586129E+01  0.3352944E+00 -0.2080998E+00
 -0.7807410E+01  0.6407370E+01 -0.1027320E+00  0.4203691E+00  0.2578954E+01  0.3555695E+00 -0.2242333E+00
 -0.8397840E+01  0.5611260E+01 -0.1027320E+00  0.4405459E+00  0.2575345E+01  0.3717854E+00 -0.2363393E+00
 -0.8907410E+01  0.4761110E+01 -0.1027320E+00  0.4551104E+00  0.2573280E+01  0.3835717E+00 -0.2449453E+00
 -0.9331180E+01  0.3865100E+01 -0.1027320E+00  0.4629900E+00  0.2572557E+01  0.3900326E+00 -0.2494682E+00
 -0.9665100E+01  0.2931880E+01 -0.1027320E+00  0.4650872E+00  0.2572133E+01  0.3916928E+00 -0.2507644E+00
 -0.9905930E+01  0.1970410E+01 -0.1027320E+00  0.4604726E+00  0.2572667E+01  0.3879392E+00 -0.2480690E+00
 -0.1005140E+02  0.9899730E+00 -0.1027320E+00  0.4499325E+00  0.2573809E+01  0.3793359E+00 -0.2419578E+00
 -0.1010000E+02 -0.8829700E-06 -0.1027320E+00  0.4331623E+00  0.2576746E+01  0.3658794E+00 -0.2318660E+00
 -0.1005140E+02 -0.9899740E+00 -0.1027320E+00  0.4110647E+00  0.2581411E+01  0.3482370E+00 -0.2184152E+00
 -0.9905930E+01 -0.1970410E+01 -0.1027320E+00  0.3828879E+00  0.2589981E+01  0.3260984E+00 -0.2006564E+00
 -0.9665100E+01 -0.2931880E+01 -0.1027320E+00  0.3500738E+00  0.2604106E+01  0.3007128E+00 -0.1792303E+00
 -0.9331180E+01 -0.3865100E+01 -0.1027320E+00  0.3133246E+00  0.2628492E+01  0.2729768E+00 -0.1538049E+00
 -0.8907400E+01 -0.4761110E+01 -0.1027320E+00  0.2736318E+00  0.2667689E+01  0.2434759E+00 -0.1248755E+00
 -0.8397840E+01 -0.5611260E+01 -0.1027320E+00  0.2312004E+00  0.2734669E+01  0.2123212E+00 -0.9150585E-01
 -0.7807400E+01 -0.6407370E+01 -0.1027320E+00  0.1890079E+00  0.2847908E+01  0.1809153E+00 -0.5471411E-01
 -0.7141780E+01 -0.7141780E+01 -0.1027320E+00  0.1513259E+00  0.3043491E+01  0.1505983E+00 -0.1482154E-01
 -0.6407370E+01 -0.7807410E+01 -0.1027320E+00  0.1247641E+00 -0.2917158E+01  0.1216350E+00  0.2776691E-01
 -0.5611260E+01 -0.8397850E+01 -0.1027320E+00  0.1197613E+00 -0.2479670E+01  0.9446916E-01  0.7360943E-01
 -0.4761110E+01 -0.8907410E+01 -0.1027320E+00  0.1400137E+00 -0.2093618E+01  0.6991253E-01  0.1213098E+00
 -0.3865100E+01 -0.9331190E+01 -0.1027320E+00  0.1766604E+00 -0.1851754E+01  0.4898373E-01  0.1697336E+00
 -0.2931870E+01 -0.9665100E+01 -0.1027320E+00  0.2209844E+00 -0.1713873E+01  0.3150988E-01  0.2187264E+00
 -0.1970410E+01 -0.9905930E+01 -0.1027320E+00  0.2689483E+00 -0.1637478E+01  0.1792064E-01  0.2683506E+00
 -0.9899710E+00 -0.1005140E+02 -0.1027320E+00  0.3173374E+00 -0.1596078E+01  0.8021928E-02  0.3172360E+00
  0.1204410E-06 -0.1010000E+02 -0.1027320E+00  0.3639355E+00 -0.1576058E+01  0.1914737E-02  0.3639304E+00
  0.9899760E+00 -0.1005140E+02 -0.1027320E+00  0.4087364E+00 -0.1568759E+01 -0.8328442E-03  0.4087355E+00
  0.1970410E+01 -0.9905930E+01 -0.1027320E+00  0.4513508E+00 -0.1570578E+01 -0.9863995E-04  0.4513508E+00
  0.2931880E+01 -0.9665100E+01 -0.1027320E+00  0.4910830E+00 -0.1577258E+01  0.3173433E-02  0.4910727E+00
  0.3865100E+01 -0.9331180E+01 -0.1027320E+00  0.5267435E+00 -0.1586490E+01  0.8266082E-02  0.5266786E+00
  0.4761110E+01 -0.8907410E+01 -0.1027320E+00  0.5591333E+00 -0.1597338E+01  0.1483845E-01  0.5589364E+00
  0.5611260E+01 -0.8397840E+01 -0.1027320E+00  0.5878425E+00 -0.1609396E+01  0.2268513E-01  0.5874046E+00
  0.6407370E+01 -0.7807410E+01 -0.1027320E+00  0.6129200E+00 -0.1621126E+01  0.3083530E-01  0.6121439E+00
  0.7141780E+01 -0.7141780E+01 -0.1027320E+00  0.6335437E+00 -0.1631363E+01  0.3834812E-01  0.6323820E+00
  0.7807410E+01 -0.6407370E+01 -0.1027320E+00  0.6506173E+00 -0.1640327E+01  0.4520169E-01  0.6490452E+00
  0.8397840E+01 -0.5611260E+01 -0.1027320E+00  0.6635579E+00 -0.1647764E+01  0.5102226E-01  0.6615934E+00
