 VARIABLES="X" "Y" "Z" "abs(eta) (m)" "angle(phi) (rad)" "PRE1" "PRE2"
ZONE N=   3200 ,E =    3136 ,F=FEPOINT,ET=QUADRILATERAL
  0.1010000E+02  0.0000000E+00  0.0000000E+00  0.8663905E-01 -0.2961773E+01  0.8524209E-01  0.1549557E-01
  0.1005140E+02  0.9899730E+00  0.0000000E+00  0.9772092E-01  0.2961965E+01  0.9614862E-01 -0.1745915E-01
  0.9905930E+01  0.1970410E+01  0.0000000E+00  0.1187127E+00  0.2718145E+01  0.1082277E+00 -0.4877974E-01
  0.9665100E+01  0.2931880E+01  0.0000000E+00  0.1441244E+00  0.2566364E+01  0.1209302E+00 -0.7840749E-01
  0.9331180E+01  0.3865100E+01  0.0000000E+00  0.1702061E+00  0.2475155E+01  0.1337869E+00 -0.1052198E+00
  0.8907400E+01  0.4761110E+01  0.0000000E+00  0.1958900E+00  0.2416314E+01  0.1465873E+00 -0.1299425E+00
  0.8397840E+01  0.5611260E+01  0.0000000E+00  0.2198164E+00  0.2379502E+01  0.1590139E+00 -0.1517690E+00
  0.7807410E+01  0.6407370E+01  0.0000000E+00  0.2417543E+00  0.2354558E+01  0.1706661E+00 -0.1712257E+00
  0.7141780E+01  0.7141780E+01  0.0000000E+00  0.2602903E+00  0.2339112E+01  0.1808822E+00 -0.1871701E+00
  0.6407370E+01  0.7807410E+01  0.0000000E+00  0.2761295E+00  0.2328312E+01  0.1897338E+00 -0.2006205E+00
  0.5611260E+01  0.8397840E+01  0.0000000E+00  0.2882017E+00  0.2322206E+01  0.1967465E+00 -0.2105969E+00
  0.4761110E+01  0.8907410E+01  0.0000000E+00  0.2971729E+00  0.2317880E+01  0.2019297E+00 -0.2180278E+00
  0.3865100E+01  0.9331180E+01  0.0000000E+00  0.3018326E+00  0.2316226E+01  0.2047294E+00 -0.2217855E+00
  0.2931870E+01  0.9665100E+01  0.0000000E+00  0.3032343E+00  0.2315416E+01  0.2054996E+00 -0.2229820E+00
  0.1970410E+01  0.9905930E+01  0.0000000E+00  0.3002818E+00  0.2316844E+01  0.2038136E+00 -0.2205202E+00
  0.9899730E+00  0.1005140E+02  0.0000000E+00  0.2940732E+00  0.2319152E+01  0.2000976E+00 -0.2154994E+00
 -0.4414850E-06  0.1010000E+02  0.0000000E+00  0.2837454E+00  0.2324446E+01  0.1941683E+00 -0.2069061E+00
 -0.9899740E+00  0.1005140E+02  0.0000000E+00  0.2703854E+00  0.2331961E+01  0.1865024E+00 -0.1957680E+00
 -0.1970410E+01  0.9905930E+01  0.0000000E+00  0.2531027E+00  0.2344727E+01  0.1769065E+00 -0.1810112E+00
 -0.2931880E+01  0.9665100E+01  0.0000000E+00  0.2332137E+00  0.2363059E+01  0.1660350E+00 -0.1637712E+00
 -0.3865100E+01  0.9331180E+01  0.0000000E+00  0.2104865E+00  0.2392513E+01  0.1541426E+00 -0.1433340E+00
 -0.4761110E+01  0.8907400E+01  0.0000000E+00  0.1860137E+00  0.2436284E+01  0.1416329E+00 -0.1205869E+00
 -0.5611260E+01  0.8397840E+01  0.0000000E+00  0.1596890E+00  0.2507131E+01  0.1286120E+00 -0.9465474E-01
 -0.6407370E+01  0.7807410E+01  0.0000000E+00  0.1335126E+00  0.2618593E+01  0.1156652E+00 -0.6668702E-01
 -0.7141780E+01  0.7141780E+01  0.0000000E+00  0.1095745E+00  0.2802106E+01  0.1033206E+00 -0.3648861E-01
 -0.7807410E+01  0.6407370E+01  0.0000000E+00  0.9185348E-01  0.3090261E+01  0.9173250E-01 -0.4712871E-02
 -0.8397840E+01  0.5611260E+01  0.0000000E+00  0.8626416E-01 -0.2797793E+01  0.8121604E-01  0.2907677E-01
 -0.8907410E+01  0.4761110E+01  0.0000000E+00  0.9624282E-01 -0.2415884E+01  0.7199242E-01  0.6387310E-01
 -0.9331180E+01  0.3865100E+01  0.0000000E+00  0.1183756E+00 -0.2147396E+01  0.6453562E-01  0.9923679E-01
 -0.9665100E+01  0.2931880E+01  0.0000000E+00  0.1471131E+00 -0.1981244E+01  0.5870100E-01  0.1348942E+00
 -0.9905930E+01  0.1970410E+01  0.0000000E+00  0.1793489E+00 -0.1881210E+01  0.5478264E-01  0.1707774E+00
 -0.1005140E+02  0.9899730E+00  0.0000000E+00  0.2128105E+00 -0.1820336E+01  0.5255524E-01  0.2062189E+00
 -0.1010000E+02 -0.8829700E-06  0.0000000E+00  0.2459230E+00 -0.1784438E+01  0.5214061E-01  0.2403320E+00
 -0.1005140E+02 -0.9899740E+00  0.0000000E+00  0.2784672E+00 -0.1763116E+01  0.5322527E-01  0.2733332E+00
 -0.9905930E+01 -0.1970410E+01  0.0000000E+00  0.3098002E+00 -0.1752197E+01  0.5589020E-01  0.3047170E+00
 -0.9665100E+01 -0.2931880E+01  0.0000000E+00  0.3396893E+00 -0.1747298E+01  0.5964508E-01  0.3344118E+00
 -0.9331180E+01 -0.3865100E+01  0.0000000E+00  0.3669646E+00 -0.1746707E+01  0.6422051E-01  0.3613015E+00
 -0.8907400E+01 -0.4761110E+01  0.0000000E+00  0.3922768E+00 -0.1748546E+01  0.6936066E-01  0.3860961E+00
 -0.8397840E+01 -0.5611260E+01  0.0000000E+00  0.4148179E+00 -0.1752347E+01  0.7489761E-01  0.4080003E+00
 -0.7807400E+01 -0.6407370E+01  0.0000000E+00  0.4350246E+00 -0.1756711E+01  0.8041225E-01  0.4275281E+00
 -0.7141780E+01 -0.7141780E+01  0.0000000E+00  0.4516962E+00 -0.1761103E+01  0.8544300E-01  0.4435413E+00
 -0.6407370E+01 -0.7807410E+01  0.0000000E+00  0.4658148E+00 -0.1765145E+01  0.8996164E-01  0.4570452E+00
 -0.5611260E+01 -0.8397850E+01  0.0000000E+00  0.4763677E+00 -0.1768695E+01  0.9365849E-01  0.4670699E+00
 -0.4761110E+01 -0.8907410E+01  0.0000000E+00  0.4842345E+00 -0.1771309E+01  0.9644576E-01  0.4745327E+00
 -0.3865100E+01 -0.9331190E+01  0.0000000E+00  0.4882385E+00 -0.1772779E+01  0.9794675E-01  0.4783129E+00
 -0.2931870E+01 -0.9665100E+01  0.0000000E+00  0.4894964E+00 -0.1773139E+01  0.9837148E-01  0.4795099E+00
 -0.1970410E+01 -0.9905930E+01  0.0000000E+00  0.4868912E+00 -0.1772298E+01  0.9744684E-01  0.4770400E+00
 -0.9899710E+00 -0.1005140E+02  0.0000000E+00  0.4815455E+00 -0.1770318E+01  0.9544272E-01  0.4719924E+00
  0.1204410E-06 -0.1010000E+02  0.0000000E+00  0.4724669E+00 -0.1767413E+01  0.9229746E-01  0.4633640E+00
  0.9899760E+00 -0.1005140E+02  0.0000000E+00  0.4607168E+00 -0.1763704E+01  0.8832540E-01  0.4521710E+00
  0.1970410E+01 -0.9905930E+01  0.0000000E+00  0.4452462E+00 -0.1759343E+01  0.8345325E-01  0.4373554E+00
  0.2931880E+01 -0.9665100E+01  0.0000000E+00  0.4272509E+00 -0.1754721E+01  0.7813948E-01  0.4200447E+00
  0.3865100E+01 -0.9331180E+01  0.0000000E+00  0.4060963E+00 -0.1750767E+01  0.7269154E-01  0.3995374E+00
  0.4761110E+01 -0.8907410E+01  0.0000000E+00  0.3826841E+00 -0.1747719E+01  0.6735281E-01  0.3767104E+00
  0.5611260E+01 -0.8397840E+01  0.0000000E+00  0.3561948E+00 -0.1746603E+01  0.6229920E-01  0.3507043E+00
  0.6407370E+01 -0.7807410E+01  0.0000000E+00  0.3278174E+00 -0.1748386E+01  0.5791144E-01  0.3226616E+00
  0.7141780E+01 -0.7141780E+01  0.0000000E+00  0.2974729E+00 -0.1755697E+01  0.5468997E-01  0.2924023E+00
  0.7807410E+01 -0.6407370E+01  0.0000000E+00  0.2658337E+00 -0.1770210E+01  0.5266022E-01  0.2605657E+00
  0.8397840E+01 -0.5611260E+01  0.0000000E+00  0.2326500E+00 -0.1796832E+01  0.5214048E-01  0.2267320E+00
  0.8907410E+01 -0.4761110E+01  0.0000000E+00  0.1991309E+00 -0.1841109E+01  0.5317446E-01  0.1919000E+00
  0.9331180E+01 -0.3865100E+01  0.0000000E+00  0.1662818E+00 -0.1915128E+01  0.5613142E-01  0.1565213E+00
  0.9665100E+01 -0.2931870E+01  0.0000000E+00  0.1352802E+00 -0.2036811E+01  0.6078539E-01  0.1208547E+00
  0.9905930E+01 -0.1970410E+01  0.0000000E+00  0.1084508E+00 -0.2241114E+01  0.6737340E-01  0.8498473E-01
  0.1005140E+02 -0.9899690E+00  0.0000000E+00  0.9034833E-01 -0.2560893E+01  0.7553834E-01  0.4956591E-01
  0.1010000E+02  0.0000000E+00 -0.2568960E-01  0.8652638E-01 -0.2961897E+01  0.8513314E-01  0.1546487E-01
  0.1005140E+02  0.9899730E+00 -0.2568960E-01  0.9760531E-01  0.2962170E+01  0.9603845E-01 -0.1741876E-01
  0.9905930E+01  0.1970410E+01 -0.2568960E-01  0.1185623E+00  0.2718478E+01  0.1081069E+00 -0.4868192E-01
  0.9665100E+01  0.2931880E+01 -0.2568960E-01  0.1439479E+00  0.2566517E+01  0.1207940E+00 -0.7829303E-01
  0.9331180E+01  0.3865100E+01 -0.2568960E-01  0.1700328E+00  0.2475047E+01  0.1336394E+00 -0.1051269E+00
  0.8907400E+01  0.4761110E+01 -0.2568960E-01  0.1956450E+00  0.2416451E+01  0.1464218E+00 -0.1297599E+00
  0.8397840E+01  0.5611260E+01 -0.2568960E-01  0.2195183E+00  0.2379716E+01  0.1588306E+00 -0.1515293E+00
  0.7807410E+01  0.6407370E+01 -0.2568960E-01  0.2414544E+00  0.2354683E+01  0.1704758E+00 -0.1709920E+00
  0.7141780E+01  0.7141780E+01 -0.2568960E-01  0.2600338E+00  0.2339089E+01  0.1806997E+00 -0.1869898E+00
  0.6407370E+01  0.7807410E+01 -0.2568960E-01  0.2757856E+00  0.2328432E+01  0.1895214E+00 -0.2003480E+00
  0.5611260E+01  0.8397840E+01 -0.2568960E-01  0.2878104E+00  0.2322381E+01  0.1965163E+00 -0.2102765E+00
  0.4761110E+01  0.8907410E+01 -0.2568960E-01  0.2968041E+00  0.2317999E+01  0.2017048E+00 -0.2177333E+00
  0.3865100E+01  0.9331180E+01 -0.2568960E-01  0.3015377E+00  0.2316228E+01  0.2045298E+00 -0.2215684E+00
  0.2931870E+01  0.9665100E+01 -0.2568960E-01  0.3028575E+00  0.2315537E+01  0.2052711E+00 -0.2226801E+00
  0.1970410E+01  0.9905930E+01 -0.2568960E-01  0.2998734E+00  0.2317015E+01  0.2035742E+00 -0.2201853E+00
  0.9899730E+00  0.1005140E+02 -0.2568960E-01  0.2937071E+00  0.2319273E+01  0.1998745E+00 -0.2152070E+00
 -0.4414850E-06  0.1010000E+02 -0.2568960E-01  0.2834668E+00  0.2324438E+01  0.1939760E+00 -0.2067045E+00
 -0.9899740E+00  0.1005140E+02 -0.2568960E-01  0.2700497E+00  0.2332083E+01  0.1862946E+00 -0.1955022E+00
 -0.1970410E+01  0.9905930E+01 -0.2568960E-01  0.2527582E+00  0.2344920E+01  0.1767007E+00 -0.1807307E+00
 -0.2931880E+01  0.9665100E+01 -0.2568960E-01  0.2329219E+00  0.2363186E+01  0.1658481E+00 -0.1635452E+00
 -0.3865100E+01  0.9331180E+01 -0.2568960E-01  0.2102768E+00  0.2392448E+01  0.1539798E+00 -0.1432011E+00
 -0.4761110E+01  0.8907400E+01 -0.2568960E-01  0.1857836E+00  0.2436421E+01  0.1414742E+00 -0.1204184E+00
 -0.5611260E+01  0.8397840E+01 -0.2568960E-01  0.1594760E+00  0.2507402E+01  0.1284661E+00 -0.9449368E-01
 -0.6407370E+01  0.7807410E+01 -0.2568960E-01  0.1333469E+00  0.2618765E+01  0.1155332E+00 -0.6658441E-01
 -0.7141780E+01  0.7141780E+01 -0.2568960E-01  0.1094503E+00  0.2801920E+01  0.1031967E+00 -0.3646652E-01
 -0.7807410E+01  0.6407370E+01 -0.2568960E-01  0.9174873E-01  0.3090435E+01  0.9162869E-01 -0.4691644E-02
 -0.8397840E+01  0.5611260E+01 -0.2568960E-01  0.8617892E-01 -0.2797545E+01  0.8112859E-01  0.2906816E-01
 -0.8907410E+01  0.4761110E+01 -0.2568960E-01  0.9613990E-01 -0.2415790E+01  0.7190947E-01  0.6381150E-01
 -0.9331180E+01  0.3865100E+01 -0.2568960E-01  0.1182299E+00 -0.2147289E+01  0.6444553E-01  0.9912150E-01
 -0.9665100E+01  0.2931880E+01 -0.2568960E-01  0.1469449E+00 -0.1981244E+01  0.5863389E-01  0.1347400E+00
 -0.9905930E+01  0.1970410E+01 -0.2568960E-01  0.1791399E+00 -0.1881267E+01  0.5472852E-01  0.1705752E+00
 -0.1005140E+02  0.9899730E+00 -0.2568960E-01  0.2125633E+00 -0.1820345E+01  0.5249614E-01  0.2059789E+00
 -0.1010000E+02 -0.8829700E-06 -0.2568960E-01  0.2456559E+00 -0.1784369E+01  0.5206733E-01  0.2400746E+00
 -0.1005140E+02 -0.9899740E+00 -0.2568960E-01  0.2781339E+00 -0.1763133E+01  0.5316608E-01  0.2730052E+00
 -0.9905930E+01 -0.1970410E+01 -0.2568960E-01  0.3094112E+00 -0.1752242E+01  0.5583381E-01  0.3043318E+00
 -0.9665100E+01 -0.2931880E+01 -0.2568960E-01  0.3392817E+00 -0.1747322E+01  0.5958152E-01  0.3340091E+00
 -0.9331180E+01 -0.3865100E+01 -0.2568960E-01  0.3665765E+00 -0.1746695E+01  0.6414826E-01  0.3609201E+00
 -0.8907400E+01 -0.4761110E+01 -0.2568960E-01  0.3918007E+00 -0.1748573E+01  0.6928659E-01  0.3856257E+00
 -0.8397840E+01 -0.5611260E+01 -0.2568960E-01  0.4142852E+00 -0.1752387E+01  0.7481749E-01  0.4074734E+00
 -0.7807400E+01 -0.6407370E+01 -0.2568960E-01  0.4344966E+00 -0.1756744E+01  0.8032877E-01  0.4270065E+00
 -0.7141780E+01 -0.7141780E+01 -0.2568960E-01  0.4512208E+00 -0.1761127E+01  0.8536344E-01  0.4430726E+00
 -0.6407370E+01 -0.7807410E+01 -0.2568960E-01  0.4652465E+00 -0.1765180E+01  0.8986773E-01  0.4564845E+00
 -0.5611260E+01 -0.8397850E+01 -0.2568960E-01  0.4757504E+00 -0.1768733E+01  0.9355488E-01  0.4664611E+00
 -0.4761110E+01 -0.8907410E+01 -0.2568960E-01  0.4836426E+00 -0.1771348E+01  0.9634621E-01  0.4739490E+00
 -0.3865100E+01 -0.9331190E+01 -0.2568960E-01  0.4877242E+00 -0.1772817E+01  0.9786164E-01  0.4778054E+00
 -0.2931870E+01 -0.9665100E+01 -0.2568960E-01  0.4888979E+00 -0.1773177E+01  0.9826961E-01  0.4789199E+00
 -0.1970410E+01 -0.9905930E+01 -0.2568960E-01  0.4862590E+00 -0.1772336E+01  0.9733827E-01  0.4764169E+00
 -0.9899710E+00 -0.1005140E+02 -0.2568960E-01  0.4809570E+00 -0.1770355E+01  0.9534353E-01  0.4714119E+00
  0.1204410E-06 -0.1010000E+02 -0.2568960E-01  0.4719697E+00 -0.1767445E+01  0.9221502E-01  0.4628734E+00
  0.9899760E+00 -0.1005140E+02 -0.2568960E-01  0.4601557E+00 -0.1763739E+01  0.8823372E-01  0.4516172E+00
  0.1970410E+01 -0.9905930E+01 -0.2568960E-01  0.4446715E+00 -0.1759381E+01  0.8336224E-01  0.4367877E+00
  0.2931880E+01 -0.9665100E+01 -0.2568960E-01  0.4267304E+00 -0.1754751E+01  0.7805708E-01  0.4195306E+00
  0.3865100E+01 -0.9331180E+01 -0.2568960E-01  0.4056678E+00 -0.1750772E+01  0.7261671E-01  0.3991155E+00
  0.4761110E+01 -0.8907410E+01 -0.2568960E-01  0.3822221E+00 -0.1747747E+01  0.6728197E-01  0.3762538E+00
  0.5611260E+01 -0.8397840E+01 -0.2568960E-01  0.3557423E+00 -0.1746645E+01  0.6223496E-01  0.3502561E+00
  0.6407370E+01 -0.7807410E+01 -0.2568960E-01  0.3274227E+00 -0.1748407E+01  0.5784835E-01  0.3222720E+00
  0.7141780E+01 -0.7141780E+01 -0.2568960E-01  0.2971545E+00 -0.1755654E+01  0.5461912E-01  0.2920917E+00
  0.7807410E+01 -0.6407370E+01 -0.2568960E-01  0.2655196E+00 -0.1770227E+01  0.5260232E-01  0.2602569E+00
  0.8397840E+01 -0.5611260E+01 -0.2568960E-01  0.2323668E+00 -0.1796886E+01  0.5208929E-01  0.2264532E+00
  0.8907410E+01 -0.4761110E+01 -0.2568960E-01  0.1988970E+00 -0.1841119E+01  0.5311396E-01  0.1916741E+00
  0.9331180E+01 -0.3865100E+01 -0.2568960E-01  0.1660914E+00 -0.1915019E+01  0.5604999E-01  0.1563482E+00
  0.9665100E+01 -0.2931870E+01 -0.2568960E-01  0.1351298E+00 -0.2036792E+01  0.6071549E-01  0.1207216E+00
  0.9905930E+01 -0.1970410E+01 -0.2568960E-01  0.1083405E+00 -0.2241093E+01  0.6730313E-01  0.8489972E-01
  0.1005140E+02 -0.9899690E+00 -0.2568960E-01  0.9025051E-01 -0.2560809E+01  0.7545240E-01  0.4951858E-01
  0.1010000E+02  0.0000000E+00 -0.1027320E+00  0.8618766E-01 -0.2962639E+01  0.8481129E-01  0.1534141E-01
  0.1005140E+02  0.9899730E+00 -0.1027320E+00  0.9726557E-01  0.2961973E+01  0.9570073E-01 -0.1737702E-01
  0.9905930E+01  0.1970410E+01 -0.1027320E+00  0.1181771E+00  0.2718014E+01  0.1077331E+00 -0.4857381E-01
  0.9665100E+01  0.2931880E+01 -0.1027320E+00  0.1434868E+00  0.2566278E+01  0.1203885E+00 -0.7807104E-01
  0.9331180E+01  0.3865100E+01 -0.1027320E+00  0.1695563E+00  0.2474406E+01  0.1331976E+00 -0.1049177E+00
  0.8907400E+01  0.4761110E+01 -0.1027320E+00  0.1950126E+00  0.2416309E+01  0.1459301E+00 -0.1293612E+00
  0.8397840E+01  0.5611260E+01 -0.1027320E+00  0.2188515E+00  0.2379483E+01  0.1583131E+00 -0.1511058E+00
  0.7807410E+01  0.6407370E+01 -0.1027320E+00  0.2406922E+00  0.2354579E+01  0.1699200E+00 -0.1704697E+00
  0.7141780E+01  0.7141780E+01 -0.1027320E+00  0.2593341E+00  0.2338727E+01  0.1801460E+00 -0.1865518E+00
  0.6407370E+01  0.7807410E+01 -0.1027320E+00  0.2749068E+00  0.2328352E+01  0.1889015E+00 -0.1997247E+00
  0.5611260E+01  0.8397840E+01 -0.1027320E+00  0.2869429E+00  0.2322237E+01  0.1958937E+00 -0.2096709E+00
  0.4761110E+01  0.8907410E+01 -0.1027320E+00  0.2958656E+00  0.2317933E+01  0.2010528E+00 -0.2170580E+00
  0.3865100E+01  0.9331180E+01 -0.1027320E+00  0.3007297E+00  0.2315949E+01  0.2039200E+00 -0.2210316E+00
  0.2931870E+01  0.9665100E+01 -0.1027320E+00  0.3018987E+00  0.2315474E+01  0.2046073E+00 -0.2219880E+00
  0.1970410E+01  0.9905930E+01 -0.1027320E+00  0.2989706E+00  0.2316881E+01  0.2029319E+00 -0.2195496E+00
  0.9899730E+00  0.1005140E+02 -0.1027320E+00  0.2927746E+00  0.2319202E+01  0.1992248E+00 -0.2145378E+00
 -0.4414850E-06  0.1010000E+02 -0.1027320E+00  0.2827065E+00  0.2324124E+01  0.1933909E+00 -0.2062108E+00
 -0.9899740E+00  0.1005140E+02 -0.1027320E+00  0.2691965E+00  0.2332001E+01  0.1856902E+00 -0.1948998E+00
 -0.1970410E+01  0.9905930E+01 -0.1027320E+00  0.2519945E+00  0.2344734E+01  0.1761332E+00 -0.1802174E+00
 -0.2931880E+01  0.9665100E+01 -0.1027320E+00  0.2321756E+00  0.2363074E+01  0.1652985E+00 -0.1630396E+00
 -0.3865100E+01  0.9331180E+01 -0.1027320E+00  0.2097031E+00  0.2391955E+01  0.1534892E+00 -0.1428861E+00
 -0.4761110E+01  0.8907400E+01 -0.1027320E+00  0.1851950E+00  0.2436253E+01  0.1410059E+00 -0.1200605E+00
 -0.5611260E+01  0.8397840E+01 -0.1027320E+00  0.1589808E+00  0.2507050E+01  0.1280341E+00 -0.9424537E-01
 -0.6407370E+01  0.7807410E+01 -0.1027320E+00  0.1329038E+00  0.2618562E+01  0.1151358E+00 -0.6638647E-01
 -0.7141780E+01  0.7141780E+01 -0.1027320E+00  0.1090978E+00  0.2800962E+01  0.1028295E+00 -0.3644751E-01
 -0.7807410E+01  0.6407370E+01 -0.1027320E+00  0.9143243E-01  0.3090096E+01  0.9131122E-01 -0.4706370E-02
 -0.8397840E+01  0.5611260E+01 -0.1027320E+00  0.8585639E-01 -0.2797798E+01  0.8083229E-01  0.2893890E-01
 -0.8907410E+01  0.4761110E+01 -0.1027320E+00  0.9580041E-01 -0.2415672E+01  0.7164802E-01  0.6359465E-01
 -0.9331180E+01  0.3865100E+01 -0.1027320E+00  0.1177894E+00 -0.2147022E+01  0.6417910E-01  0.9876941E-01
 -0.9665100E+01  0.2931880E+01 -0.1027320E+00  0.1464362E+00 -0.1981142E+01  0.5841727E-01  0.1342794E+00
 -0.9905930E+01  0.1970410E+01 -0.1027320E+00  0.1785415E+00 -0.1881081E+01  0.5451405E-01  0.1700156E+00
 -0.1005140E+02  0.9899730E+00 -0.1027320E+00  0.2118655E+00 -0.1820237E+01  0.5230164E-01  0.2053084E+00
 -0.1010000E+02 -0.8829700E-06 -0.1027320E+00  0.2448891E+00 -0.1784131E+01  0.5184793E-01  0.2393375E+00
 -0.1005140E+02 -0.9899740E+00 -0.1027320E+00  0.2772124E+00 -0.1763060E+01  0.5297023E-01  0.2721045E+00
 -0.9905930E+01 -0.1970410E+01 -0.1027320E+00  0.3084224E+00 -0.1752153E+01  0.5562835E-01  0.3033642E+00
 -0.9665100E+01 -0.2931880E+01 -0.1027320E+00  0.3381814E+00 -0.1747286E+01  0.5937603E-01  0.3329282E+00
 -0.9331180E+01 -0.3865100E+01 -0.1027320E+00  0.3654823E+00 -0.1746595E+01  0.6392090E-01  0.3598492E+00
 -0.8907400E+01 -0.4761110E+01 -0.1027320E+00  0.3905202E+00 -0.1748544E+01  0.6904931E-01  0.3843673E+00
 -0.8397840E+01 -0.5611260E+01 -0.1027320E+00  0.4129780E+00 -0.1752360E+01  0.7457048E-01  0.4061897E+00
 -0.7807400E+01 -0.6407370E+01 -0.1027320E+00  0.4330897E+00 -0.1756743E+01  0.8006813E-01  0.4256240E+00
 -0.7141780E+01 -0.7141780E+01 -0.1027320E+00  0.4498949E+00 -0.1761107E+01  0.8510374E-01  0.4417723E+00
 -0.6407370E+01 -0.7807410E+01 -0.1027320E+00  0.4637344E+00 -0.1765180E+01  0.8957577E-01  0.4550009E+00
 -0.5611260E+01 -0.8397850E+01 -0.1027320E+00  0.4742555E+00 -0.1768740E+01  0.9326417E-01  0.4649947E+00
 -0.4761110E+01 -0.8907410E+01 -0.1027320E+00  0.4820768E+00 -0.1771359E+01  0.9603963E-01  0.4724134E+00
 -0.3865100E+01 -0.9331190E+01 -0.1027320E+00  0.4862981E+00 -0.1772829E+01  0.9758127E-01  0.4764071E+00
 -0.2931870E+01 -0.9665100E+01 -0.1027320E+00  0.4873140E+00 -0.1773189E+01  0.9795693E-01  0.4773672E+00
 -0.1970410E+01 -0.9905930E+01 -0.1027320E+00  0.4847324E+00 -0.1772348E+01  0.9703865E-01  0.4749200E+00
 -0.9899710E+00 -0.1005140E+02 -0.1027320E+00  0.4793960E+00 -0.1770362E+01  0.9503734E-01  0.4698813E+00
  0.1204410E-06 -0.1010000E+02 -0.1027320E+00  0.4705870E+00 -0.1767443E+01  0.9194428E-01  0.4615175E+00
  0.9899760E+00 -0.1005140E+02 -0.1027320E+00  0.4586664E+00 -0.1763745E+01  0.8795103E-01  0.4501550E+00
  0.1970410E+01 -0.9905930E+01 -0.1027320E+00  0.4432716E+00 -0.1759372E+01  0.8309560E-01  0.4354134E+00
  0.2931880E+01 -0.9665100E+01 -0.1027320E+00  0.4253399E+00 -0.1754736E+01  0.7779627E-01  0.4181647E+00
  0.3865100E+01 -0.9331180E+01 -0.1027320E+00  0.4044679E+00 -0.1750710E+01  0.7237747E-01  0.3979394E+00
  0.4761110E+01 -0.8907410E+01 -0.1027320E+00  0.3809840E+00 -0.1747728E+01  0.6705702E-01  0.3750362E+00
  0.5611260E+01 -0.8397840E+01 -0.1027320E+00  0.3546131E+00 -0.1746586E+01  0.6201666E-01  0.3491481E+00
  0.6407370E+01 -0.7807410E+01 -0.1027320E+00  0.3263456E+00 -0.1748353E+01  0.5764091E-01  0.3212148E+00
  0.7141780E+01 -0.7141780E+01 -0.1027320E+00  0.2962500E+00 -0.1755478E+01  0.5440156E-01  0.2912121E+00
  0.7807410E+01 -0.6407370E+01 -0.1027320E+00  0.2646544E+00 -0.1770153E+01  0.5241173E-01  0.2594127E+00
  0.8397840E+01 -0.5611260E+01 -0.1027320E+00  0.2316103E+00 -0.1796739E+01  0.5188648E-01  0.2257235E+00
