 VARIABLES="X" "Y" "Z" "abs(eta) (m)" "angle(phi) (rad)" "PRE1" "PRE2"
ZONE N=   3200 ,E =    3136 ,F=FEPOINT,ET=QUADRILATERAL
  0.1100000E+02  0.0000000E+00  0.0000000E+00  0.6325570E+00 -0.1611271E+01  0.2559525E-01  0.6320390E+00
  0.1094700E+02  0.1078190E+01  0.0000000E+00  0.6369651E+00 -0.1613645E+01  0.2728491E-01  0.6363804E+00
  0.1078860E+02  0.2145990E+01  0.0000000E+00  0.6376355E+00 -0.1613974E+01  0.2752309E-01  0.6370413E+00
  0.1052630E+02  0.3193130E+01  0.0000000E+00  0.6340796E+00 -0.1612082E+01  0.2617081E-01  0.6335393E+00
  0.1016270E+02  0.4209520E+01  0.0000000E+00  0.6267706E+00 -0.1608175E+01  0.2342250E-01  0.6263328E+00
  0.9701130E+01  0.5185360E+01  0.0000000E+00  0.6166613E+00 -0.1602816E+01  0.1974175E-01  0.6163452E+00
  0.9146170E+01  0.6111270E+01  0.0000000E+00  0.6028775E+00 -0.1596014E+01  0.1520155E-01  0.6026858E+00
  0.8503110E+01  0.6978330E+01  0.0000000E+00  0.5849161E+00 -0.1587852E+01  0.9975852E-02  0.5848310E+00
  0.7778170E+01  0.7778170E+01  0.0000000E+00  0.5631896E+00 -0.1578730E+01  0.4467893E-02  0.5631719E+00
  0.6978330E+01  0.8503110E+01  0.0000000E+00  0.5386461E+00 -0.1569501E+01 -0.6979270E-03  0.5386456E+00
  0.6111270E+01  0.9146170E+01  0.0000000E+00  0.5106924E+00 -0.1561027E+01 -0.4989055E-02  0.5106680E+00
  0.5185360E+01  0.9701130E+01  0.0000000E+00  0.4789734E+00 -0.1554087E+01 -0.8003107E-02  0.4789065E+00
  0.4209520E+01  0.1016270E+02  0.0000000E+00  0.4439013E+00 -0.1549739E+01 -0.9346483E-02  0.4438029E+00
  0.3193130E+01  0.1052630E+02  0.0000000E+00  0.4064797E+00 -0.1549600E+01 -0.8615423E-02  0.4063884E+00
  0.2145990E+01  0.1078860E+02  0.0000000E+00  0.3667197E+00 -0.1556738E+01 -0.5155357E-02  0.3666835E+00
  0.1078190E+01  0.1094700E+02  0.0000000E+00  0.3247737E+00 -0.1575069E+01  0.1387518E-02  0.3247707E+00
 -0.4808250E-06  0.1100000E+02  0.0000000E+00  0.2813742E+00 -0.1610316E+01  0.1111696E-01  0.2811545E+00
 -0.1078190E+01  0.1094700E+02  0.0000000E+00  0.2379868E+00 -0.1671325E+01  0.2388425E-01  0.2367852E+00
 -0.2145990E+01  0.1078860E+02  0.0000000E+00  0.1964516E+00 -0.1775622E+01  0.3995763E-01  0.1923450E+00
 -0.3193130E+01  0.1052630E+02  0.0000000E+00  0.1596937E+00 -0.1951338E+01  0.5931402E-01  0.1482698E+00
 -0.4209520E+01  0.1016270E+02  0.0000000E+00  0.1329222E+00 -0.2232113E+01  0.8163507E-01  0.1049001E+00
 -0.5185370E+01  0.9701130E+01  0.0000000E+00  0.1233738E+00 -0.2608122E+01  0.1062307E+00  0.6273869E-01
 -0.6111270E+01  0.9146160E+01  0.0000000E+00  0.1346264E+00 -0.2971294E+01  0.1326789E+00  0.2281606E-01
 -0.6978330E+01  0.8503120E+01  0.0000000E+00  0.1611326E+00  0.3052463E+01  0.1604930E+00 -0.1434272E-01
 -0.7778170E+01  0.7778170E+01  0.0000000E+00  0.1953233E+00  0.2889010E+01  0.1891257E+00 -0.4881237E-01
 -0.8503120E+01  0.6978330E+01  0.0000000E+00  0.2322617E+00  0.2786400E+01  0.2177639E+00 -0.8077382E-01
 -0.9146170E+01  0.6111270E+01  0.0000000E+00  0.2686381E+00  0.2722982E+01  0.2454424E+00 -0.1091992E+00
 -0.9701130E+01  0.5185360E+01  0.0000000E+00  0.3025622E+00  0.2684044E+01  0.2714401E+00 -0.1336570E+00
 -0.1016270E+02  0.4209520E+01  0.0000000E+00  0.3333589E+00  0.2659355E+01  0.2953425E+00 -0.1545993E+00
 -0.1052630E+02  0.3193130E+01  0.0000000E+00  0.3607991E+00  0.2642236E+01  0.3167423E+00 -0.1727724E+00
 -0.1078860E+02  0.2145990E+01  0.0000000E+00  0.3833875E+00  0.2631398E+01  0.3345630E+00 -0.1872260E+00
 -0.1094700E+02  0.1078190E+01  0.0000000E+00  0.4003198E+00  0.2625475E+01  0.3481749E+00 -0.1975606E+00
 -0.1100000E+02 -0.9616510E-06  0.0000000E+00  0.4118247E+00  0.2622366E+01  0.3575476E+00 -0.2043509E+00
 -0.1094700E+02 -0.1078190E+01  0.0000000E+00  0.4185905E+00  0.2620044E+01  0.3629383E+00 -0.2085517E+00
 -0.1078860E+02 -0.2146000E+01  0.0000000E+00  0.4194964E+00  0.2619472E+01  0.3636041E+00 -0.2092112E+00
 -0.1052630E+02 -0.3193130E+01  0.0000000E+00  0.4140258E+00  0.2621305E+01  0.3592402E+00 -0.2058247E+00
 -0.1016270E+02 -0.4209520E+01  0.0000000E+00  0.4027515E+00  0.2625168E+01  0.3502286E+00 -0.1988684E+00
 -0.9701130E+01 -0.5185360E+01  0.0000000E+00  0.3868793E+00  0.2630329E+01  0.3374079E+00 -0.1892921E+00
 -0.9146160E+01 -0.6111270E+01  0.0000000E+00  0.3658570E+00  0.2639245E+01  0.3206570E+00 -0.1761546E+00
 -0.8503110E+01 -0.6978330E+01  0.0000000E+00  0.3395579E+00  0.2654662E+01  0.3000921E+00 -0.1588845E+00
 -0.7778170E+01 -0.7778180E+01  0.0000000E+00  0.3088676E+00  0.2678862E+01  0.2763862E+00 -0.1378763E+00
 -0.6978330E+01 -0.8503110E+01  0.0000000E+00  0.2753731E+00  0.2714425E+01  0.2506289E+00 -0.1140855E+00
 -0.6111270E+01 -0.9146170E+01  0.0000000E+00  0.2396359E+00  0.2770695E+01  0.2233412E+00 -0.8685644E-01
 -0.5185360E+01 -0.9701130E+01  0.0000000E+00  0.2028182E+00  0.2862903E+01  0.1949928E+00 -0.5579452E-01
 -0.4209510E+01 -0.1016270E+02  0.0000000E+00  0.1676476E+00  0.3013891E+01  0.1662825E+00 -0.2135067E-01
 -0.3193130E+01 -0.1052630E+02  0.0000000E+00  0.1389593E+00 -0.3030362E+01  0.1381005E+00  0.1542469E-01
 -0.2145990E+01 -0.1078860E+02  0.0000000E+00  0.1239421E+00 -0.2685565E+01  0.1112764E+00  0.5458225E-01
 -0.1078190E+01 -0.1094700E+02  0.0000000E+00  0.1291901E+00 -0.2302770E+01  0.8634280E-01  0.9609886E-01
  0.1311740E-06 -0.1100000E+02  0.0000000E+00  0.1533079E+00 -0.1999311E+01  0.6370249E-01  0.1394465E+00
  0.1078190E+01 -0.1094700E+02  0.0000000E+00  0.1887479E+00 -0.1804098E+01  0.4363683E-01  0.1836344E+00
  0.2145990E+01 -0.1078860E+02  0.0000000E+00  0.2296016E+00 -0.1687574E+01  0.2675142E-01  0.2280378E+00
  0.3193140E+01 -0.1052630E+02  0.0000000E+00  0.2725876E+00 -0.1619545E+01  0.1328305E-01  0.2722638E+00
  0.4209520E+01 -0.1016270E+02  0.0000000E+00  0.3159402E+00 -0.1580809E+01  0.3163412E-02  0.3159244E+00
  0.5185360E+01 -0.9701130E+01  0.0000000E+00  0.3584777E+00 -0.1559664E+01 -0.3990490E-02  0.3584555E+00
  0.6111270E+01 -0.9146160E+01  0.0000000E+00  0.3989471E+00 -0.1550356E+01 -0.8154032E-02  0.3988638E+00
  0.6978330E+01 -0.8503110E+01  0.0000000E+00  0.4367457E+00 -0.1549023E+01 -0.9508818E-02  0.4366421E+00
  0.7778180E+01 -0.7778170E+01  0.0000000E+00  0.4718800E+00 -0.1552897E+01 -0.8445958E-02  0.4718044E+00
  0.8503120E+01 -0.6978320E+01  0.0000000E+00  0.5044912E+00 -0.1559623E+01 -0.5636467E-02  0.5044597E+00
  0.9146170E+01 -0.6111270E+01  0.0000000E+00  0.5335987E+00 -0.1567873E+01 -0.1560027E-02  0.5335965E+00
  0.9701130E+01 -0.5185360E+01  0.0000000E+00  0.5588014E+00 -0.1576818E+01  0.3365190E-02  0.5587913E+00
  0.1016270E+02 -0.4209520E+01  0.0000000E+00  0.5805004E+00 -0.1585897E+01  0.8765465E-02  0.5804342E+00
  0.1052630E+02 -0.3193130E+01  0.0000000E+00  0.5993739E+00 -0.1594467E+01  0.1418647E-01  0.5992060E+00
  0.1078860E+02 -0.2145990E+01  0.0000000E+00  0.6144654E+00 -0.1601729E+01  0.1900423E-01  0.6141714E+00
  0.1094700E+02 -0.1078180E+01  0.0000000E+00  0.6253557E+00 -0.1607334E+01  0.2284417E-01  0.6249383E+00
  0.1100000E+02  0.0000000E+00 -0.2568960E-01  0.6315794E+00 -0.1611313E+01  0.2558216E-01  0.6310611E+00
  0.1094700E+02  0.1078190E+01 -0.2568960E-01  0.6359525E+00 -0.1613676E+01  0.2726113E-01  0.6353679E+00
  0.1078860E+02  0.2145990E+01 -0.2568960E-01  0.6365914E+00 -0.1613993E+01  0.2748993E-01  0.6359976E+00
  0.1052630E+02  0.3193130E+01 -0.2568960E-01  0.6330714E+00 -0.1612112E+01  0.2614840E-01  0.6325312E+00
  0.1016270E+02  0.4209520E+01 -0.2568960E-01  0.6258022E+00 -0.1608216E+01  0.2341195E-01  0.6253641E+00
  0.9701130E+01  0.5185360E+01 -0.2568960E-01  0.6156806E+00 -0.1602848E+01  0.1973026E-01  0.6153644E+00
  0.9146170E+01  0.6111270E+01 -0.2568960E-01  0.6018896E+00 -0.1596036E+01  0.1518996E-01  0.6016979E+00
  0.8503110E+01  0.6978330E+01 -0.2568960E-01  0.5839849E+00 -0.1587880E+01  0.9976187E-02  0.5838996E+00
  0.7778170E+01  0.7778170E+01 -0.2568960E-01  0.5623171E+00 -0.1578763E+01  0.4479928E-02  0.5622993E+00
  0.6978330E+01  0.8503110E+01 -0.2568960E-01  0.5377897E+00 -0.1569533E+01 -0.6791750E-03  0.5377893E+00
  0.6111270E+01  0.9146170E+01 -0.2568960E-01  0.5098556E+00 -0.1561059E+01 -0.4964613E-02  0.5098314E+00
  0.5185360E+01  0.9701130E+01 -0.2568960E-01  0.4782063E+00 -0.1554113E+01 -0.7977583E-02  0.4781398E+00
  0.4209520E+01  0.1016270E+02 -0.2568960E-01  0.4432074E+00 -0.1549760E+01 -0.9322978E-02  0.4431094E+00
  0.3193130E+01  0.1052630E+02 -0.2568960E-01  0.4058302E+00 -0.1549633E+01 -0.8587968E-02  0.4057393E+00
  0.2145990E+01  0.1078860E+02 -0.2568960E-01  0.3661175E+00 -0.1556790E+01 -0.5127639E-02  0.3660816E+00
  0.1078190E+01  0.1094700E+02 -0.2568960E-01  0.3242460E+00 -0.1575101E+01  0.1395844E-02  0.3242430E+00
 -0.4808250E-06  0.1100000E+02 -0.2568960E-01  0.2809210E+00 -0.1610324E+01  0.1110120E-01  0.2807016E+00
 -0.1078190E+01  0.1094700E+02 -0.2568960E-01  0.2376003E+00 -0.1671371E+01  0.2385631E-01  0.2363996E+00
 -0.2145990E+01  0.1078860E+02 -0.2568960E-01  0.1961315E+00 -0.1775729E+01  0.3991291E-01  0.1920274E+00
 -0.3193130E+01  0.1052630E+02 -0.2568960E-01  0.1594258E+00 -0.1951449E+01  0.5923093E-01  0.1480145E+00
 -0.4209520E+01  0.1016270E+02 -0.2568960E-01  0.1326925E+00 -0.2232265E+01  0.8150993E-01  0.1047064E+00
 -0.5185370E+01  0.9701130E+01 -0.2568960E-01  0.1231773E+00 -0.2608280E+01  0.1060714E+00  0.6262197E-01
 -0.6111270E+01  0.9146160E+01 -0.2568960E-01  0.1344254E+00 -0.2971350E+01  0.1324821E+00  0.2277458E-01
 -0.6978330E+01  0.8503120E+01 -0.2568960E-01  0.1608933E+00  0.3052314E+01  0.1602525E+00 -0.1434535E-01
 -0.7778170E+01  0.7778170E+01 -0.2568960E-01  0.1950387E+00  0.2888813E+01  0.1888405E+00 -0.4877847E-01
 -0.8503120E+01  0.6978330E+01 -0.2568960E-01  0.2319119E+00  0.2786326E+01  0.2174299E+00 -0.8066837E-01
 -0.9146170E+01  0.6111270E+01 -0.2568960E-01  0.2682177E+00  0.2722995E+01  0.2450597E+00 -0.1090251E+00
 -0.9701130E+01  0.5185360E+01 -0.2568960E-01  0.3021100E+00  0.2683989E+01  0.2710270E+00 -0.1334720E+00
 -0.1016270E+02  0.4209520E+01 -0.2568960E-01  0.3328780E+00  0.2659255E+01  0.2949010E+00 -0.1544058E+00
 -0.1052630E+02  0.3193130E+01 -0.2568960E-01  0.3602510E+00  0.2642195E+01  0.3162539E+00 -0.1725231E+00
 -0.1078860E+02  0.2145990E+01 -0.2568960E-01  0.3827767E+00  0.2631410E+01  0.3340322E+00 -0.1869238E+00
 -0.1094700E+02  0.1078190E+01 -0.2568960E-01  0.3997134E+00  0.2625440E+01  0.3476405E+00 -0.1972736E+00
 -0.1100000E+02 -0.9616510E-06 -0.2568960E-01  0.4112277E+00  0.2622293E+01  0.3570143E+00 -0.2040809E+00
 -0.1094700E+02 -0.1078190E+01 -0.2568960E-01  0.4179536E+00  0.2620011E+01  0.3623792E+00 -0.2082463E+00
 -0.1078860E+02 -0.2146000E+01 -0.2568960E-01  0.4188263E+00  0.2619482E+01  0.3630255E+00 -0.2088732E+00
 -0.1052630E+02 -0.3193130E+01 -0.2568960E-01  0.4133962E+00  0.2621271E+01  0.3586872E+00 -0.2055236E+00
 -0.1016270E+02 -0.4209520E+01 -0.2568960E-01  0.4021676E+00  0.2625091E+01  0.3497056E+00 -0.1986069E+00
 -0.9701130E+01 -0.5185360E+01 -0.2568960E-01  0.3862943E+00  0.2630292E+01  0.3368906E+00 -0.1890186E+00
 -0.9146160E+01 -0.6111270E+01 -0.2568960E-01  0.3652754E+00  0.2639256E+01  0.3201491E+00 -0.1758711E+00
 -0.8503110E+01 -0.6978330E+01 -0.2568960E-01  0.3390435E+00  0.2654617E+01  0.2996304E+00 -0.1586573E+00
 -0.7778170E+01 -0.7778180E+01 -0.2568960E-01  0.3084225E+00  0.2678751E+01  0.2759725E+00 -0.1377083E+00
 -0.6978330E+01 -0.8503110E+01 -0.2568960E-01  0.2749620E+00  0.2714360E+01  0.2502474E+00 -0.1139314E+00
 -0.6111270E+01 -0.9146170E+01 -0.2568960E-01  0.2392634E+00  0.2770707E+01  0.2229951E+00 -0.8671895E-01
 -0.5185360E+01 -0.9701130E+01 -0.2568960E-01  0.2025127E+00  0.2862813E+01  0.1946940E+00 -0.5572798E-01
 -0.4209510E+01 -0.1016270E+02 -0.2568960E-01  0.1673991E+00  0.3013659E+01  0.1660310E+00 -0.2135765E-01
 -0.3193130E+01 -0.1052630E+02 -0.2568960E-01  0.1387496E+00 -0.3030547E+01  0.1378950E+00  0.1537586E-01
 -0.2145990E+01 -0.1078860E+02 -0.2568960E-01  0.1237560E+00 -0.2685666E+01  0.1111148E+00  0.5448908E-01
 -0.1078190E+01 -0.1094700E+02 -0.2568960E-01  0.1289791E+00 -0.2302904E+01  0.8621462E-01  0.9593043E-01
  0.1311740E-06 -0.1100000E+02 -0.2568960E-01  0.1530450E+00 -0.1999393E+01  0.6360473E-01  0.1392020E+00
  0.1078190E+01 -0.1094700E+02 -0.2568960E-01  0.1884329E+00 -0.1804176E+01  0.4357834E-01  0.1833246E+00
  0.2145990E+01 -0.1078860E+02 -0.2568960E-01  0.2292254E+00 -0.1687663E+01  0.2672780E-01  0.2276618E+00
  0.3193140E+01 -0.1052630E+02 -0.2568960E-01  0.2721477E+00 -0.1619586E+01  0.1327267E-01  0.2718238E+00
  0.4209520E+01 -0.1016270E+02 -0.2568960E-01  0.3154360E+00 -0.1580818E+01  0.3161286E-02  0.3154202E+00
  0.5185360E+01 -0.9701130E+01 -0.2568960E-01  0.3578976E+00 -0.1559694E+01 -0.3973420E-02  0.3578756E+00
  0.6111270E+01 -0.9146160E+01 -0.2568960E-01  0.3982926E+00 -0.1550402E+01 -0.8122270E-02  0.3982098E+00
  0.6978330E+01 -0.8503110E+01 -0.2568960E-01  0.4360493E+00 -0.1549056E+01 -0.9479275E-02  0.4359463E+00
  0.7778180E+01 -0.7778170E+01 -0.2568960E-01  0.4711448E+00 -0.1552920E+01 -0.8421953E-02  0.4710695E+00
  0.8503120E+01 -0.6978320E+01 -0.2568960E-01  0.5036851E+00 -0.1559650E+01 -0.5614143E-02  0.5036538E+00
  0.9146170E+01 -0.6111270E+01 -0.2568960E-01  0.5327250E+00 -0.1567901E+01 -0.1542165E-02  0.5327228E+00
  0.9701130E+01 -0.5185360E+01 -0.2568960E-01  0.5579135E+00 -0.1576851E+01  0.3378112E-02  0.5579032E+00
  0.1016270E+02 -0.4209520E+01 -0.2568960E-01  0.5796025E+00 -0.1585932E+01  0.8772414E-02  0.5795361E+00
  0.1052630E+02 -0.3193130E+01 -0.2568960E-01  0.5984204E+00 -0.1594496E+01  0.1418088E-01  0.5982524E+00
  0.1078860E+02 -0.2145990E+01 -0.2568960E-01  0.6134585E+00 -0.1601750E+01  0.1898606E-01  0.6131646E+00
  0.1094700E+02 -0.1078180E+01 -0.2568960E-01  0.6243616E+00 -0.1607366E+01  0.2282785E-01  0.6239442E+00
  0.1100000E+02  0.0000000E+00 -0.1027320E+00  0.6286871E+00 -0.1611440E+01  0.2554536E-01  0.6281679E+00
  0.1094700E+02  0.1078190E+01 -0.1027320E+00  0.6329686E+00 -0.1613776E+01  0.2719627E-01  0.6323841E+00
  0.1078860E+02  0.2145990E+01 -0.1027320E+00  0.6335272E+00 -0.1614061E+01  0.2740077E-01  0.6329343E+00
  0.1052630E+02  0.3193130E+01 -0.1027320E+00  0.6300998E+00 -0.1612209E+01  0.2608666E-01  0.6295595E+00
  0.1016270E+02  0.4209520E+01 -0.1027320E+00  0.6229356E+00 -0.1608341E+01  0.2338213E-01  0.6224966E+00
  0.9701130E+01  0.5185360E+01 -0.1027320E+00  0.6127934E+00 -0.1602946E+01  0.1969791E-01  0.6124767E+00
  0.9146170E+01  0.6111270E+01 -0.1027320E+00  0.5989899E+00 -0.1596101E+01  0.1515561E-01  0.5987982E+00
  0.8503110E+01  0.6978330E+01 -0.1027320E+00  0.5812376E+00 -0.1587952E+01  0.9971113E-02  0.5811521E+00
  0.7778170E+01  0.7778170E+01 -0.1027320E+00  0.5597345E+00 -0.1578845E+01  0.4505225E-02  0.5597164E+00
  0.6978330E+01  0.8503110E+01 -0.1027320E+00  0.5352650E+00 -0.1569607E+01 -0.6368639E-03  0.5352646E+00
  0.6111270E+01  0.9146170E+01 -0.1027320E+00  0.5073941E+00 -0.1561117E+01 -0.4911128E-02  0.5073704E+00
  0.5185360E+01  0.9701130E+01 -0.1027320E+00  0.4759413E+00 -0.1554142E+01 -0.7925901E-02  0.4758753E+00
  0.4209520E+01  0.1016270E+02 -0.1027320E+00  0.4411531E+00 -0.1549763E+01 -0.9278343E-02  0.4410555E+00
  0.3193130E+01  0.1052630E+02 -0.1027320E+00  0.4039136E+00 -0.1549658E+01 -0.8537306E-02  0.4038233E+00
  0.2145990E+01  0.1078860E+02 -0.1027320E+00  0.3643405E+00 -0.1556846E+01 -0.5082348E-02  0.3643050E+00
  0.1078190E+01  0.1094700E+02 -0.1027320E+00  0.3226803E+00 -0.1575084E+01  0.1383658E-02  0.3226773E+00
 -0.4808250E-06  0.1100000E+02 -0.1027320E+00  0.2795730E+00 -0.1610225E+01  0.1102031E-01  0.2793557E+00
 -0.1078190E+01  0.1094700E+02 -0.1027320E+00  0.2364487E+00 -0.1671344E+01  0.2373428E-01  0.2352544E+00
 -0.2145990E+01  0.1078860E+02 -0.1027320E+00  0.1951667E+00 -0.1775843E+01  0.3973853E-01  0.1910783E+00
 -0.3193130E+01  0.1052630E+02 -0.1027320E+00  0.1586087E+00 -0.1951582E+01  0.5894689E-01  0.1472481E+00
 -0.4209520E+01  0.1016270E+02 -0.1027320E+00  0.1319843E+00 -0.2232545E+01  0.8110400E-01  0.1041249E+00
 -0.5185370E+01  0.9701130E+01 -0.1027320E+00  0.1225579E+00 -0.2608685E+01  0.1055632E+00  0.6226429E-01
 -0.6111270E+01  0.9146160E+01 -0.1027320E+00  0.1337947E+00 -0.2971636E+01  0.1318670E+00  0.2263006E-01
 -0.6978330E+01  0.8503120E+01 -0.1027320E+00  0.1601584E+00  0.3051744E+01  0.1595124E+00 -0.1437065E-01
 -0.7778170E+01  0.7778170E+01 -0.1027320E+00  0.1941731E+00  0.2888138E+01  0.1879697E+00 -0.4868894E-01
 -0.8503120E+01  0.6978330E+01 -0.1027320E+00  0.2308609E+00  0.2785991E+01  0.2164176E+00 -0.8037518E-01
 -0.9146170E+01  0.6111270E+01 -0.1027320E+00  0.2669725E+00  0.2722901E+01  0.2439118E+00 -0.1085418E+00
 -0.9701130E+01  0.5185360E+01 -0.1027320E+00  0.3007689E+00  0.2683740E+01  0.2697908E+00 -0.1329468E+00
 -0.1016270E+02  0.4209520E+01 -0.1027320E+00  0.3314481E+00  0.2658902E+01  0.2935799E+00 -0.1538463E+00
 -0.1052630E+02  0.3193130E+01 -0.1027320E+00  0.3586351E+00  0.2642003E+01  0.3148024E+00 -0.1718098E+00
 -0.1078860E+02  0.2145990E+01 -0.1027320E+00  0.3809916E+00  0.2631361E+01  0.3324652E+00 -0.1860686E+00
 -0.1094700E+02  0.1078190E+01 -0.1027320E+00  0.3979314E+00  0.2625281E+01  0.3460595E+00 -0.1964490E+00
 -0.1100000E+02 -0.9616510E-06 -0.1027320E+00  0.4094650E+00  0.2622039E+01  0.3554324E+00 -0.2032964E+00
 -0.1094700E+02 -0.1078190E+01 -0.1027320E+00  0.4160843E+00  0.2619860E+01  0.3607272E+00 -0.2073692E+00
 -0.1078860E+02 -0.2146000E+01 -0.1027320E+00  0.4168707E+00  0.2619440E+01  0.3613217E+00 -0.2079129E+00
 -0.1052630E+02 -0.3193130E+01 -0.1027320E+00  0.4115459E+00  0.2621117E+01  0.3570502E+00 -0.2046587E+00
 -0.1016270E+02 -0.4209520E+01 -0.1027320E+00  0.4004436E+00  0.2624826E+01  0.3481542E+00 -0.1978478E+00
 -0.9701130E+01 -0.5185360E+01 -0.1027320E+00  0.3845727E+00  0.2630122E+01  0.3353573E+00 -0.1882330E+00
 -0.9146160E+01 -0.6111270E+01 -0.1027320E+00  0.3635724E+00  0.2639201E+01  0.3186470E+00 -0.1750685E+00
 -0.8503110E+01 -0.6978330E+01 -0.1027320E+00  0.3375209E+00  0.2654408E+01  0.2982517E+00 -0.1580071E+00
 -0.7778170E+01 -0.7778180E+01 -0.1027320E+00  0.3070958E+00  0.2678359E+01  0.2747317E+00 -0.1372236E+00
 -0.6978330E+01 -0.8503110E+01 -0.1027320E+00  0.2737415E+00  0.2714074E+01  0.2491040E+00 -0.1134972E+00
 -0.6111270E+01 -0.9146170E+01 -0.1027320E+00  0.2381541E+00  0.2770593E+01  0.2219514E+00 -0.8634215E-01
 -0.5185360E+01 -0.9701130E+01 -0.1027320E+00  0.2015882E+00  0.2862427E+01  0.1937839E+00 -0.5554829E-01
 -0.4209510E+01 -0.1016270E+02 -0.1027320E+00  0.1666363E+00  0.3012882E+01  0.1652580E+00 -0.2138865E-01
 -0.3193130E+01 -0.1052630E+02 -0.1027320E+00  0.1380958E+00 -0.3031197E+01  0.1372551E+00  0.1521424E-01
 -0.2145990E+01 -0.1078860E+02 -0.1027320E+00  0.1231645E+00 -0.2685982E+01  0.1106008E+00  0.5419377E-01
 -0.1078190E+01 -0.1094700E+02 -0.1027320E+00  0.1283225E+00 -0.2303138E+01  0.8579806E-01  0.9542201E-01
  0.1311740E-06 -0.1100000E+02 -0.1027320E+00  0.1522442E+00 -0.1999443E+01  0.6327880E-01  0.1384705E+00
  0.1078190E+01 -0.1094700E+02 -0.1027320E+00  0.1874820E+00 -0.1804218E+01  0.4336606E-01  0.1823976E+00
  0.2145990E+01 -0.1078860E+02 -0.1027320E+00  0.2281017E+00 -0.1687752E+01  0.2661707E-01  0.2265435E+00
  0.3193140E+01 -0.1052630E+02 -0.1027320E+00  0.2708396E+00 -0.1619564E+01  0.1320301E-01  0.2705176E+00
  0.4209520E+01 -0.1016270E+02 -0.1027320E+00  0.3139395E+00 -0.1580738E+01  0.3121091E-02  0.3139239E+00
  0.5185360E+01 -0.9701130E+01 -0.1027320E+00  0.3561797E+00 -0.1559684E+01 -0.3957824E-02  0.3561577E+00
  0.6111270E+01 -0.9146160E+01 -0.1027320E+00  0.3963625E+00 -0.1550457E+01 -0.8061137E-02  0.3962805E+00
  0.6978330E+01 -0.8503110E+01 -0.1027320E+00  0.4339933E+00 -0.1549092E+01 -0.9418606E-02  0.4338910E+00
  0.7778180E+01 -0.7778170E+01 -0.1027320E+00  0.4689669E+00 -0.1552942E+01 -0.8372603E-02  0.4688922E+00
  0.8503120E+01 -0.6978320E+01 -0.1027320E+00  0.5013039E+00 -0.1559689E+01 -0.5568258E-02  0.5012730E+00
  0.9146170E+01 -0.6111270E+01 -0.1027320E+00  0.5301548E+00 -0.1567961E+01 -0.1503210E-02  0.5301527E+00
