 VARIABLES="X" "Y" "Z" "abs(eta) (m)" "angle(phi) (rad)" "PRE1" "PRE2"
ZONE N=   3200 ,E =    3136 ,F=FEPOINT,ET=QUADRILATERAL
  0.1100000E+02  0.0000000E+00  0.0000000E+00  0.1263113E+00 -0.2151697E+01  0.6931682E-01  0.1055923E+00
  0.1094700E+02  0.1078190E+01  0.0000000E+00  0.1077544E+00 -0.2456467E+01  0.8343856E-01  0.6818378E-01
  0.1078860E+02  0.2145990E+01  0.0000000E+00  0.1042252E+00 -0.2832209E+01  0.9927674E-01  0.3173364E-01
  0.1052630E+02  0.3193130E+01  0.0000000E+00  0.1164991E+00  0.3114880E+01  0.1164576E+00 -0.3111653E-02
  0.1016270E+02  0.4209520E+01  0.0000000E+00  0.1391694E+00  0.2880414E+01  0.1344496E+00 -0.3593625E-01
  0.9701130E+01  0.5185360E+01  0.0000000E+00  0.1665369E+00  0.2733813E+01  0.1528814E+00 -0.6604386E-01
  0.9146170E+01  0.6111270E+01  0.0000000E+00  0.1954501E+00  0.2640501E+01  0.1714212E+00 -0.9389089E-01
  0.8503110E+01  0.6978330E+01  0.0000000E+00  0.2237275E+00  0.2580730E+01  0.1894516E+00 -0.1190044E+00
  0.7778170E+01  0.7778170E+01  0.0000000E+00  0.2501405E+00  0.2541308E+01  0.2064096E+00 -0.1412986E+00
  0.6978330E+01  0.8503110E+01  0.0000000E+00  0.2733791E+00  0.2516755E+01  0.2217263E+00 -0.1599174E+00
  0.6111270E+01  0.9146170E+01  0.0000000E+00  0.2936822E+00  0.2500153E+01  0.2353085E+00 -0.1757247E+00
  0.5185360E+01  0.9701130E+01  0.0000000E+00  0.3103615E+00  0.2489146E+01  0.2466134E+00 -0.1884306E+00
  0.4209520E+01  0.1016270E+02  0.0000000E+00  0.3232219E+00  0.2481634E+01  0.2553510E+00 -0.1981622E+00
  0.3193130E+01  0.1052630E+02  0.0000000E+00  0.3312250E+00  0.2478268E+01  0.2609886E+00 -0.2039483E+00
  0.2145990E+01  0.1078860E+02  0.0000000E+00  0.3351757E+00  0.2476631E+01  0.2637634E+00 -0.2068130E+00
  0.1078190E+01  0.1094700E+02  0.0000000E+00  0.3347791E+00  0.2476711E+01  0.2634677E+00 -0.2065474E+00
 -0.4808250E-06  0.1100000E+02  0.0000000E+00  0.3302589E+00  0.2478266E+01  0.2602269E+00 -0.2033542E+00
 -0.1078190E+01  0.1094700E+02  0.0000000E+00  0.3207455E+00  0.2483386E+01  0.2537387E+00 -0.1961998E+00
 -0.2145990E+01  0.1078860E+02  0.0000000E+00  0.3072595E+00  0.2491064E+01  0.2445060E+00 -0.1860785E+00
 -0.3193130E+01  0.1052630E+02  0.0000000E+00  0.2898961E+00  0.2502828E+01  0.2327381E+00 -0.1728372E+00
 -0.4209520E+01  0.1016270E+02  0.0000000E+00  0.2692534E+00  0.2520244E+01  0.2189283E+00 -0.1567412E+00
 -0.5185370E+01  0.9701130E+01  0.0000000E+00  0.2449234E+00  0.2548583E+01  0.2031057E+00 -0.1368778E+00
 -0.6111270E+01  0.9146160E+01  0.0000000E+00  0.2180937E+00  0.2590890E+01  0.1858500E+00 -0.1141255E+00
 -0.6978330E+01  0.8503120E+01  0.0000000E+00  0.1896171E+00  0.2655916E+01  0.1676897E+00 -0.8851448E-01
 -0.7778170E+01  0.7778170E+01  0.0000000E+00  0.1610421E+00  0.2756618E+01  0.1492551E+00 -0.6047710E-01
 -0.8503120E+01  0.6978330E+01  0.0000000E+00  0.1341195E+00  0.2920163E+01  0.1308449E+00 -0.2945592E-01
 -0.9146170E+01  0.6111270E+01  0.0000000E+00  0.1129519E+00 -0.3107866E+01  0.1128877E+00  0.3808737E-02
 -0.9701130E+01  0.5185360E+01  0.0000000E+00  0.1035610E+00 -0.2755770E+01  0.9594817E-01  0.3897225E-01
 -0.1016270E+02  0.4209520E+01  0.0000000E+00  0.1102833E+00 -0.2388655E+01  0.8047194E-01  0.7541009E-01
 -0.1052630E+02  0.3193130E+01  0.0000000E+00  0.1314124E+00 -0.2104017E+01  0.6679825E-01  0.1131690E+00
 -0.1078860E+02  0.2145990E+01  0.0000000E+00  0.1614257E+00 -0.1918702E+01  0.5503479E-01  0.1517545E+00
 -0.1094700E+02  0.1078190E+01  0.0000000E+00  0.1958963E+00 -0.1804981E+01  0.4545768E-01  0.1905490E+00
 -0.1100000E+02 -0.9616510E-06  0.0000000E+00  0.2320535E+00 -0.1735711E+01  0.3809578E-01  0.2289051E+00
 -0.1094700E+02 -0.1078190E+01  0.0000000E+00  0.2684691E+00 -0.1694361E+01  0.3308906E-01  0.2664222E+00
 -0.1078860E+02 -0.2146000E+01  0.0000000E+00  0.3045186E+00 -0.1670236E+01  0.3023146E-01  0.3030142E+00
 -0.1052630E+02 -0.3193130E+01  0.0000000E+00  0.3393077E+00 -0.1657475E+01  0.2937391E-01  0.3380339E+00
 -0.1016270E+02 -0.4209520E+01  0.0000000E+00  0.3722787E+00 -0.1651931E+01  0.3017151E-01  0.3710541E+00
 -0.9701130E+01 -0.5185360E+01  0.0000000E+00  0.4027125E+00 -0.1651563E+01  0.3249038E-01  0.4013997E+00
 -0.9146160E+01 -0.6111270E+01  0.0000000E+00  0.4309963E+00 -0.1654445E+01  0.3601008E-01  0.4294893E+00
 -0.8503110E+01 -0.6978330E+01  0.0000000E+00  0.4566281E+00 -0.1659188E+01  0.4030958E-01  0.4548454E+00
 -0.7778170E+01 -0.7778180E+01  0.0000000E+00  0.4794794E+00 -0.1664679E+01  0.4494852E-01  0.4773679E+00
 -0.6978330E+01 -0.8503110E+01  0.0000000E+00  0.4986951E+00 -0.1670468E+01  0.4962343E-01  0.4962200E+00
 -0.6111270E+01 -0.9146170E+01  0.0000000E+00  0.5150841E+00 -0.1676113E+01  0.5414676E-01  0.5122302E+00
 -0.5185360E+01 -0.9701130E+01  0.0000000E+00  0.5283099E+00 -0.1681028E+01  0.5811848E-01  0.5251034E+00
 -0.4209510E+01 -0.1016270E+02  0.0000000E+00  0.5384557E+00 -0.1684868E+01  0.6128941E-01  0.5349562E+00
 -0.3193130E+01 -0.1052630E+02  0.0000000E+00  0.5445419E+00 -0.1687442E+01  0.6337472E-01  0.5408415E+00
 -0.2145990E+01 -0.1078860E+02  0.0000000E+00  0.5475548E+00 -0.1688740E+01  0.6443116E-01  0.5437508E+00
 -0.1078190E+01 -0.1094700E+02  0.0000000E+00  0.5472710E+00 -0.1688590E+01  0.6431620E-01  0.5434785E+00
  0.1311740E-06 -0.1100000E+02  0.0000000E+00  0.5438970E+00 -0.1687086E+01  0.6310740E-01  0.5402234E+00
  0.1078190E+01 -0.1094700E+02  0.0000000E+00  0.5364264E+00 -0.1684193E+01  0.6069876E-01  0.5329812E+00
  0.2145990E+01 -0.1078860E+02  0.0000000E+00  0.5258589E+00 -0.1680074E+01  0.5735026E-01  0.5227222E+00
  0.3193140E+01 -0.1052630E+02  0.0000000E+00  0.5120786E+00 -0.1674973E+01  0.5325038E-01  0.5093024E+00
  0.4209520E+01 -0.1016270E+02  0.0000000E+00  0.4953962E+00 -0.1669384E+01  0.4876104E-01  0.4929906E+00
  0.5185360E+01 -0.9701130E+01  0.0000000E+00  0.4749559E+00 -0.1663629E+01  0.4402806E-01  0.4729108E+00
  0.6111270E+01 -0.9146160E+01  0.0000000E+00  0.4516379E+00 -0.1658064E+01  0.3936316E-01  0.4499193E+00
  0.6978330E+01 -0.8503110E+01  0.0000000E+00  0.4255202E+00 -0.1653589E+01  0.3518958E-01  0.4240626E+00
  0.7778180E+01 -0.7778170E+01  0.0000000E+00  0.3970623E+00 -0.1651342E+01  0.3194701E-01  0.3957750E+00
  0.8503120E+01 -0.6978320E+01  0.0000000E+00  0.3657689E+00 -0.1652762E+01  0.2994706E-01  0.3645409E+00
  0.9146170E+01 -0.6111270E+01  0.0000000E+00  0.3323777E+00 -0.1659278E+01  0.2937084E-01  0.3310775E+00
  0.9701130E+01 -0.5185360E+01  0.0000000E+00  0.2973226E+00 -0.1673924E+01  0.3060794E-01  0.2957429E+00
  0.1016270E+02 -0.4209520E+01  0.0000000E+00  0.2613676E+00 -0.1700795E+01  0.3388178E-01  0.2591622E+00
  0.1052630E+02 -0.3193130E+01  0.0000000E+00  0.2248121E+00 -0.1747152E+01  0.3944177E-01  0.2213252E+00
  0.1078860E+02 -0.2145990E+01  0.0000000E+00  0.1886971E+00 -0.1823634E+01  0.4720300E-01  0.1826977E+00
  0.1094700E+02 -0.1078180E+01  0.0000000E+00  0.1548671E+00 -0.1949282E+01  0.5722556E-01  0.1439064E+00
  0.1100000E+02  0.0000000E+00 -0.2568960E-01  0.1261438E+00 -0.2151781E+01  0.6923364E-01  0.1054464E+00
  0.1094700E+02  0.1078190E+01 -0.2568960E-01  0.1076044E+00 -0.2456622E+01  0.8333290E-01  0.6807596E-01
  0.1078860E+02  0.2145990E+01 -0.2568960E-01  0.1040856E+00 -0.2832384E+01  0.9914927E-01  0.3167378E-01
  0.1052630E+02  0.3193130E+01 -0.2568960E-01  0.1163489E+00  0.3114759E+01  0.1163070E+00 -0.3121729E-02
  0.1016270E+02  0.4209520E+01 -0.2568960E-01  0.1389925E+00  0.2880418E+01  0.1342789E+00 -0.3588996E-01
  0.9701130E+01  0.5185360E+01 -0.2568960E-01  0.1663341E+00  0.2733711E+01  0.1526886E+00 -0.6597906E-01
  0.9146170E+01  0.6111270E+01 -0.2568960E-01  0.1952123E+00  0.2640416E+01  0.1712047E+00 -0.9379137E-01
  0.8503110E+01  0.6978330E+01 -0.2568960E-01  0.2234495E+00  0.2580679E+01  0.1892102E+00 -0.1188663E+00
  0.7778170E+01  0.7778170E+01 -0.2568960E-01  0.2498119E+00  0.2541331E+01  0.2061418E+00 -0.1411083E+00
  0.6978330E+01  0.8503110E+01 -0.2568960E-01  0.2730435E+00  0.2516717E+01  0.2214481E+00 -0.1597294E+00
  0.6111270E+01  0.9146170E+01 -0.2568960E-01  0.2933238E+00  0.2500111E+01  0.2350141E+00 -0.1755200E+00
  0.5185360E+01  0.9701130E+01 -0.2568960E-01  0.3099758E+00  0.2489117E+01  0.2463015E+00 -0.1882035E+00
  0.4209520E+01  0.1016270E+02 -0.2568960E-01  0.3227935E+00  0.2481657E+01  0.2550171E+00 -0.1978938E+00
  0.3193130E+01  0.1052630E+02 -0.2568960E-01  0.3308148E+00  0.2478246E+01  0.2606609E+00 -0.2037016E+00
  0.2145990E+01  0.1078860E+02 -0.2568960E-01  0.3347655E+00  0.2476602E+01  0.2634346E+00 -0.2065676E+00
  0.1078190E+01  0.1094700E+02 -0.2568960E-01  0.3343635E+00  0.2476688E+01  0.2631358E+00 -0.2062970E+00
 -0.4808250E-06  0.1100000E+02 -0.2568960E-01  0.3298207E+00  0.2478288E+01  0.2598862E+00 -0.2030784E+00
 -0.1078190E+01  0.1094700E+02 -0.2568960E-01  0.3203472E+00  0.2483359E+01  0.2534184E+00 -0.1959628E+00
 -0.2145990E+01  0.1078860E+02 -0.2568960E-01  0.3068845E+00  0.2491027E+01  0.2442007E+00 -0.1858605E+00
 -0.3193130E+01  0.1052630E+02 -0.2568960E-01  0.2895407E+00  0.2502797E+01  0.2324474E+00 -0.1726326E+00
 -0.4209520E+01  0.1016270E+02 -0.2568960E-01  0.2688991E+00  0.2520267E+01  0.2186439E+00 -0.1565298E+00
 -0.5185370E+01  0.9701130E+01 -0.2568960E-01  0.2446193E+00  0.2548537E+01  0.2028472E+00 -0.1367171E+00
 -0.6111270E+01  0.9146160E+01 -0.2568960E-01  0.2178289E+00  0.2590818E+01  0.1856162E+00 -0.1140001E+00
 -0.6978330E+01  0.8503120E+01 -0.2568960E-01  0.1893874E+00  0.2655836E+01  0.1674794E+00 -0.8842073E-01
 -0.7778170E+01  0.7778170E+01 -0.2568960E-01  0.1608357E+00  0.2756633E+01  0.1490647E+00 -0.6039736E-01
 -0.8503120E+01  0.6978330E+01 -0.2568960E-01  0.1339494E+00  0.2920058E+01  0.1306758E+00 -0.2943231E-01
 -0.9146170E+01  0.6111270E+01 -0.2568960E-01  0.1128063E+00 -0.3108042E+01  0.1127428E+00  0.3784007E-02
 -0.9701130E+01  0.5185360E+01 -0.2568960E-01  0.1034224E+00 -0.2755962E+01  0.9582718E-01  0.3890161E-01
 -0.1016270E+02  0.4209520E+01 -0.2568960E-01  0.1101402E+00 -0.2388745E+01  0.8037424E-01  0.7530502E-01
 -0.1052630E+02  0.3193130E+01 -0.2568960E-01  0.1312330E+00 -0.2104060E+01  0.6671190E-01  0.1130116E+00
 -0.1078860E+02  0.2145990E+01 -0.2568960E-01  0.1612035E+00 -0.1918731E+01  0.5496346E-01  0.1515440E+00
 -0.1094700E+02  0.1078190E+01 -0.2568960E-01  0.1956265E+00 -0.1805010E+01  0.4540068E-01  0.1902854E+00
 -0.1100000E+02 -0.9616510E-06 -0.2568960E-01  0.2317383E+00 -0.1735762E+01  0.3805576E-01  0.2285922E+00
 -0.1094700E+02 -0.1078190E+01 -0.2568960E-01  0.2681149E+00 -0.1694378E+01  0.3304994E-01  0.2660701E+00
 -0.1078860E+02 -0.2146000E+01 -0.2568960E-01  0.3041167E+00 -0.1670249E+01  0.3019522E-01  0.3026140E+00
 -0.1052630E+02 -0.3193130E+01 -0.2568960E-01  0.3388563E+00 -0.1657490E+01  0.2933990E-01  0.3375837E+00
 -0.1016270E+02 -0.4209520E+01 -0.2568960E-01  0.3717721E+00 -0.1651964E+01  0.3014288E-01  0.3705481E+00
 -0.9701130E+01 -0.5185360E+01 -0.2568960E-01  0.4021862E+00 -0.1651588E+01  0.3245804E-01  0.4008743E+00
 -0.9146160E+01 -0.6111270E+01 -0.2568960E-01  0.4304344E+00 -0.1654467E+01  0.3597287E-01  0.4289286E+00
 -0.8503110E+01 -0.6978330E+01 -0.2568960E-01  0.4560270E+00 -0.1659211E+01  0.4026680E-01  0.4542457E+00
 -0.7778170E+01 -0.7778180E+01 -0.2568960E-01  0.4788258E+00 -0.1664706E+01  0.4490040E-01  0.4767159E+00
 -0.6978330E+01 -0.8503110E+01 -0.2568960E-01  0.4980441E+00 -0.1670500E+01  0.4957462E-01  0.4955707E+00
 -0.6111270E+01 -0.9146170E+01 -0.2568960E-01  0.5144144E+00 -0.1676144E+01  0.5409198E-01  0.5115625E+00
 -0.5185360E+01 -0.9701130E+01 -0.2568960E-01  0.5276170E+00 -0.1681057E+01  0.5805767E-01  0.5244130E+00
 -0.4209510E+01 -0.1016270E+02 -0.2568960E-01  0.5377219E+00 -0.1684894E+01  0.6121956E-01  0.5342256E+00
 -0.3193130E+01 -0.1052630E+02 -0.2568960E-01  0.5438294E+00 -0.1687475E+01  0.6330963E-01  0.5401318E+00
 -0.2145990E+01 -0.1078860E+02 -0.2568960E-01  0.5468432E+00 -0.1688775E+01  0.6436636E-01  0.5430418E+00
 -0.1078190E+01 -0.1094700E+02 -0.2568960E-01  0.5465553E+00 -0.1688624E+01  0.6425022E-01  0.5427657E+00
  0.1311740E-06 -0.1100000E+02 -0.2568960E-01  0.5431555E+00 -0.1687114E+01  0.6303595E-01  0.5394853E+00
  0.1078190E+01 -0.1094700E+02 -0.2568960E-01  0.5357240E+00 -0.1684224E+01  0.6063565E-01  0.5322814E+00
  0.2145990E+01 -0.1078860E+02 -0.2568960E-01  0.5251755E+00 -0.1680106E+01  0.5729232E-01  0.5220411E+00
  0.3193140E+01 -0.1052630E+02 -0.2568960E-01  0.5114103E+00 -0.1675006E+01  0.5319741E-01  0.5086359E+00
  0.4209520E+01 -0.1016270E+02 -0.2568960E-01  0.4947216E+00 -0.1669413E+01  0.4870868E-01  0.4923179E+00
  0.5185360E+01 -0.9701130E+01 -0.2568960E-01  0.4743320E+00 -0.1663653E+01  0.4398150E-01  0.4722885E+00
  0.6111270E+01 -0.9146160E+01 -0.2568960E-01  0.4510498E+00 -0.1658088E+01  0.3932286E-01  0.4493325E+00
  0.6978330E+01 -0.8503110E+01 -0.2568960E-01  0.4249644E+00 -0.1653615E+01  0.3515494E-01  0.4235078E+00
  0.7778180E+01 -0.7778170E+01 -0.2568960E-01  0.3965221E+00 -0.1651374E+01  0.3191618E-01  0.3952355E+00
  0.8503120E+01 -0.6978320E+01 -0.2568960E-01  0.3652839E+00 -0.1652779E+01  0.2991337E-01  0.3640571E+00
  0.9146170E+01 -0.6111270E+01 -0.2568960E-01  0.3319406E+00 -0.1659292E+01  0.2933703E-01  0.3306417E+00
  0.9701130E+01 -0.5185360E+01 -0.2568960E-01  0.2969315E+00 -0.1673943E+01  0.3057325E-01  0.2953534E+00
  0.1016270E+02 -0.4209520E+01 -0.2568960E-01  0.2610120E+00 -0.1700839E+01  0.3384719E-01  0.2588080E+00
  0.1052630E+02 -0.3193130E+01 -0.2568960E-01  0.2245056E+00 -0.1747173E+01  0.3939255E-01  0.2210226E+00
  0.1078860E+02 -0.2145990E+01 -0.2568960E-01  0.1884404E+00 -0.1823649E+01  0.4714155E-01  0.1824486E+00
  0.1094700E+02 -0.1078180E+01 -0.2568960E-01  0.1546573E+00 -0.1949308E+01  0.5715180E-01  0.1437100E+00
  0.1100000E+02  0.0000000E+00 -0.1027320E+00  0.1256316E+00 -0.2151939E+01  0.6896921E-01  0.1050074E+00
  0.1094700E+02  0.1078190E+01 -0.1027320E+00  0.1071407E+00 -0.2457029E+01  0.8300135E-01  0.6774879E-01
  0.1078860E+02  0.2145990E+01 -0.1027320E+00  0.1036496E+00 -0.2832965E+01  0.9875232E-01  0.3148367E-01
  0.1052630E+02  0.3193130E+01 -0.1027320E+00  0.1158878E+00  0.3114299E+01  0.1158447E+00 -0.3162599E-02
  0.1016270E+02  0.4209520E+01 -0.1027320E+00  0.1384571E+00  0.2880335E+01  0.1337587E+00 -0.3576290E-01
  0.9701130E+01  0.5185360E+01 -0.1027320E+00  0.1657293E+00  0.2733313E+01  0.1521072E+00 -0.6579966E-01
  0.9146170E+01  0.6111270E+01 -0.1027320E+00  0.1945090E+00  0.2640046E+01  0.1705532E+00 -0.9351654E-01
  0.8503110E+01  0.6978330E+01 -0.1027320E+00  0.2226261E+00  0.2580443E+01  0.1884851E+00 -0.1184727E+00
  0.7778170E+01  0.7778170E+01 -0.1027320E+00  0.2488399E+00  0.2541343E+01  0.2053413E+00 -0.1405569E+00
  0.6978330E+01  0.8503110E+01 -0.1027320E+00  0.2720564E+00  0.2516550E+01  0.2206210E+00 -0.1591888E+00
  0.6111270E+01  0.9146170E+01 -0.1027320E+00  0.2922756E+00  0.2499922E+01  0.2341410E+00 -0.1749372E+00
  0.5185360E+01  0.9701130E+01 -0.1027320E+00  0.3088417E+00  0.2488987E+01  0.2453759E+00 -0.1875469E+00
  0.4209520E+01  0.1016270E+02 -0.1027320E+00  0.3215316E+00  0.2481692E+01  0.2540269E+00 -0.1971113E+00
  0.3193130E+01  0.1052630E+02 -0.1027320E+00  0.3296106E+00  0.2478138E+01  0.2596902E+00 -0.2029881E+00
  0.2145990E+01  0.1078860E+02 -0.1027320E+00  0.3335684E+00  0.2476460E+01  0.2624632E+00 -0.2058662E+00
  0.1078190E+01  0.1094700E+02 -0.1027320E+00  0.3331455E+00  0.2476583E+01  0.2621559E+00 -0.2055730E+00
 -0.4808250E-06  0.1100000E+02 -0.1027320E+00  0.3285310E+00  0.2478326E+01  0.2588775E+00 -0.2022747E+00
 -0.1078190E+01  0.1094700E+02 -0.1027320E+00  0.3191764E+00  0.2483241E+01  0.2524691E+00 -0.1952766E+00
 -0.2145990E+01  0.1078860E+02 -0.1027320E+00  0.3057876E+00  0.2490854E+01  0.2432958E+00 -0.1852382E+00
 -0.3193130E+01  0.1052630E+02 -0.1027320E+00  0.2884923E+00  0.2502650E+01  0.2315805E+00 -0.1720416E+00
 -0.4209520E+01  0.1016270E+02 -0.1027320E+00  0.2678511E+00  0.2520287E+01  0.2177948E+00 -0.1559154E+00
 -0.5185370E+01  0.9701130E+01 -0.1027320E+00  0.2437207E+00  0.2548333E+01  0.2020744E+00 -0.1362561E+00
 -0.6111270E+01  0.9146160E+01 -0.1027320E+00  0.2170476E+00  0.2590500E+01  0.1849144E+00 -0.1136500E+00
 -0.6978330E+01  0.8503120E+01 -0.1027320E+00  0.1887024E+00  0.2655510E+01  0.1668449E+00 -0.8815539E-01
 -0.7778170E+01  0.7778170E+01 -0.1027320E+00  0.1602148E+00  0.2756583E+01  0.1484863E+00 -0.6017155E-01
 -0.8503120E+01  0.6978330E+01 -0.1027320E+00  0.1334348E+00  0.2919632E+01  0.1301613E+00 -0.2937470E-01
 -0.9146170E+01  0.6111270E+01 -0.1027320E+00  0.1123584E+00 -0.3108687E+01  0.1122976E+00  0.3696578E-02
 -0.9701130E+01  0.5185360E+01 -0.1027320E+00  0.1029910E+00 -0.2756541E+01  0.9544994E-01  0.3868410E-01
 -0.1016270E+02  0.4209520E+01 -0.1027320E+00  0.1096968E+00 -0.2388937E+01  0.8006506E-01  0.7498650E-01
 -0.1052630E+02  0.3193130E+01 -0.1027320E+00  0.1306846E+00 -0.2104087E+01  0.6643611E-01  0.1125376E+00
 -0.1078860E+02  0.2145990E+01 -0.1027320E+00  0.1605319E+00 -0.1918703E+01  0.5473025E-01  0.1509142E+00
 -0.1094700E+02  0.1078190E+01 -0.1027320E+00  0.1948202E+00 -0.1804996E+01  0.4521089E-01  0.1895017E+00
 -0.1100000E+02 -0.9616510E-06 -0.1027320E+00  0.2307969E+00 -0.1735834E+01  0.3791754E-01  0.2276609E+00
 -0.1094700E+02 -0.1078190E+01 -0.1027320E+00  0.2670605E+00 -0.1694360E+01  0.3291518E-01  0.2650244E+00
 -0.1078860E+02 -0.2146000E+01 -0.1027320E+00  0.3029258E+00 -0.1670223E+01  0.3006921E-01  0.3014297E+00
 -0.1052630E+02 -0.3193130E+01 -0.1027320E+00  0.3375179E+00 -0.1657489E+01  0.2922361E-01  0.3362504E+00
 -0.1016270E+02 -0.4209520E+01 -0.1027320E+00  0.3702695E+00 -0.1652028E+01  0.3004454E-01  0.3690485E+00
 -0.9701130E+01 -0.5185360E+01 -0.1027320E+00  0.4006278E+00 -0.1651633E+01  0.3235020E-01  0.3993195E+00
 -0.9146160E+01 -0.6111270E+01 -0.1027320E+00  0.4287784E+00 -0.1654510E+01  0.3585258E-01  0.4272768E+00
 -0.8503110E+01 -0.6978330E+01 -0.1027320E+00  0.4542511E+00 -0.1659260E+01  0.4013235E-01  0.4524748E+00
 -0.7778170E+01 -0.7778180E+01 -0.1027320E+00  0.4768931E+00 -0.1664780E+01  0.4475410E-01  0.4747885E+00
 -0.6978330E+01 -0.8503110E+01 -0.1027320E+00  0.4961189E+00 -0.1670586E+01  0.4942551E-01  0.4936508E+00
 -0.6111270E+01 -0.9146170E+01 -0.1027320E+00  0.5124453E+00 -0.1676232E+01  0.5393018E-01  0.5095996E+00
 -0.5185360E+01 -0.9701130E+01 -0.1027320E+00  0.5255725E+00 -0.1681144E+01  0.5787827E-01  0.5223759E+00
 -0.4209510E+01 -0.1016270E+02 -0.1027320E+00  0.5355514E+00 -0.1684975E+01  0.6101570E-01  0.5320643E+00
 -0.3193130E+01 -0.1052630E+02 -0.1027320E+00  0.5417266E+00 -0.1687577E+01  0.6311949E-01  0.5380368E+00
 -0.2145990E+01 -0.1078860E+02 -0.1027320E+00  0.5447527E+00 -0.1688881E+01  0.6417763E-01  0.5409591E+00
 -0.1078190E+01 -0.1094700E+02 -0.1027320E+00  0.5444415E+00 -0.1688725E+01  0.6405660E-01  0.5406600E+00
  0.1311740E-06 -0.1100000E+02 -0.1027320E+00  0.5409631E+00 -0.1687194E+01  0.6282486E-01  0.5373026E+00
  0.1078190E+01 -0.1094700E+02 -0.1027320E+00  0.5336490E+00 -0.1684316E+01  0.6044945E-01  0.5302143E+00
  0.2145990E+01 -0.1078860E+02 -0.1027320E+00  0.5231656E+00 -0.1680200E+01  0.5712218E-01  0.5200378E+00
  0.3193140E+01 -0.1052630E+02 -0.1027320E+00  0.5094338E+00 -0.1675097E+01  0.5303783E-01  0.5066653E+00
  0.4209520E+01 -0.1016270E+02 -0.1027320E+00  0.4927246E+00 -0.1669487E+01  0.4854833E-01  0.4903271E+00
  0.5185360E+01 -0.9701130E+01 -0.1027320E+00  0.4724871E+00 -0.1663712E+01  0.4383815E-01  0.4704490E+00
  0.6111270E+01 -0.9146160E+01 -0.1027320E+00  0.4493169E+00 -0.1658143E+01  0.3919630E-01  0.4476039E+00
  0.6978330E+01 -0.8503110E+01 -0.1027320E+00  0.4233188E+00 -0.1653671E+01  0.3504220E-01  0.4218659E+00
  0.7778180E+01 -0.7778170E+01 -0.1027320E+00  0.3949201E+00 -0.1651439E+01  0.3181307E-01  0.3936367E+00
  0.8503120E+01 -0.6978320E+01 -0.1027320E+00  0.3638470E+00 -0.1652788E+01  0.2979902E-01  0.3626246E+00
  0.9146170E+01 -0.6111270E+01 -0.1027320E+00  0.3306479E+00 -0.1659281E+01  0.2921915E-01  0.3293543E+00
