 VARIABLES="X" "Y" "Z" "abs(eta) (m)" "angle(phi) (rad)" "PRE1" "PRE2"
ZONE N=   3200 ,E =    3136 ,F=FEPOINT,ET=QUADRILATERAL
  0.1010000E+02  0.0000000E+00  0.0000000E+00  0.1158666E+00 -0.2031586E+01  0.5152075E-01  0.1037818E+00
  0.1005140E+02  0.9899730E+00  0.0000000E+00  0.9623107E-01 -0.2140478E+01  0.5190362E-01  0.8103354E-01
  0.9905930E+01  0.1970410E+01  0.0000000E+00  0.7858687E-01 -0.2311845E+01  0.5305103E-01  0.5797831E-01
  0.9665100E+01  0.2931880E+01  0.0000000E+00  0.6527565E-01 -0.2575146E+01  0.5508047E-01  0.3502930E-01
  0.9331180E+01  0.3865100E+01  0.0000000E+00  0.5915530E-01 -0.2927802E+01  0.5780855E-01  0.1255073E-01
  0.8907400E+01  0.4761110E+01  0.0000000E+00  0.6197988E-01  0.2992551E+01  0.6129276E-01 -0.9203395E-02
  0.8397840E+01  0.5611260E+01  0.0000000E+00  0.7214037E-01  0.2705546E+01  0.6539010E-01 -0.3046915E-01
  0.7807410E+01  0.6407370E+01  0.0000000E+00  0.8637076E-01  0.2515838E+01  0.7000532E-01 -0.5058817E-01
  0.7141780E+01  0.7141780E+01  0.0000000E+00  0.1021949E+00  0.2392895E+01  0.7486555E-01 -0.6956251E-01
  0.6407370E+01  0.7807410E+01  0.0000000E+00  0.1179656E+00  0.2314993E+01  0.7990763E-01 -0.8677928E-01
  0.5611260E+01  0.8397840E+01  0.0000000E+00  0.1334605E+00  0.2261605E+01  0.8503579E-01 -0.1028621E+00
  0.4761110E+01  0.8907410E+01  0.0000000E+00  0.1476506E+00  0.2226233E+01  0.8999389E-01 -0.1170547E+00
  0.3865100E+01  0.9331180E+01  0.0000000E+00  0.1605163E+00  0.2200894E+01  0.9458002E-01 -0.1296924E+00
  0.2931870E+01  0.9665100E+01  0.0000000E+00  0.1711857E+00  0.2184859E+01  0.9863596E-01 -0.1399124E+00
  0.1970410E+01  0.9905930E+01  0.0000000E+00  0.1803564E+00  0.2173112E+01  0.1021813E+00 -0.1486184E+00
  0.9899730E+00  0.1005140E+02  0.0000000E+00  0.1872093E+00  0.2165811E+01  0.1049347E+00 -0.1550355E+00
 -0.4414850E-06  0.1010000E+02  0.0000000E+00  0.1922211E+00  0.2160443E+01  0.1068879E+00 -0.1597621E+00
 -0.9899740E+00  0.1005140E+02  0.0000000E+00  0.1944380E+00  0.2158829E+01  0.1078597E+00 -0.1617790E+00
 -0.1970410E+01  0.9905930E+01  0.0000000E+00  0.1947926E+00  0.2158385E+01  0.1079844E+00 -0.1621220E+00
 -0.2931880E+01  0.9665100E+01  0.0000000E+00  0.1926053E+00  0.2160478E+01  0.1071071E+00 -0.1600777E+00
 -0.3865100E+01  0.9331180E+01  0.0000000E+00  0.1885879E+00  0.2163947E+01  0.1054161E+00 -0.1563740E+00
 -0.4761110E+01  0.8907400E+01  0.0000000E+00  0.1818417E+00  0.2171617E+01  0.1027987E+00 -0.1499961E+00
 -0.5611260E+01  0.8397840E+01  0.0000000E+00  0.1733004E+00  0.2181914E+01  0.9943688E-01 -0.1419343E+00
 -0.6407370E+01  0.7807410E+01  0.0000000E+00  0.1625643E+00  0.2197832E+01  0.9538413E-01 -0.1316397E+00
 -0.7141780E+01  0.7141780E+01  0.0000000E+00  0.1504690E+00  0.2219678E+01  0.9092782E-01 -0.1198876E+00
 -0.7807410E+01  0.6407370E+01  0.0000000E+00  0.1364025E+00  0.2253680E+01  0.8607449E-01 -0.1058151E+00
 -0.8397840E+01  0.5611260E+01  0.0000000E+00  0.1212487E+00  0.2302042E+01  0.8096957E-01 -0.9025066E-01
 -0.8907410E+01  0.4761110E+01  0.0000000E+00  0.1052018E+00  0.2375871E+01  0.7583819E-01 -0.7291088E-01
 -0.9331180E+01  0.3865100E+01  0.0000000E+00  0.8946876E-01  0.2485923E+01  0.7091650E-01 -0.5454823E-01
 -0.9665100E+01  0.2931880E+01  0.0000000E+00  0.7480402E-01  0.2660579E+01  0.6631574E-01 -0.3461018E-01
 -0.9905930E+01  0.1970410E+01  0.0000000E+00  0.6355456E-01  0.2925336E+01  0.6207422E-01 -0.1363724E-01
 -0.1005140E+02  0.9899730E+00  0.0000000E+00  0.5904506E-01 -0.3000804E+01  0.5846085E-01  0.8285441E-02
 -0.1010000E+02 -0.8829700E-06  0.0000000E+00  0.6337378E-01 -0.2638688E+01  0.5552724E-01  0.3054442E-01
 -0.1005140E+02 -0.9899740E+00  0.0000000E+00  0.7545364E-01 -0.2357352E+01  0.5341549E-01  0.5329200E-01
 -0.9905930E+01 -0.1970410E+01  0.0000000E+00  0.9239937E-01 -0.2169135E+01  0.5204586E-01  0.7634705E-01
 -0.9665100E+01 -0.2931880E+01  0.0000000E+00  0.1118895E+00 -0.2049796E+01  0.5156896E-01  0.9929703E-01
 -0.9331180E+01 -0.3865100E+01  0.0000000E+00  0.1323482E+00 -0.1973187E+01  0.5183006E-01  0.1217772E+00
 -0.8907400E+01 -0.4761110E+01  0.0000000E+00  0.1529764E+00 -0.1923973E+01  0.5291146E-01  0.1435346E+00
 -0.8397840E+01 -0.5611260E+01  0.0000000E+00  0.1736360E+00 -0.1891110E+01  0.5467183E-01  0.1648042E+00
 -0.7807400E+01 -0.6407370E+01  0.0000000E+00  0.1935302E+00 -0.1870075E+01  0.5705862E-01  0.1849277E+00
 -0.7141780E+01 -0.7141780E+01  0.0000000E+00  0.2124977E+00 -0.1856123E+01  0.5981190E-01  0.2039063E+00
 -0.6407370E+01 -0.7807410E+01  0.0000000E+00  0.2299032E+00 -0.1847966E+01  0.6290949E-01  0.2211287E+00
 -0.5611260E+01 -0.8397850E+01  0.0000000E+00  0.2462907E+00 -0.1843084E+01  0.6623622E-01  0.2372170E+00
 -0.4761110E+01 -0.8907410E+01  0.0000000E+00  0.2608664E+00 -0.1840804E+01  0.6958311E-01  0.2514149E+00
 -0.3865100E+01 -0.9331190E+01  0.0000000E+00  0.2738938E+00 -0.1839613E+01  0.7274356E-01  0.2640572E+00
 -0.2931870E+01 -0.9665100E+01  0.0000000E+00  0.2845125E+00 -0.1839776E+01  0.7560872E-01  0.2742821E+00
 -0.1970410E+01 -0.9905930E+01  0.0000000E+00  0.2935880E+00 -0.1840278E+01  0.7816246E-01  0.2829921E+00
 -0.9899710E+00 -0.1005140E+02  0.0000000E+00  0.3003104E+00 -0.1841022E+01  0.8016752E-01  0.2894123E+00
  0.1204410E-06 -0.1010000E+02  0.0000000E+00  0.3052476E+00 -0.1841388E+01  0.8159307E-01  0.2941406E+00
  0.9899760E+00 -0.1005140E+02  0.0000000E+00  0.3073840E+00 -0.1841877E+01  0.8230913E-01  0.2961589E+00
  0.1970410E+01 -0.9905930E+01  0.0000000E+00  0.3077402E+00 -0.1841872E+01  0.8240297E-01  0.2965025E+00
  0.2931880E+01 -0.9665100E+01  0.0000000E+00  0.3055953E+00 -0.1841617E+01  0.8175365E-01  0.2944568E+00
  0.3865100E+01 -0.9331180E+01  0.0000000E+00  0.3016929E+00 -0.1840942E+01  0.8051345E-01  0.2907510E+00
  0.4761110E+01 -0.8907410E+01  0.0000000E+00  0.2950367E+00 -0.1840511E+01  0.7861430E-01  0.2843702E+00
  0.5611260E+01 -0.8397840E+01  0.0000000E+00  0.2866157E+00 -0.1839848E+01  0.7618736E-01  0.2763043E+00
  0.6407370E+01 -0.7807410E+01  0.0000000E+00  0.2759214E+00 -0.1839697E+01  0.7330441E-01  0.2660058E+00
  0.7141780E+01 -0.7141780E+01  0.0000000E+00  0.2637641E+00 -0.1840224E+01  0.7020862E-01  0.2542484E+00
  0.7807410E+01 -0.6407370E+01  0.0000000E+00  0.2493248E+00 -0.1842611E+01  0.6693866E-01  0.2401710E+00
  0.8397840E+01 -0.5611260E+01  0.0000000E+00  0.2334298E+00 -0.1846704E+01  0.6359109E-01  0.2246011E+00
  0.8907410E+01 -0.4761110E+01  0.0000000E+00  0.2158759E+00 -0.1854341E+01  0.6039358E-01  0.2072559E+00
  0.9331180E+01 -0.3865100E+01  0.0000000E+00  0.1974563E+00 -0.1866466E+01  0.5753492E-01  0.1888881E+00
  0.9665100E+01 -0.2931870E+01  0.0000000E+00  0.1777166E+00 -0.1886280E+01  0.5514118E-01  0.1689457E+00
  0.9905930E+01 -0.1970410E+01  0.0000000E+00  0.1572465E+00 -0.1916017E+01  0.5321288E-01  0.1479691E+00
  0.1005140E+02 -0.9899690E+00  0.0000000E+00  0.1363496E+00 -0.1962098E+01  0.5200269E-01  0.1260434E+00
  0.1010000E+02  0.0000000E+00 -0.2568960E-01  0.1157887E+00 -0.2031512E+01  0.5147849E-01  0.1037159E+00
  0.1005140E+02  0.9899730E+00 -0.2568960E-01  0.9616363E-01 -0.2140437E+01  0.5186385E-01  0.8097892E-01
  0.9905930E+01  0.1970410E+01 -0.2568960E-01  0.7854786E-01 -0.2312002E+01  0.5303376E-01  0.5794122E-01
  0.9665100E+01  0.2931880E+01 -0.2568960E-01  0.6522387E-01 -0.2575212E+01  0.5503905E-01  0.3499794E-01
  0.9331180E+01  0.3865100E+01 -0.2568960E-01  0.5910581E-01 -0.2927999E+01  0.5776265E-01  0.1252888E-01
  0.8907400E+01  0.4761110E+01 -0.2568960E-01  0.6193542E-01  0.2992374E+01  0.6124716E-01 -0.9207664E-02
  0.8397840E+01  0.5611260E+01 -0.2568960E-01  0.7208059E-01  0.2706216E+01  0.6535628E-01 -0.3040014E-01
  0.7807410E+01  0.6407370E+01 -0.2568960E-01  0.8632036E-01  0.2515655E+01  0.6995526E-01 -0.5057141E-01
  0.7141780E+01  0.7141780E+01 -0.2568960E-01  0.1021431E+00  0.2392670E+01  0.7481197E-01 -0.6954417E-01
  0.6407370E+01  0.7807410E+01 -0.2568960E-01  0.1178989E+00  0.2314868E+01  0.7985168E-01 -0.8674019E-01
  0.5611260E+01  0.8397840E+01 -0.2568960E-01  0.1333008E+00  0.2261983E+01  0.8497280E-01 -0.1027069E+00
  0.4761110E+01  0.8907410E+01 -0.2568960E-01  0.1475700E+00  0.2226133E+01  0.8993307E-01 -0.1169998E+00
  0.3865100E+01  0.9331180E+01 -0.2568960E-01  0.1604415E+00  0.2200756E+01  0.9451804E-01 -0.1296449E+00
  0.2931870E+01  0.9665100E+01 -0.2568960E-01  0.1710914E+00  0.2184777E+01  0.9857015E-01 -0.1398434E+00
  0.1970410E+01  0.9905930E+01 -0.2568960E-01  0.1801334E+00  0.2173363E+01  0.1020922E+00 -0.1484089E+00
  0.9899730E+00  0.1005140E+02 -0.2568960E-01  0.1871064E+00  0.2165737E+01  0.1048655E+00 -0.1549581E+00
 -0.4414850E-06  0.1010000E+02 -0.2568960E-01  0.1921315E+00  0.2160336E+01  0.1068209E+00 -0.1596991E+00
 -0.9899740E+00  0.1005140E+02 -0.2568960E-01  0.1943311E+00  0.2158759E+01  0.1077890E+00 -0.1616975E+00
 -0.1970410E+01  0.9905930E+01 -0.2568960E-01  0.1945516E+00  0.2158607E+01  0.1078868E+00 -0.1618974E+00
 -0.2931880E+01  0.9665100E+01 -0.2568960E-01  0.1924990E+00  0.2160404E+01  0.1070362E+00 -0.1599972E+00
 -0.3865100E+01  0.9331180E+01 -0.2568960E-01  0.1885003E+00  0.2163835E+01  0.1053497E+00 -0.1563131E+00
 -0.4761110E+01  0.8907400E+01 -0.2568960E-01  0.1817423E+00  0.2171540E+01  0.1027310E+00 -0.1499220E+00
 -0.5611260E+01  0.8397840E+01 -0.2568960E-01  0.1730868E+00  0.2182181E+01  0.9935209E-01 -0.1417328E+00
 -0.6407370E+01  0.7807410E+01 -0.2568960E-01  0.1624745E+00  0.2197743E+01  0.9531976E-01 -0.1315755E+00
 -0.7141780E+01  0.7141780E+01 -0.2568960E-01  0.1503984E+00  0.2219532E+01  0.9086762E-01 -0.1198447E+00
 -0.7807410E+01  0.6407370E+01 -0.2568960E-01  0.1363281E+00  0.2253572E+01  0.8601607E-01 -0.1057666E+00
 -0.8397840E+01  0.5611260E+01 -0.2568960E-01  0.1211060E+00  0.2302464E+01  0.8091232E-01 -0.9011029E-01
 -0.8907410E+01  0.4761110E+01 -0.2568960E-01  0.1051412E+00  0.2375734E+01  0.7578450E-01 -0.7287925E-01
 -0.9331180E+01  0.3865100E+01 -0.2568960E-01  0.8942100E-01  0.2485663E+01  0.7086448E-01 -0.5453750E-01
 -0.9665100E+01  0.2931880E+01 -0.2568960E-01  0.7475796E-01  0.2660376E+01  0.6626789E-01 -0.3460229E-01
 -0.9905930E+01  0.1970410E+01 -0.2568960E-01  0.6351536E-01  0.2925991E+01  0.6204484E-01 -0.1358817E-01
 -0.1005140E+02  0.9899730E+00 -0.2568960E-01  0.5899952E-01 -0.3000937E+01  0.5841686E-01  0.8271270E-02
 -0.1010000E+02 -0.8829700E-06 -0.2568960E-01  0.6331988E-01 -0.2638771E+01  0.5548254E-01  0.3051384E-01
 -0.1005140E+02 -0.9899740E+00 -0.2568960E-01  0.7539535E-01 -0.2357360E+01  0.5337468E-01  0.5325038E-01
 -0.9905930E+01 -0.1970410E+01 -0.2568960E-01  0.9234145E-01 -0.2169353E+01  0.5202982E-01  0.7628789E-01
 -0.9665100E+01 -0.2931880E+01 -0.2568960E-01  0.1118138E+00 -0.2049752E+01  0.5152962E-01  0.9923211E-01
 -0.9331180E+01 -0.3865100E+01 -0.2568960E-01  0.1322629E+00 -0.1973113E+01  0.5178765E-01  0.1217026E+00
 -0.8907400E+01 -0.4761110E+01 -0.2568960E-01  0.1528761E+00 -0.1923935E+01  0.5287138E-01  0.1434424E+00
 -0.8397840E+01 -0.5611260E+01 -0.2568960E-01  0.1734712E+00 -0.1891279E+01  0.5464776E-01  0.1646387E+00
 -0.7807400E+01 -0.6407370E+01 -0.2568960E-01  0.1934099E+00 -0.1870042E+01  0.5701717E-01  0.1848146E+00
 -0.7141780E+01 -0.7141780E+01 -0.2568960E-01  0.2123753E+00 -0.1856076E+01  0.5976781E-01  0.2037918E+00
 -0.6407370E+01 -0.7807410E+01 -0.2568960E-01  0.2297604E+00 -0.1847939E+01  0.6286447E-01  0.2209930E+00
 -0.5611260E+01 -0.8397850E+01 -0.2568960E-01  0.2460361E+00 -0.1843179E+01  0.6619044E-01  0.2369653E+00
 -0.4761110E+01 -0.8907410E+01 -0.2568960E-01  0.2607077E+00 -0.1840783E+01  0.6953555E-01  0.2512634E+00
 -0.3865100E+01 -0.9331190E+01 -0.2568960E-01  0.2737420E+00 -0.1839582E+01  0.7269528E-01  0.2639130E+00
 -0.2931870E+01 -0.9665100E+01 -0.2568960E-01  0.2843392E+00 -0.1839758E+01  0.7555757E-01  0.2741165E+00
 -0.1970410E+01 -0.9905930E+01 -0.2568960E-01  0.2932755E+00 -0.1840335E+01  0.7809546E-01  0.2826865E+00
 -0.9899710E+00 -0.1005140E+02 -0.2568960E-01  0.3001290E+00 -0.1841007E+01  0.8011463E-01  0.2892387E+00
  0.1204410E-06 -0.1010000E+02 -0.2568960E-01  0.3050805E+00 -0.1841365E+01  0.8154164E-01  0.2939815E+00
  0.9899760E+00 -0.1005140E+02 -0.2568960E-01  0.3071985E+00 -0.1841863E+01  0.8225513E-01  0.2959814E+00
  0.1970410E+01 -0.9905930E+01 -0.2568960E-01  0.3074106E+00 -0.1841919E+01  0.8232860E-01  0.2961811E+00
  0.2931880E+01 -0.9665100E+01 -0.2568960E-01  0.3054103E+00 -0.1841602E+01  0.8169952E-01  0.2942798E+00
  0.3865100E+01 -0.9331180E+01 -0.2568960E-01  0.3015273E+00 -0.1840919E+01  0.8046234E-01  0.2905934E+00
  0.4761110E+01 -0.8907410E+01 -0.2568960E-01  0.2948585E+00 -0.1840495E+01  0.7856241E-01  0.2841998E+00
  0.5611260E+01 -0.8397840E+01 -0.2568960E-01  0.2863125E+00 -0.1839910E+01  0.7612393E-01  0.2760072E+00
  0.6407370E+01 -0.7807410E+01 -0.2568960E-01  0.2757533E+00 -0.1839677E+01  0.7325464E-01  0.2658451E+00
  0.7141780E+01 -0.7141780E+01 -0.2568960E-01  0.2636171E+00 -0.1840191E+01  0.7016109E-01  0.2541090E+00
  0.7807410E+01 -0.6407370E+01 -0.2568960E-01  0.2491730E+00 -0.1842589E+01  0.6689260E-01  0.2400261E+00
  0.8397840E+01 -0.5611260E+01 -0.2568960E-01  0.2331910E+00 -0.1846812E+01  0.6355011E-01  0.2243645E+00
  0.8907410E+01 -0.4761110E+01 -0.2568960E-01  0.2157411E+00 -0.1854313E+01  0.6035013E-01  0.2071282E+00
  0.9331180E+01 -0.3865100E+01 -0.2568960E-01  0.1973410E+00 -0.1866414E+01  0.5749146E-01  0.1887809E+00
  0.9665100E+01 -0.2931870E+01 -0.2568960E-01  0.1776048E+00 -0.1886245E+01  0.5510068E-01  0.1688413E+00
  0.9905930E+01 -0.1970410E+01 -0.2568960E-01  0.1571025E+00 -0.1916205E+01  0.5319199E-01  0.1478236E+00
  0.1005140E+02 -0.9899690E+00 -0.2568960E-01  0.1362583E+00 -0.1962060E+01  0.5196305E-01  0.1259609E+00
  0.1010000E+02  0.0000000E+00 -0.1027320E+00  0.1155486E+00 -0.2031351E+01  0.5135498E-01  0.1035092E+00
  0.1005140E+02  0.9899730E+00 -0.1027320E+00  0.9596003E-01 -0.2140371E+01  0.5174874E-01  0.8081086E-01
  0.9905930E+01  0.1970410E+01 -0.1027320E+00  0.7838660E-01 -0.2312077E+01  0.5292921E-01  0.5781833E-01
  0.9665100E+01  0.2931880E+01 -0.1027320E+00  0.6507581E-01 -0.2575314E+01  0.5491770E-01  0.3491285E-01
  0.9331180E+01  0.3865100E+01 -0.1027320E+00  0.5896328E-01 -0.2928364E+01  0.5762792E-01  0.1247759E-01
  0.8907400E+01  0.4761110E+01 -0.1027320E+00  0.6180230E-01  0.2992182E+01  0.6111376E-01 -0.9199616E-02
  0.8397840E+01  0.5611260E+01 -0.1027320E+00  0.7192566E-01  0.2706482E+01  0.6522387E-01 -0.3031744E-01
  0.7807410E+01  0.6407370E+01 -0.1027320E+00  0.8615252E-01  0.2515439E+01  0.6980830E-01 -0.5048820E-01
  0.7141780E+01  0.7141780E+01 -0.1027320E+00  0.1019660E+00  0.2392253E+01  0.7465325E-01 -0.6945468E-01
  0.6407370E+01  0.7807410E+01 -0.1027320E+00  0.1176690E+00  0.2314744E+01  0.7968522E-01 -0.8658097E-01
  0.5611260E+01  0.8397840E+01 -0.1027320E+00  0.1329947E+00  0.2262158E+01  0.8479568E-01 -0.1024562E+00
  0.4761110E+01  0.8907410E+01 -0.1027320E+00  0.1472893E+00  0.2226041E+01  0.8975116E-01 -0.1167855E+00
  0.3865100E+01  0.9331180E+01 -0.1027320E+00  0.1601755E+00  0.2200536E+01  0.9433293E-01 -0.1294508E+00
  0.2931870E+01  0.9665100E+01 -0.1027320E+00  0.1707620E+00  0.2184714E+01  0.9837165E-01 -0.1395804E+00
  0.1970410E+01  0.9905930E+01 -0.1027320E+00  0.1797165E+00  0.2173501E+01  0.1018764E+00 -0.1480514E+00
  0.9899730E+00  0.1005140E+02 -0.1027320E+00  0.1867492E+00  0.2165686E+01  0.1046575E+00 -0.1546676E+00
 -0.4414850E-06  0.1010000E+02 -0.1027320E+00  0.1918144E+00  0.2160179E+01  0.1066197E+00 -0.1594522E+00
 -0.9899740E+00  0.1005140E+02 -0.1027320E+00  0.1939588E+00  0.2158714E+01  0.1075753E+00 -0.1613926E+00
 -0.1970410E+01  0.9905930E+01 -0.1027320E+00  0.1941006E+00  0.2158735E+01  0.1076573E+00 -0.1615084E+00
 -0.2931880E+01  0.9665100E+01 -0.1027320E+00  0.1921295E+00  0.2160361E+01  0.1068239E+00 -0.1596947E+00
 -0.3865100E+01  0.9331180E+01 -0.1027320E+00  0.1881889E+00  0.2163673E+01  0.1051503E+00 -0.1560720E+00
 -0.4761110E+01  0.8907400E+01 -0.1027320E+00  0.1813954E+00  0.2171484E+01  0.1025265E+00 -0.1496416E+00
 -0.5611260E+01  0.8397840E+01 -0.1027320E+00  0.1726862E+00  0.2182323E+01  0.9914236E-01 -0.1413907E+00
 -0.6407370E+01  0.7807410E+01 -0.1027320E+00  0.1621615E+00  0.2197674E+01  0.9512696E-01 -0.1313286E+00
 -0.7141780E+01  0.7141780E+01 -0.1027320E+00  0.1501482E+00  0.2219286E+01  0.9068707E-01 -0.1196676E+00
 -0.7807410E+01  0.6407370E+01 -0.1027320E+00  0.1360686E+00  0.2253465E+01  0.8584106E-01 -0.1055745E+00
 -0.8397840E+01  0.5611260E+01 -0.1027320E+00  0.1208290E+00  0.2302660E+01  0.8074487E-01 -0.8988836E-01
 -0.8907410E+01  0.4761110E+01 -0.1027320E+00  0.1049348E+00  0.2375590E+01  0.7562518E-01 -0.7274712E-01
 -0.9331180E+01  0.3865100E+01 -0.1027320E+00  0.8926074E-01  0.2485185E+01  0.7071143E-01 -0.5447361E-01
 -0.9665100E+01  0.2931880E+01 -0.1027320E+00  0.7460912E-01  0.2660115E+01  0.6612693E-01 -0.3455068E-01
 -0.9905930E+01  0.1970410E+01 -0.1027320E+00  0.6338421E-01  0.2926243E+01  0.6192015E-01 -0.1354450E-01
 -0.1005140E+02  0.9899730E+00 -0.1027320E+00  0.5886904E-01 -0.3001071E+01  0.5828877E-01  0.8245173E-02
 -0.1010000E+02 -0.8829700E-06 -0.1027320E+00  0.6316531E-01 -0.2638904E+01  0.5535115E-01  0.3043200E-01
 -0.1005140E+02 -0.9899740E+00 -0.1027320E+00  0.7522647E-01 -0.2357389E+01  0.5325665E-01  0.5312957E-01
 -0.9905930E+01 -0.1970410E+01 -0.1027320E+00  0.9214687E-01 -0.2169449E+01  0.5192751E-01  0.7612213E-01
 -0.9665100E+01 -0.2931880E+01 -0.1027320E+00  0.1115803E+00 -0.2049685E+01  0.5141540E-01  0.9902839E-01
 -0.9331180E+01 -0.3865100E+01 -0.1027320E+00  0.1319963E+00 -0.1972960E+01  0.5166476E-01  0.1214651E+00
 -0.8907400E+01 -0.4761110E+01 -0.1027320E+00  0.1525575E+00 -0.1923895E+01  0.5275548E-01  0.1431455E+00
 -0.8397840E+01 -0.5611260E+01 -0.1027320E+00  0.1730844E+00 -0.1891361E+01  0.5453938E-01  0.1642671E+00
 -0.7807400E+01 -0.6407370E+01 -0.1027320E+00  0.1930191E+00 -0.1870012E+01  0.5689640E-01  0.1844429E+00
 -0.7141780E+01 -0.7141780E+01 -0.1027320E+00  0.2119758E+00 -0.1855993E+01  0.5963854E-01  0.2034133E+00
 -0.6407370E+01 -0.7807410E+01 -0.1027320E+00  0.2292936E+00 -0.1847924E+01  0.6273342E-01  0.2205450E+00
 -0.5611260E+01 -0.8397850E+01 -0.1027320E+00  0.2454797E+00 -0.1843240E+01  0.6605520E-01  0.2364254E+00
 -0.4761110E+01 -0.8907410E+01 -0.1027320E+00  0.2601856E+00 -0.1840781E+01  0.6939583E-01  0.2507603E+00
 -0.3865100E+01 -0.9331190E+01 -0.1027320E+00  0.2732385E+00 -0.1839549E+01  0.7255287E-01  0.2634300E+00
 -0.2931870E+01 -0.9665100E+01 -0.1027320E+00  0.2837674E+00 -0.1839763E+01  0.7540705E-01  0.2735648E+00
 -0.1970410E+01 -0.9905930E+01 -0.1027320E+00  0.2926092E+00 -0.1840388E+01  0.7793298E-01  0.2820400E+00
 -0.9899710E+00 -0.1005140E+02 -0.1027320E+00  0.2995286E+00 -0.1841018E+01  0.7995771E-01  0.2886592E+00
  0.1204410E-06 -0.1010000E+02 -0.1027320E+00  0.3045237E+00 -0.1841355E+01  0.8138996E-01  0.2934456E+00
  0.9899760E+00 -0.1005140E+02 -0.1027320E+00  0.3065832E+00 -0.1841875E+01  0.8209409E-01  0.2953876E+00
  0.1970410E+01 -0.9905930E+01 -0.1027320E+00  0.3067114E+00 -0.1841970E+01  0.8215640E-01  0.2955033E+00
  0.2931880E+01 -0.9665100E+01 -0.1027320E+00  0.3047980E+00 -0.1841615E+01  0.8153968E-01  0.2936888E+00
  0.3865100E+01 -0.9331180E+01 -0.1027320E+00  0.3009766E+00 -0.1840907E+01  0.8031208E-01  0.2900636E+00
  0.4761110E+01 -0.8907410E+01 -0.1027320E+00  0.2942687E+00 -0.1840504E+01  0.7840794E-01  0.2836305E+00
  0.5611260E+01 -0.8397840E+01 -0.1027320E+00  0.2856621E+00 -0.1839963E+01  0.7596570E-01  0.2753762E+00
  0.6407370E+01 -0.7807410E+01 -0.1027320E+00  0.2751977E+00 -0.1839678E+01  0.7310733E-01  0.2653095E+00
  0.7141780E+01 -0.7141780E+01 -0.1027320E+00  0.2631309E+00 -0.1840150E+01  0.7002132E-01  0.2536432E+00
  0.7807410E+01 -0.6407370E+01 -0.1027320E+00  0.2486732E+00 -0.1842582E+01  0.6675674E-01  0.2395451E+00
  0.8397840E+01 -0.5611260E+01 -0.1027320E+00  0.2326644E+00 -0.1846876E+01  0.6342106E-01  0.2238538E+00
