 VARIABLES="X" "Y" "Z" "abs(eta) (m)" "angle(phi) (rad)" "PRE1" "PRE2"
ZONE N=   3200 ,E =    3136 ,F=FEPOINT,ET=QUADRILATERAL
  0.1010000E+02  0.0000000E+00  0.0000000E+00  0.5610987E+00 -0.1472214E+01 -0.5522471E-01  0.5583744E+00
  0.1005140E+02  0.9899730E+00  0.0000000E+00  0.5579755E+00 -0.1472176E+01 -0.5493835E-01  0.5552643E+00
  0.9905930E+01  0.1970410E+01  0.0000000E+00  0.5493504E+00 -0.1472126E+01 -0.5411664E-01  0.5466784E+00
  0.9665100E+01  0.2931880E+01  0.0000000E+00  0.5363427E+00 -0.1472159E+01 -0.5281791E-01  0.5337357E+00
  0.9331180E+01  0.3865100E+01  0.0000000E+00  0.5183870E+00 -0.1472214E+01 -0.5102081E-01  0.5158700E+00
  0.8907400E+01  0.4761110E+01  0.0000000E+00  0.4946696E+00 -0.1472197E+01 -0.4869502E-01  0.4922670E+00
  0.8397840E+01  0.5611260E+01  0.0000000E+00  0.4657141E+00 -0.1472126E+01 -0.4587784E-01  0.4634489E+00
  0.7807410E+01  0.6407370E+01  0.0000000E+00  0.4330530E+00 -0.1472135E+01 -0.4265609E-01  0.4309470E+00
  0.7141780E+01  0.7141780E+01  0.0000000E+00  0.3967581E+00 -0.1472215E+01 -0.3904960E-01  0.3948318E+00
  0.6407370E+01  0.7807410E+01  0.0000000E+00  0.3560471E+00 -0.1472228E+01 -0.3503832E-01  0.3543189E+00
  0.5611260E+01  0.8397840E+01  0.0000000E+00  0.3111839E+00 -0.1472127E+01 -0.3065449E-01  0.3096703E+00
  0.4761110E+01  0.8907410E+01  0.0000000E+00  0.2638332E+00 -0.1472089E+01 -0.2600010E-01  0.2625489E+00
  0.3865100E+01  0.9331180E+01  0.0000000E+00  0.2147224E+00 -0.1472215E+01 -0.2113326E-01  0.2136798E+00
  0.2931870E+01  0.9665100E+01  0.0000000E+00  0.1632242E+00 -0.1472323E+01 -0.1604733E-01  0.1624335E+00
  0.1970410E+01  0.9905930E+01  0.0000000E+00  0.1092676E+00 -0.1472126E+01 -0.1076401E-01  0.1087361E+00
  0.9899730E+00  0.1005140E+02  0.0000000E+00  0.5444804E-01 -0.1471714E+01 -0.5386036E-02  0.5418099E-01
 -0.4414850E-06  0.1010000E+02  0.0000000E+00  0.2833059E-06  0.2720771E+01  0.2585885E-06 -0.1157334E-06
 -0.9899740E+00  0.1005140E+02  0.0000000E+00  0.5444849E-01  0.1669889E+01  0.5386608E-02 -0.5418139E-01
 -0.1970410E+01  0.9905930E+01  0.0000000E+00  0.1092678E+00  0.1669472E+01  0.1076456E-01 -0.1087363E+00
 -0.2931880E+01  0.9665100E+01  0.0000000E+00  0.1632250E+00  0.1669274E+01  0.1604808E-01 -0.1624341E+00
 -0.3865100E+01  0.9331180E+01  0.0000000E+00  0.2147227E+00  0.1669381E+01  0.2113416E-01 -0.2136801E+00
 -0.4761110E+01  0.8907400E+01  0.0000000E+00  0.2638341E+00  0.1669507E+01  0.2600098E-01 -0.2625498E+00
 -0.5611260E+01  0.8397840E+01  0.0000000E+00  0.3111841E+00  0.1669467E+01  0.3065505E-01 -0.3096705E+00
 -0.6407370E+01  0.7807410E+01  0.0000000E+00  0.3560473E+00  0.1669366E+01  0.3503871E-01 -0.3543190E+00
 -0.7141780E+01  0.7141780E+01  0.0000000E+00  0.3967585E+00  0.1669380E+01  0.3905050E-01 -0.3948320E+00
 -0.7807410E+01  0.6407370E+01  0.0000000E+00  0.4330537E+00  0.1669458E+01  0.4265671E-01 -0.4309477E+00
 -0.8397840E+01  0.5611260E+01  0.0000000E+00  0.4657145E+00  0.1669468E+01  0.4587832E-01 -0.4634493E+00
 -0.8907410E+01  0.4761110E+01  0.0000000E+00  0.4946698E+00  0.1669397E+01  0.4869561E-01 -0.4922671E+00
 -0.9331180E+01  0.3865100E+01  0.0000000E+00  0.5183878E+00  0.1669379E+01  0.5102139E-01 -0.5158709E+00
 -0.9665100E+01  0.2931880E+01  0.0000000E+00  0.5363430E+00  0.1669435E+01  0.5281820E-01 -0.5337360E+00
 -0.9905930E+01  0.1970410E+01  0.0000000E+00  0.5493509E+00  0.1669467E+01  0.5411717E-01 -0.5466788E+00
 -0.1005140E+02  0.9899730E+00  0.0000000E+00  0.5579778E+00  0.1669417E+01  0.5493888E-01 -0.5552666E+00
 -0.1010000E+02 -0.8829700E-06  0.0000000E+00  0.5611012E+00  0.1669379E+01  0.5522543E-01 -0.5583768E+00
 -0.1005140E+02 -0.9899740E+00  0.0000000E+00  0.5579770E+00  0.1669417E+01  0.5493873E-01 -0.5552657E+00
 -0.9905930E+01 -0.1970410E+01  0.0000000E+00  0.5493510E+00  0.1669467E+01  0.5411717E-01 -0.5466789E+00
 -0.9665100E+01 -0.2931880E+01  0.0000000E+00  0.5363433E+00  0.1669435E+01  0.5281834E-01 -0.5337362E+00
 -0.9331180E+01 -0.3865100E+01  0.0000000E+00  0.5183880E+00  0.1669379E+01  0.5102160E-01 -0.5158710E+00
 -0.8907400E+01 -0.4761110E+01  0.0000000E+00  0.4946702E+00  0.1669397E+01  0.4869593E-01 -0.4922675E+00
 -0.8397840E+01 -0.5611260E+01  0.0000000E+00  0.4657143E+00  0.1669468E+01  0.4587808E-01 -0.4634490E+00
 -0.7807400E+01 -0.6407370E+01  0.0000000E+00  0.4330533E+00  0.1669459E+01  0.4265678E-01 -0.4309473E+00
 -0.7141780E+01 -0.7141780E+01  0.0000000E+00  0.3967580E+00  0.1669379E+01  0.3905028E-01 -0.3948316E+00
 -0.6407370E+01 -0.7807410E+01  0.0000000E+00  0.3560474E+00  0.1669367E+01  0.3503894E-01 -0.3543191E+00
 -0.5611260E+01 -0.8397850E+01  0.0000000E+00  0.3111839E+00  0.1669467E+01  0.3065501E-01 -0.3096703E+00
 -0.4761110E+01 -0.8907410E+01  0.0000000E+00  0.2638331E+00  0.1669507E+01  0.2600091E-01 -0.2625488E+00
 -0.3865100E+01 -0.9331190E+01  0.0000000E+00  0.2147222E+00  0.1669381E+01  0.2113411E-01 -0.2136796E+00
 -0.2931870E+01 -0.9665100E+01  0.0000000E+00  0.1632248E+00  0.1669273E+01  0.1604782E-01 -0.1624340E+00
 -0.1970410E+01 -0.9905930E+01  0.0000000E+00  0.1092678E+00  0.1669472E+01  0.1076461E-01 -0.1087363E+00
 -0.9899710E+00 -0.1005140E+02  0.0000000E+00  0.5444840E-01  0.1669890E+01  0.5386680E-02 -0.5418129E-01
  0.1204410E-06 -0.1010000E+02  0.0000000E+00  0.4974673E-06  0.2183966E+01  0.2862738E-06 -0.4068427E-06
  0.9899760E+00 -0.1005140E+02  0.0000000E+00  0.5444799E-01 -0.1471713E+01 -0.5386065E-02  0.5418093E-01
  0.1970410E+01 -0.9905930E+01  0.0000000E+00  0.1092671E+00 -0.1472126E+01 -0.1076392E-01  0.1087356E+00
  0.2931880E+01 -0.9665100E+01  0.0000000E+00  0.1632245E+00 -0.1472324E+01 -0.1604720E-01  0.1624338E+00
  0.3865100E+01 -0.9331180E+01  0.0000000E+00  0.2147219E+00 -0.1472214E+01 -0.2113342E-01  0.2136794E+00
  0.4761110E+01 -0.8907410E+01  0.0000000E+00  0.2638327E+00 -0.1472088E+01 -0.2600016E-01  0.2625484E+00
  0.5611260E+01 -0.8397840E+01  0.0000000E+00  0.3111835E+00 -0.1472127E+01 -0.3065440E-01  0.3096699E+00
  0.6407370E+01 -0.7807410E+01  0.0000000E+00  0.3560467E+00 -0.1472228E+01 -0.3503811E-01  0.3543184E+00
  0.7141780E+01 -0.7141780E+01  0.0000000E+00  0.3967571E+00 -0.1472215E+01 -0.3904969E-01  0.3948307E+00
  0.7807410E+01 -0.6407370E+01  0.0000000E+00  0.4330525E+00 -0.1472136E+01 -0.4265602E-01  0.4309466E+00
  0.8397840E+01 -0.5611260E+01  0.0000000E+00  0.4657138E+00 -0.1472126E+01 -0.4587764E-01  0.4634486E+00
  0.8907410E+01 -0.4761110E+01  0.0000000E+00  0.4946690E+00 -0.1472197E+01 -0.4869501E-01  0.4922664E+00
  0.9331180E+01 -0.3865100E+01  0.0000000E+00  0.5183862E+00 -0.1472214E+01 -0.5102082E-01  0.5158693E+00
  0.9665100E+01 -0.2931870E+01  0.0000000E+00  0.5363427E+00 -0.1472159E+01 -0.5281761E-01  0.5337357E+00
  0.9905930E+01 -0.1970410E+01  0.0000000E+00  0.5493500E+00 -0.1472126E+01 -0.5411648E-01  0.5466780E+00
  0.1005140E+02 -0.9899690E+00  0.0000000E+00  0.5579759E+00 -0.1472177E+01 -0.5493824E-01  0.5552647E+00
  0.1010000E+02  0.0000000E+00 -0.2568960E-01  0.5606191E+00 -0.1472218E+01 -0.5517558E-01  0.5578973E+00
  0.1005140E+02  0.9899730E+00 -0.2568960E-01  0.5575753E+00 -0.1472187E+01 -0.5489308E-01  0.5548666E+00
  0.9905930E+01  0.1970410E+01 -0.2568960E-01  0.5488690E+00 -0.1472129E+01 -0.5406785E-01  0.5461995E+00
  0.9665100E+01  0.2931880E+01 -0.2568960E-01  0.5359589E+00 -0.1472169E+01 -0.5277431E-01  0.5333543E+00
  0.9331180E+01  0.3865100E+01 -0.2568960E-01  0.5179437E+00 -0.1472218E+01 -0.5097527E-01  0.5154291E+00
  0.8907400E+01  0.4761110E+01 -0.2568960E-01  0.4943120E+00 -0.1472207E+01 -0.4865499E-01  0.4919116E+00
  0.8397840E+01  0.5611260E+01 -0.2568960E-01  0.4653063E+00 -0.1472129E+01 -0.4583625E-01  0.4630432E+00
  0.7807410E+01  0.6407370E+01 -0.2568960E-01  0.4327450E+00 -0.1472146E+01 -0.4262131E-01  0.4306409E+00
  0.7141780E+01  0.7141780E+01 -0.2568960E-01  0.3964188E+00 -0.1472218E+01 -0.3901500E-01  0.3944942E+00
  0.6407370E+01  0.7807410E+01 -0.2568960E-01  0.3557871E+00 -0.1472237E+01 -0.3500951E-01  0.3540605E+00
  0.5611260E+01  0.8397840E+01 -0.2568960E-01  0.3109111E+00 -0.1472129E+01 -0.3062696E-01  0.3093990E+00
  0.4761110E+01  0.8907410E+01 -0.2568960E-01  0.2636482E+00 -0.1472099E+01 -0.2597907E-01  0.2623651E+00
  0.3865100E+01  0.9331180E+01 -0.2568960E-01  0.2145386E+00 -0.1472219E+01 -0.2111451E-01  0.2134971E+00
  0.2931870E+01  0.9665100E+01 -0.2568960E-01  0.1631023E+00 -0.1472331E+01 -0.1603393E-01  0.1623122E+00
  0.1970410E+01  0.9905930E+01 -0.2568960E-01  0.1091718E+00 -0.1472127E+01 -0.1075443E-01  0.1086408E+00
  0.9899730E+00  0.1005140E+02 -0.2568960E-01  0.5441421E-01 -0.1471725E+01 -0.5382091E-02  0.5414739E-01
 -0.4414850E-06  0.1010000E+02 -0.2568960E-01  0.2461787E-06  0.2508904E+01  0.1985286E-06 -0.1455691E-06
 -0.9899740E+00  0.1005140E+02 -0.2568960E-01  0.5441439E-01  0.1669876E+01  0.5382538E-02 -0.5414752E-01
 -0.1970410E+01  0.9905930E+01 -0.2568960E-01  0.1091720E+00  0.1669469E+01  0.1075484E-01 -0.1086410E+00
 -0.2931880E+01  0.9665100E+01 -0.2568960E-01  0.1631030E+00  0.1669265E+01  0.1603457E-01 -0.1623129E+00
 -0.3865100E+01  0.9331180E+01 -0.2568960E-01  0.2145391E+00  0.1669378E+01  0.2111531E-01 -0.2134975E+00
 -0.4761110E+01  0.8907400E+01 -0.2568960E-01  0.2636488E+00  0.1669495E+01  0.2597954E-01 -0.2623657E+00
 -0.5611260E+01  0.8397840E+01 -0.2568960E-01  0.3109114E+00  0.1669465E+01  0.3062751E-01 -0.3093992E+00
 -0.6407370E+01  0.7807410E+01 -0.2568960E-01  0.3557878E+00  0.1669357E+01  0.3500997E-01 -0.3540611E+00
 -0.7141780E+01  0.7141780E+01 -0.2568960E-01  0.3964192E+00  0.1669376E+01  0.3901562E-01 -0.3944946E+00
 -0.7807410E+01  0.6407370E+01 -0.2568960E-01  0.4327455E+00  0.1669448E+01  0.4262193E-01 -0.4306414E+00
 -0.8397840E+01  0.5611260E+01 -0.2568960E-01  0.4653073E+00  0.1669465E+01  0.4583682E-01 -0.4630441E+00
 -0.8907410E+01  0.4761110E+01 -0.2568960E-01  0.4943118E+00  0.1669387E+01  0.4865560E-01 -0.4919114E+00
 -0.9331180E+01  0.3865100E+01 -0.2568960E-01  0.5179445E+00  0.1669376E+01  0.5097604E-01 -0.5154299E+00
 -0.9665100E+01  0.2931880E+01 -0.2568960E-01  0.5359590E+00  0.1669425E+01  0.5277500E-01 -0.5333543E+00
 -0.9905930E+01  0.1970410E+01 -0.2568960E-01  0.5488698E+00  0.1669465E+01  0.5406843E-01 -0.5462003E+00
 -0.1005140E+02  0.9899730E+00 -0.2568960E-01  0.5575751E+00  0.1669407E+01  0.5489390E-01 -0.5548664E+00
 -0.1010000E+02 -0.8829700E-06 -0.2568960E-01  0.5606204E+00  0.1669376E+01  0.5517618E-01 -0.5578986E+00
 -0.1005140E+02 -0.9899740E+00 -0.2568960E-01  0.5575755E+00  0.1669407E+01  0.5489367E-01 -0.5548667E+00
 -0.9905930E+01 -0.1970410E+01 -0.2568960E-01  0.5488700E+00  0.1669465E+01  0.5406852E-01 -0.5462004E+00
 -0.9665100E+01 -0.2931880E+01 -0.2568960E-01  0.5359593E+00  0.1669424E+01  0.5277499E-01 -0.5333546E+00
 -0.9331180E+01 -0.3865100E+01 -0.2568960E-01  0.5179448E+00  0.1669376E+01  0.5097605E-01 -0.5154301E+00
 -0.8907400E+01 -0.4761110E+01 -0.2568960E-01  0.4943129E+00  0.1669387E+01  0.4865550E-01 -0.4919124E+00
 -0.8397840E+01 -0.5611260E+01 -0.2568960E-01  0.4653067E+00  0.1669465E+01  0.4583693E-01 -0.4630435E+00
 -0.7807400E+01 -0.6407370E+01 -0.2568960E-01  0.4327457E+00  0.1669448E+01  0.4262194E-01 -0.4306416E+00
 -0.7141780E+01 -0.7141780E+01 -0.2568960E-01  0.3964188E+00  0.1669376E+01  0.3901567E-01 -0.3944942E+00
 -0.6407370E+01 -0.7807410E+01 -0.2568960E-01  0.3557877E+00  0.1669357E+01  0.3501006E-01 -0.3540610E+00
 -0.5611260E+01 -0.8397850E+01 -0.2568960E-01  0.3109108E+00  0.1669465E+01  0.3062738E-01 -0.3093986E+00
 -0.4761110E+01 -0.8907410E+01 -0.2568960E-01  0.2636487E+00  0.1669495E+01  0.2597966E-01 -0.2623655E+00
 -0.3865100E+01 -0.9331190E+01 -0.2568960E-01  0.2145385E+00  0.1669378E+01  0.2111524E-01 -0.2134969E+00
 -0.2931870E+01 -0.9665100E+01 -0.2568960E-01  0.1631026E+00  0.1669265E+01  0.1603448E-01 -0.1623125E+00
 -0.1970410E+01 -0.9905930E+01 -0.2568960E-01  0.1091722E+00  0.1669471E+01  0.1075501E-01 -0.1086412E+00
 -0.9899710E+00 -0.1005140E+02 -0.2568960E-01  0.5441448E-01  0.1669878E+01  0.5382638E-02 -0.5414761E-01
  0.1204410E-06 -0.1010000E+02 -0.2568960E-01  0.5773811E-06  0.2558961E+01  0.4821234E-06 -0.3176885E-06
  0.9899760E+00 -0.1005140E+02 -0.2568960E-01  0.5441402E-01 -0.1471727E+01 -0.5381954E-02  0.5414720E-01
  0.1970410E+01 -0.9905930E+01 -0.2568960E-01  0.1091715E+00 -0.1472128E+01 -0.1075429E-01  0.1086405E+00
  0.2931880E+01 -0.9665100E+01 -0.2568960E-01  0.1631023E+00 -0.1472331E+01 -0.1603394E-01  0.1623123E+00
  0.3865100E+01 -0.9331180E+01 -0.2568960E-01  0.2145386E+00 -0.1472218E+01 -0.2111460E-01  0.2134971E+00
  0.4761110E+01 -0.8907410E+01 -0.2568960E-01  0.2636476E+00 -0.1472100E+01 -0.2597887E-01  0.2623645E+00
  0.5611260E+01 -0.8397840E+01 -0.2568960E-01  0.3109106E+00 -0.1472129E+01 -0.3062684E-01  0.3093985E+00
  0.6407370E+01 -0.7807410E+01 -0.2568960E-01  0.3557869E+00 -0.1472237E+01 -0.3500919E-01  0.3540603E+00
  0.7141780E+01 -0.7141780E+01 -0.2568960E-01  0.3964179E+00 -0.1472218E+01 -0.3901491E-01  0.3944933E+00
  0.7807410E+01 -0.6407370E+01 -0.2568960E-01  0.4327446E+00 -0.1472146E+01 -0.4262104E-01  0.4306406E+00
  0.8397840E+01 -0.5611260E+01 -0.2568960E-01  0.4653057E+00 -0.1472129E+01 -0.4583627E-01  0.4630426E+00
  0.8907410E+01 -0.4761110E+01 -0.2568960E-01  0.4943114E+00 -0.1472207E+01 -0.4865509E-01  0.4919110E+00
  0.9331180E+01 -0.3865100E+01 -0.2568960E-01  0.5179436E+00 -0.1472218E+01 -0.5097538E-01  0.5154290E+00
  0.9665100E+01 -0.2931870E+01 -0.2568960E-01  0.5359590E+00 -0.1472170E+01 -0.5277420E-01  0.5333544E+00
  0.9905930E+01 -0.1970410E+01 -0.2568960E-01  0.5488690E+00 -0.1472129E+01 -0.5406778E-01  0.5461994E+00
  0.1005140E+02 -0.9899690E+00 -0.2568960E-01  0.5575746E+00 -0.1472187E+01 -0.5489300E-01  0.5548659E+00
  0.1010000E+02  0.0000000E+00 -0.1027320E+00  0.5591298E+00 -0.1472224E+01 -0.5502547E-01  0.5564156E+00
  0.1005140E+02  0.9899730E+00 -0.1027320E+00  0.5561563E+00 -0.1472199E+01 -0.5474677E-01  0.5534552E+00
  0.9905930E+01  0.1970410E+01 -0.1027320E+00  0.5473805E+00 -0.1472132E+01 -0.5391909E-01  0.5447184E+00
  0.9665100E+01  0.2931880E+01 -0.1027320E+00  0.5346024E+00 -0.1472182E+01 -0.5263391E-01  0.5320051E+00
  0.9331180E+01  0.3865100E+01 -0.1027320E+00  0.5165672E+00 -0.1472224E+01 -0.5083667E-01  0.5140596E+00
  0.8907400E+01  0.4761110E+01 -0.1027320E+00  0.4930472E+00 -0.1472219E+01 -0.4852486E-01  0.4906535E+00
  0.8397840E+01  0.5611260E+01 -0.1027320E+00  0.4640445E+00 -0.1472132E+01 -0.4571019E-01  0.4617877E+00
  0.7807410E+01  0.6407370E+01 -0.1027320E+00  0.4316566E+00 -0.1472160E+01 -0.4250808E-01  0.4295585E+00
  0.7141780E+01  0.7141780E+01 -0.1027320E+00  0.3953645E+00 -0.1472224E+01 -0.3890889E-01  0.3934453E+00
  0.6407370E+01  0.7807410E+01 -0.1027320E+00  0.3548688E+00 -0.1472247E+01 -0.3491540E-01  0.3531469E+00
  0.5611260E+01  0.8397840E+01 -0.1027320E+00  0.3100683E+00 -0.1472134E+01 -0.3054260E-01  0.3085604E+00
  0.4761110E+01  0.8907410E+01 -0.1027320E+00  0.2629941E+00 -0.1472114E+01 -0.2591070E-01  0.2617146E+00
  0.3865100E+01  0.9331180E+01 -0.1027320E+00  0.2139689E+00 -0.1472225E+01 -0.2105714E-01  0.2129303E+00
  0.2931870E+01  0.9665100E+01 -0.1027320E+00  0.1626698E+00 -0.1472338E+01 -0.1599036E-01  0.1618820E+00
  0.1970410E+01  0.9905930E+01 -0.1027320E+00  0.1088757E+00 -0.1472132E+01 -0.1072476E-01  0.1083462E+00
  0.9899730E+00  0.1005140E+02 -0.1027320E+00  0.5429412E-01 -0.1471761E+01 -0.5368247E-02  0.5402808E-01
 -0.4414850E-06  0.1010000E+02 -0.1027320E+00  0.4469040E-06  0.3091223E+01  0.4463372E-06 -0.2250077E-07
 -0.9899740E+00  0.1005140E+02 -0.1027320E+00  0.5429456E-01  0.1669845E+01  0.5368994E-02 -0.5402844E-01
 -0.1970410E+01  0.9905930E+01 -0.1027320E+00  0.1088759E+00  0.1669466E+01  0.1072539E-01 -0.1083463E+00
 -0.2931880E+01  0.9665100E+01 -0.1027320E+00  0.1626706E+00  0.1669258E+01  0.1599092E-01 -0.1618828E+00
 -0.3865100E+01  0.9331180E+01 -0.1027320E+00  0.2139690E+00  0.1669371E+01  0.2105780E-01 -0.2129303E+00
 -0.4761110E+01  0.8907400E+01 -0.1027320E+00  0.2629956E+00  0.1669479E+01  0.2591110E-01 -0.2617160E+00
 -0.5611260E+01  0.8397840E+01 -0.1027320E+00  0.3100685E+00  0.1669461E+01  0.3054324E-01 -0.3085605E+00
 -0.6407370E+01  0.7807410E+01 -0.1027320E+00  0.3548693E+00  0.1669347E+01  0.3491589E-01 -0.3531474E+00
 -0.7141780E+01  0.7141780E+01 -0.1027320E+00  0.3953657E+00  0.1669370E+01  0.3890961E-01 -0.3934464E+00
 -0.7807410E+01  0.6407370E+01 -0.1027320E+00  0.4316576E+00  0.1669433E+01  0.4250843E-01 -0.4295594E+00
 -0.8397840E+01  0.5611260E+01 -0.1027320E+00  0.4640457E+00  0.1669461E+01  0.4571075E-01 -0.4617888E+00
 -0.8907410E+01  0.4761110E+01 -0.1027320E+00  0.4930465E+00  0.1669376E+01  0.4852560E-01 -0.4906527E+00
 -0.9331180E+01  0.3865100E+01 -0.1027320E+00  0.5165682E+00  0.1669370E+01  0.5083743E-01 -0.5140606E+00
 -0.9665100E+01  0.2931880E+01 -0.1027320E+00  0.5346034E+00  0.1669411E+01  0.5263454E-01 -0.5320060E+00
 -0.9905930E+01  0.1970410E+01 -0.1027320E+00  0.5473819E+00  0.1669461E+01  0.5391979E-01 -0.5447198E+00
 -0.1005140E+02  0.9899730E+00 -0.1027320E+00  0.5561569E+00  0.1669394E+01  0.5474722E-01 -0.5534558E+00
 -0.1010000E+02 -0.8829700E-06 -0.1027320E+00  0.5591304E+00  0.1669369E+01  0.5502592E-01 -0.5564162E+00
 -0.1005140E+02 -0.9899740E+00 -0.1027320E+00  0.5561568E+00  0.1669395E+01  0.5474741E-01 -0.5534556E+00
 -0.9905930E+01 -0.1970410E+01 -0.1027320E+00  0.5473824E+00  0.1669461E+01  0.5391969E-01 -0.5447202E+00
 -0.9665100E+01 -0.2931880E+01 -0.1027320E+00  0.5346034E+00  0.1669411E+01  0.5263450E-01 -0.5320060E+00
 -0.9331180E+01 -0.3865100E+01 -0.1027320E+00  0.5165679E+00  0.1669369E+01  0.5083729E-01 -0.5140603E+00
 -0.8907400E+01 -0.4761110E+01 -0.1027320E+00  0.4930478E+00  0.1669376E+01  0.4852561E-01 -0.4906541E+00
 -0.8397840E+01 -0.5611260E+01 -0.1027320E+00  0.4640456E+00  0.1669461E+01  0.4571085E-01 -0.4617888E+00
 -0.7807400E+01 -0.6407370E+01 -0.1027320E+00  0.4316577E+00  0.1669434E+01  0.4250869E-01 -0.4295595E+00
 -0.7141780E+01 -0.7141780E+01 -0.1027320E+00  0.3953655E+00  0.1669370E+01  0.3890955E-01 -0.3934462E+00
 -0.6407370E+01 -0.7807410E+01 -0.1027320E+00  0.3548690E+00  0.1669348E+01  0.3491623E-01 -0.3531471E+00
 -0.5611260E+01 -0.8397850E+01 -0.1027320E+00  0.3100683E+00  0.1669461E+01  0.3054334E-01 -0.3085603E+00
 -0.4761110E+01 -0.8907410E+01 -0.1027320E+00  0.2629947E+00  0.1669481E+01  0.2591137E-01 -0.2617151E+00
 -0.3865100E+01 -0.9331190E+01 -0.1027320E+00  0.2139689E+00  0.1669371E+01  0.2105781E-01 -0.2129302E+00
 -0.2931870E+01 -0.9665100E+01 -0.1027320E+00  0.1626705E+00  0.1669258E+01  0.1599088E-01 -0.1618826E+00
 -0.1970410E+01 -0.9905930E+01 -0.1027320E+00  0.1088764E+00  0.1669466E+01  0.1072543E-01 -0.1083468E+00
 -0.9899710E+00 -0.1005140E+02 -0.1027320E+00  0.5429469E-01  0.1669842E+01  0.5368858E-02 -0.5402860E-01
  0.1204410E-06 -0.1010000E+02 -0.1027320E+00  0.4370013E-06  0.2369748E+01  0.3131662E-06 -0.3047901E-06
  0.9899760E+00 -0.1005140E+02 -0.1027320E+00  0.5429425E-01 -0.1471761E+01 -0.5368238E-02  0.5402821E-01
  0.1970410E+01 -0.9905930E+01 -0.1027320E+00  0.1088754E+00 -0.1472132E+01 -0.1072469E-01  0.1083459E+00
  0.2931880E+01 -0.9665100E+01 -0.1027320E+00  0.1626701E+00 -0.1472339E+01 -0.1599026E-01  0.1618823E+00
  0.3865100E+01 -0.9331180E+01 -0.1027320E+00  0.2139684E+00 -0.1472224E+01 -0.2105718E-01  0.2129297E+00
  0.4761110E+01 -0.8907410E+01 -0.1027320E+00  0.2629941E+00 -0.1472115E+01 -0.2591043E-01  0.2617146E+00
  0.5611260E+01 -0.8397840E+01 -0.1027320E+00  0.3100680E+00 -0.1472133E+01 -0.3054261E-01  0.3085601E+00
  0.6407370E+01 -0.7807410E+01 -0.1027320E+00  0.3548682E+00 -0.1472248E+01 -0.3491522E-01  0.3531464E+00
  0.7141780E+01 -0.7141780E+01 -0.1027320E+00  0.3953648E+00 -0.1472224E+01 -0.3890885E-01  0.3934456E+00
  0.7807410E+01 -0.6407370E+01 -0.1027320E+00  0.4316569E+00 -0.1472160E+01 -0.4250791E-01  0.4295588E+00
  0.8397840E+01 -0.5611260E+01 -0.1027320E+00  0.4640443E+00 -0.1472132E+01 -0.4571017E-01  0.4617875E+00
