 VARIABLES="X" "Y" "Z" "abs(eta) (m)" "angle(phi) (rad)" "PRE1" "PRE2"
ZONE N=   3200 ,E =    3136 ,F=FEPOINT,ET=QUADRILATERAL
  0.1010000E+02  0.0000000E+00  0.0000000E+00  0.2637648E+00 -0.1840219E+01  0.7020767E-01  0.2542494E+00
  0.1005140E+02  0.9899730E+00  0.0000000E+00  0.2759213E+00 -0.1839692E+01  0.7330316E-01  0.2660060E+00
  0.9905930E+01  0.1970410E+01  0.0000000E+00  0.2866160E+00 -0.1839844E+01  0.7618636E-01  0.2763049E+00
  0.9665100E+01  0.2931880E+01  0.0000000E+00  0.2950377E+00 -0.1840507E+01  0.7861357E-01  0.2843715E+00
  0.9331180E+01  0.3865100E+01  0.0000000E+00  0.3016939E+00 -0.1840939E+01  0.8051270E-01  0.2907524E+00
  0.8907400E+01  0.4761110E+01  0.0000000E+00  0.3055959E+00 -0.1841614E+01  0.8175294E-01  0.2944577E+00
  0.8397840E+01  0.5611260E+01  0.0000000E+00  0.3077408E+00 -0.1841869E+01  0.8240224E-01  0.2965034E+00
  0.7807410E+01  0.6407370E+01  0.0000000E+00  0.3073864E+00 -0.1841874E+01  0.8230895E-01  0.2961615E+00
  0.7141780E+01  0.7141780E+01  0.0000000E+00  0.3052489E+00 -0.1841384E+01  0.8159239E-01  0.2941421E+00
  0.6407370E+01  0.7807410E+01  0.0000000E+00  0.3003119E+00 -0.1841019E+01  0.8016705E-01  0.2894140E+00
  0.5611260E+01  0.8397840E+01  0.0000000E+00  0.2935888E+00 -0.1840274E+01  0.7816166E-01  0.2829932E+00
  0.4761110E+01  0.8907410E+01  0.0000000E+00  0.2845132E+00 -0.1839773E+01  0.7560799E-01  0.2742831E+00
  0.3865100E+01  0.9331180E+01  0.0000000E+00  0.2738953E+00 -0.1839608E+01  0.7274282E-01  0.2640589E+00
  0.2931870E+01  0.9665100E+01  0.0000000E+00  0.2608677E+00 -0.1840800E+01  0.6958244E-01  0.2514165E+00
  0.1970410E+01  0.9905930E+01  0.0000000E+00  0.2462910E+00 -0.1843080E+01  0.6623535E-01  0.2372175E+00
  0.9899730E+00  0.1005140E+02  0.0000000E+00  0.2299027E+00 -0.1847962E+01  0.6290834E-01  0.2211285E+00
 -0.4414850E-06  0.1010000E+02  0.0000000E+00  0.2124987E+00 -0.1856118E+01  0.5981113E-01  0.2039076E+00
 -0.9899740E+00  0.1005140E+02  0.0000000E+00  0.1935313E+00 -0.1870069E+01  0.5705790E-01  0.1849290E+00
 -0.1970410E+01  0.9905930E+01  0.0000000E+00  0.1736377E+00 -0.1891102E+01  0.5467100E-01  0.1648064E+00
 -0.2931880E+01  0.9665100E+01  0.0000000E+00  0.1529773E+00 -0.1923964E+01  0.5291056E-01  0.1435358E+00
 -0.3865100E+01  0.9331180E+01  0.0000000E+00  0.1323494E+00 -0.1973175E+01  0.5182911E-01  0.1217789E+00
 -0.4761110E+01  0.8907400E+01  0.0000000E+00  0.1118905E+00 -0.2049783E+01  0.5156808E-01  0.9929863E-01
 -0.5611260E+01  0.8397840E+01  0.0000000E+00  0.9240066E-01 -0.2169115E+01  0.5204503E-01  0.7634918E-01
 -0.6407370E+01  0.7807410E+01  0.0000000E+00  0.7545446E-01 -0.2357321E+01  0.5341445E-01  0.5329421E-01
 -0.7141780E+01  0.7141780E+01  0.0000000E+00  0.6337335E-01 -0.2638666E+01  0.5552618E-01  0.3054545E-01
 -0.7807410E+01  0.6407370E+01  0.0000000E+00  0.5904417E-01 -0.3000813E+01  0.5846004E-01  0.8284778E-02
 -0.8397840E+01  0.5611260E+01  0.0000000E+00  0.6355352E-01  0.2925335E+01  0.6207319E-01 -0.1363703E-01
 -0.8907410E+01  0.4761110E+01  0.0000000E+00  0.7480276E-01  0.2660582E+01  0.6631472E-01 -0.3460939E-01
 -0.9331180E+01  0.3865100E+01  0.0000000E+00  0.8946753E-01  0.2485922E+01  0.7091549E-01 -0.5454753E-01
 -0.9665100E+01  0.2931880E+01  0.0000000E+00  0.1052006E+00  0.2375870E+01  0.7583719E-01 -0.7291017E-01
 -0.9905930E+01  0.1970410E+01  0.0000000E+00  0.1212477E+00  0.2302037E+01  0.8096845E-01 -0.9025027E-01
 -0.1005140E+02  0.9899730E+00  0.0000000E+00  0.1364009E+00  0.2253681E+01  0.8607350E-01 -0.1058138E+00
 -0.1010000E+02 -0.8829700E-06  0.0000000E+00  0.1504670E+00  0.2219678E+01  0.9092665E-01 -0.1198861E+00
 -0.1005140E+02 -0.9899740E+00  0.0000000E+00  0.1625612E+00  0.2197833E+01  0.9538240E-01 -0.1316372E+00
 -0.9905930E+01 -0.1970410E+01  0.0000000E+00  0.1732982E+00  0.2181914E+01  0.9943563E-01 -0.1419324E+00
 -0.9665100E+01 -0.2931880E+01  0.0000000E+00  0.1818395E+00  0.2171615E+01  0.1027972E+00 -0.1499945E+00
 -0.9331180E+01 -0.3865100E+01  0.0000000E+00  0.1885859E+00  0.2163945E+01  0.1054148E+00 -0.1563725E+00
 -0.8907400E+01 -0.4761110E+01  0.0000000E+00  0.1926032E+00  0.2160475E+01  0.1071055E+00 -0.1600763E+00
 -0.8397840E+01 -0.5611260E+01  0.0000000E+00  0.1947909E+00  0.2158384E+01  0.1079832E+00 -0.1621207E+00
 -0.7807400E+01 -0.6407370E+01  0.0000000E+00  0.1944374E+00  0.2158826E+01  0.1078588E+00 -0.1617789E+00
 -0.7141780E+01 -0.7141780E+01  0.0000000E+00  0.1922196E+00  0.2160440E+01  0.1068866E+00 -0.1597612E+00
 -0.6407370E+01 -0.7807410E+01  0.0000000E+00  0.1872079E+00  0.2165809E+01  0.1049336E+00 -0.1550347E+00
 -0.5611260E+01 -0.8397850E+01  0.0000000E+00  0.1803539E+00  0.2173112E+01  0.1021799E+00 -0.1486163E+00
 -0.4761110E+01 -0.8907410E+01  0.0000000E+00  0.1711835E+00  0.2184858E+01  0.9863457E-01 -0.1399108E+00
 -0.3865100E+01 -0.9331190E+01  0.0000000E+00  0.1605141E+00  0.2200892E+01  0.9457850E-01 -0.1296907E+00
 -0.2931870E+01 -0.9665100E+01  0.0000000E+00  0.1476485E+00  0.2226231E+01  0.8999238E-01 -0.1170532E+00
 -0.1970410E+01 -0.9905930E+01  0.0000000E+00  0.1334582E+00  0.2261607E+01  0.8503450E-01 -0.1028603E+00
 -0.9899710E+00 -0.1005140E+02  0.0000000E+00  0.1179624E+00  0.2315000E+01  0.7990607E-01 -0.8677636E-01
  0.1204410E-06 -0.1010000E+02  0.0000000E+00  0.1021929E+00  0.2392897E+01  0.7486419E-01 -0.6956104E-01
  0.9899760E+00 -0.1005140E+02  0.0000000E+00  0.8636954E-01  0.2515835E+01  0.7000419E-01 -0.5058767E-01
  0.1970410E+01 -0.9905930E+01  0.0000000E+00  0.7213955E-01  0.2705542E+01  0.6538923E-01 -0.3046906E-01
  0.2931880E+01 -0.9665100E+01  0.0000000E+00  0.6197861E-01  0.2992560E+01  0.6129159E-01 -0.9202666E-02
  0.3865100E+01 -0.9331180E+01  0.0000000E+00  0.5915449E-01 -0.2927791E+01  0.5780762E-01  0.1255120E-01
  0.4761110E+01 -0.8907410E+01  0.0000000E+00  0.6527517E-01 -0.2575135E+01  0.5507965E-01  0.3502969E-01
  0.5611260E+01 -0.8397840E+01  0.0000000E+00  0.7858606E-01 -0.2311837E+01  0.5305000E-01  0.5797816E-01
  0.6407370E+01 -0.7807410E+01  0.0000000E+00  0.9623010E-01 -0.2140475E+01  0.5190278E-01  0.8103292E-01
  0.7141780E+01 -0.7141780E+01  0.0000000E+00  0.1158668E+00 -0.2031576E+01  0.5151980E-01  0.1037826E+00
  0.7807410E+01 -0.6407370E+01  0.0000000E+00  0.1363516E+00 -0.1962086E+01  0.5200193E-01  0.1260459E+00
  0.8397840E+01 -0.5611260E+01  0.0000000E+00  0.1572477E+00 -0.1916009E+01  0.5321213E-01  0.1479706E+00
  0.8907410E+01 -0.4761110E+01  0.0000000E+00  0.1777174E+00 -0.1886273E+01  0.5514035E-01  0.1689468E+00
  0.9331180E+01 -0.3865100E+01  0.0000000E+00  0.1974570E+00 -0.1866461E+01  0.5753410E-01  0.1888891E+00
  0.9665100E+01 -0.2931870E+01  0.0000000E+00  0.2158770E+00 -0.1854336E+01  0.6039286E-01  0.2072573E+00
  0.9905930E+01 -0.1970410E+01  0.0000000E+00  0.2334311E+00 -0.1846699E+01  0.6359038E-01  0.2246026E+00
  0.1005140E+02 -0.9899690E+00  0.0000000E+00  0.2493258E+00 -0.1842606E+01  0.6693778E-01  0.2401722E+00
  0.1010000E+02  0.0000000E+00 -0.2568960E-01  0.2636177E+00 -0.1840186E+01  0.7016017E-01  0.2541099E+00
  0.1005140E+02  0.9899730E+00 -0.2568960E-01  0.2757527E+00 -0.1839673E+01  0.7325335E-01  0.2658449E+00
  0.9905930E+01  0.1970410E+01 -0.2568960E-01  0.2863126E+00 -0.1839906E+01  0.7612293E-01  0.2760076E+00
  0.9665100E+01  0.2931880E+01 -0.2568960E-01  0.2948593E+00 -0.1840491E+01  0.7856148E-01  0.2842008E+00
  0.9331180E+01  0.3865100E+01 -0.2568960E-01  0.3015279E+00 -0.1840916E+01  0.8046165E-01  0.2905942E+00
  0.8907400E+01  0.4761110E+01 -0.2568960E-01  0.3054114E+00 -0.1841599E+01  0.8169903E-01  0.2942812E+00
  0.8397840E+01  0.5611260E+01 -0.2568960E-01  0.3074113E+00 -0.1841916E+01  0.8232788E-01  0.2961821E+00
  0.7807410E+01  0.6407370E+01 -0.2568960E-01  0.3072008E+00 -0.1841859E+01  0.8225472E-01  0.2959840E+00
  0.7141780E+01  0.7141780E+01 -0.2568960E-01  0.3050825E+00 -0.1841361E+01  0.8154106E-01  0.2939836E+00
  0.6407370E+01  0.7807410E+01 -0.2568960E-01  0.3001308E+00 -0.1841003E+01  0.8011414E-01  0.2892408E+00
  0.5611260E+01  0.8397840E+01 -0.2568960E-01  0.2932768E+00 -0.1840331E+01  0.7809473E-01  0.2826880E+00
  0.4761110E+01  0.8907410E+01 -0.2568960E-01  0.2843403E+00 -0.1839755E+01  0.7555711E-01  0.2741177E+00
  0.3865100E+01  0.9331180E+01 -0.2568960E-01  0.2737432E+00 -0.1839578E+01  0.7269447E-01  0.2639145E+00
  0.2931870E+01  0.9665100E+01 -0.2568960E-01  0.2607083E+00 -0.1840780E+01  0.6953494E-01  0.2512642E+00
  0.1970410E+01  0.9905930E+01 -0.2568960E-01  0.2460369E+00 -0.1843175E+01  0.6618966E-01  0.2369664E+00
  0.9899730E+00  0.1005140E+02 -0.2568960E-01  0.2297603E+00 -0.1847935E+01  0.6286349E-01  0.2209931E+00
 -0.4414850E-06  0.1010000E+02 -0.2568960E-01  0.2123763E+00 -0.1856070E+01  0.5976694E-01  0.2037930E+00
 -0.9899740E+00  0.1005140E+02 -0.2568960E-01  0.1934113E+00 -0.1870036E+01  0.5701644E-01  0.1848163E+00
 -0.1970410E+01  0.9905930E+01 -0.2568960E-01  0.1734729E+00 -0.1891271E+01  0.5464689E-01  0.1646408E+00
 -0.2931880E+01  0.9665100E+01 -0.2568960E-01  0.1528771E+00 -0.1923927E+01  0.5287051E-01  0.1434438E+00
 -0.3865100E+01  0.9331180E+01 -0.2568960E-01  0.1322642E+00 -0.1973102E+01  0.5178684E-01  0.1217043E+00
 -0.4761110E+01  0.8907400E+01 -0.2568960E-01  0.1118146E+00 -0.2049738E+01  0.5152872E-01  0.9923358E-01
 -0.5611260E+01  0.8397840E+01 -0.2568960E-01  0.9234255E-01 -0.2169331E+01  0.5202882E-01  0.7628989E-01
 -0.6407370E+01  0.7807410E+01 -0.2568960E-01  0.7539631E-01 -0.2357329E+01  0.5337370E-01  0.5325271E-01
 -0.7141780E+01  0.7141780E+01 -0.2568960E-01  0.6331931E-01 -0.2638748E+01  0.5548134E-01  0.3051485E-01
 -0.7807410E+01  0.6407370E+01 -0.2568960E-01  0.5899873E-01 -0.3000944E+01  0.5841614E-01  0.8270786E-02
 -0.8397840E+01  0.5611260E+01 -0.2568960E-01  0.6351454E-01  0.2925991E+01  0.6204404E-01 -0.1358798E-01
 -0.8907410E+01  0.4761110E+01 -0.2568960E-01  0.7475672E-01  0.2660379E+01  0.6626689E-01 -0.3460155E-01
 -0.9331180E+01  0.3865100E+01 -0.2568960E-01  0.8941985E-01  0.2485664E+01  0.7086359E-01 -0.5453679E-01
 -0.9665100E+01  0.2931880E+01 -0.2568960E-01  0.1051400E+00  0.2375732E+01  0.7578344E-01 -0.7287864E-01
 -0.9905930E+01  0.1970410E+01 -0.2568960E-01  0.1211052E+00  0.2302462E+01  0.8091159E-01 -0.9010984E-01
 -0.1005140E+02  0.9899730E+00 -0.2568960E-01  0.1363264E+00  0.2253570E+01  0.8601482E-01 -0.1057656E+00
 -0.1010000E+02 -0.8829700E-06 -0.2568960E-01  0.1503963E+00  0.2219531E+01  0.9086623E-01 -0.1198432E+00
 -0.1005140E+02 -0.9899740E+00 -0.2568960E-01  0.1624713E+00  0.2197745E+01  0.9531812E-01 -0.1315727E+00
 -0.9905930E+01 -0.1970410E+01 -0.2568960E-01  0.1730846E+00  0.2182179E+01  0.9935062E-01 -0.1417312E+00
 -0.9665100E+01 -0.2931880E+01 -0.2568960E-01  0.1817402E+00  0.2171538E+01  0.1027295E+00 -0.1499205E+00
 -0.9331180E+01 -0.3865100E+01 -0.2568960E-01  0.1884983E+00  0.2163833E+01  0.1053483E+00 -0.1563117E+00
 -0.8907400E+01 -0.4761110E+01 -0.2568960E-01  0.1924973E+00  0.2160403E+01  0.1070352E+00 -0.1599959E+00
 -0.8397840E+01 -0.5611260E+01 -0.2568960E-01  0.1945496E+00  0.2158605E+01  0.1078853E+00 -0.1618960E+00
 -0.7807400E+01 -0.6407370E+01 -0.2568960E-01  0.1943305E+00  0.2158754E+01  0.1077880E+00 -0.1616976E+00
 -0.7141780E+01 -0.7141780E+01 -0.2568960E-01  0.1921301E+00  0.2160333E+01  0.1068197E+00 -0.1596982E+00
 -0.6407370E+01 -0.7807410E+01 -0.2568960E-01  0.1871053E+00  0.2165734E+01  0.1048645E+00 -0.1549575E+00
 -0.5611260E+01 -0.8397850E+01 -0.2568960E-01  0.1801312E+00  0.2173361E+01  0.1020907E+00 -0.1484073E+00
 -0.4761110E+01 -0.8907410E+01 -0.2568960E-01  0.1710890E+00  0.2184777E+01  0.9856870E-01 -0.1398415E+00
 -0.3865100E+01 -0.9331190E+01 -0.2568960E-01  0.1604390E+00  0.2200757E+01  0.9451672E-01 -0.1296429E+00
 -0.2931870E+01 -0.9665100E+01 -0.2568960E-01  0.1475679E+00  0.2226132E+01  0.8993168E-01 -0.1169982E+00
 -0.1970410E+01 -0.9905930E+01 -0.2568960E-01  0.1332985E+00  0.2261984E+01  0.8497146E-01 -0.1027051E+00
 -0.9899710E+00 -0.1005140E+02 -0.2568960E-01  0.1178957E+00  0.2314877E+01  0.7985020E-01 -0.8673714E-01
  0.1204410E-06 -0.1010000E+02 -0.2568960E-01  0.1021415E+00  0.2392670E+01  0.7481074E-01 -0.6954307E-01
  0.9899760E+00 -0.1005140E+02 -0.2568960E-01  0.8631933E-01  0.2515655E+01  0.6995438E-01 -0.5057085E-01
  0.1970410E+01 -0.9905930E+01 -0.2568960E-01  0.7207958E-01  0.2706212E+01  0.6535526E-01 -0.3039995E-01
  0.2931880E+01 -0.9665100E+01 -0.2568960E-01  0.6193430E-01  0.2992384E+01  0.6124616E-01 -0.9206851E-02
  0.3865100E+01 -0.9331180E+01 -0.2568960E-01  0.5910499E-01 -0.2927987E+01  0.5776171E-01  0.1252935E-01
  0.4761110E+01 -0.8907410E+01 -0.2568960E-01  0.6522322E-01 -0.2575197E+01  0.5503801E-01  0.3499836E-01
  0.5611260E+01 -0.8397840E+01 -0.2568960E-01  0.7854712E-01 -0.2311994E+01  0.5303282E-01  0.5794109E-01
  0.6407370E+01 -0.7807410E+01 -0.2568960E-01  0.9616257E-01 -0.2140434E+01  0.5186306E-01  0.8097816E-01
  0.7141780E+01 -0.7141780E+01 -0.2568960E-01  0.1157890E+00 -0.2031502E+01  0.5147747E-01  0.1037167E+00
  0.7807410E+01 -0.6407370E+01 -0.2568960E-01  0.1362603E+00 -0.1962047E+01  0.5196223E-01  0.1259635E+00
  0.8397840E+01 -0.5611260E+01 -0.2568960E-01  0.1571038E+00 -0.1916197E+01  0.5319116E-01  0.1478253E+00
  0.8907410E+01 -0.4761110E+01 -0.2568960E-01  0.1776058E+00 -0.1886237E+01  0.5509967E-01  0.1688426E+00
  0.9331180E+01 -0.3865100E+01 -0.2568960E-01  0.1973419E+00 -0.1866408E+01  0.5749056E-01  0.1887821E+00
  0.9665100E+01 -0.2931870E+01 -0.2568960E-01  0.2157421E+00 -0.1854308E+01  0.6034926E-01  0.2071295E+00
  0.9905930E+01 -0.1970410E+01 -0.2568960E-01  0.2331924E+00 -0.1846807E+01  0.6354947E-01  0.2243661E+00
  0.1005140E+02 -0.9899690E+00 -0.2568960E-01  0.2491738E+00 -0.1842584E+01  0.6689162E-01  0.2400272E+00
  0.1010000E+02  0.0000000E+00 -0.1027320E+00  0.2631315E+00 -0.1840147E+01  0.7002063E-01  0.2536440E+00
  0.1005140E+02  0.9899730E+00 -0.1027320E+00  0.2751970E+00 -0.1839674E+01  0.7310606E-01  0.2653090E+00
  0.9905930E+01  0.1970410E+01 -0.1027320E+00  0.2856629E+00 -0.1839959E+01  0.7596476E-01  0.2753773E+00
  0.9665100E+01  0.2931880E+01 -0.1027320E+00  0.2942688E+00 -0.1840502E+01  0.7840724E-01  0.2836308E+00
  0.9331180E+01  0.3865100E+01 -0.1027320E+00  0.3009773E+00 -0.1840903E+01  0.8031117E-01  0.2900646E+00
  0.8907400E+01  0.4761110E+01 -0.1027320E+00  0.3047991E+00 -0.1841612E+01  0.8153893E-01  0.2936901E+00
  0.8397840E+01  0.5611260E+01 -0.1027320E+00  0.3067126E+00 -0.1841966E+01  0.8215554E-01  0.2955048E+00
  0.7807410E+01  0.6407370E+01 -0.1027320E+00  0.3065853E+00 -0.1841872E+01  0.8209381E-01  0.2953898E+00
  0.7141780E+01  0.7141780E+01 -0.1027320E+00  0.3045247E+00 -0.1841352E+01  0.8138941E-01  0.2934469E+00
  0.6407370E+01  0.7807410E+01 -0.1027320E+00  0.2995306E+00 -0.1841015E+01  0.7995720E-01  0.2886615E+00
  0.5611260E+01  0.8397840E+01 -0.1027320E+00  0.2926103E+00 -0.1840384E+01  0.7793220E-01  0.2820414E+00
  0.4761110E+01  0.8907410E+01 -0.1027320E+00  0.2837684E+00 -0.1839759E+01  0.7540622E-01  0.2735661E+00
  0.3865100E+01  0.9331180E+01 -0.1027320E+00  0.2732405E+00 -0.1839545E+01  0.7255220E-01  0.2634323E+00
  0.2931870E+01  0.9665100E+01 -0.1027320E+00  0.2601866E+00 -0.1840777E+01  0.6939499E-01  0.2507617E+00
  0.1970410E+01  0.9905930E+01 -0.1027320E+00  0.2454810E+00 -0.1843236E+01  0.6605442E-01  0.2364270E+00
  0.9899730E+00  0.1005140E+02 -0.1027320E+00  0.2292933E+00 -0.1847920E+01  0.6273238E-01  0.2205450E+00
 -0.4414850E-06  0.1010000E+02 -0.1027320E+00  0.2119768E+00 -0.1855988E+01  0.5963778E-01  0.2034146E+00
 -0.9899740E+00  0.1005140E+02 -0.1027320E+00  0.1930207E+00 -0.1870006E+01  0.5689574E-01  0.1844447E+00
 -0.1970410E+01  0.9905930E+01 -0.1027320E+00  0.1730864E+00 -0.1891352E+01  0.5453850E-01  0.1642695E+00
 -0.2931880E+01  0.9665100E+01 -0.1027320E+00  0.1525588E+00 -0.1923886E+01  0.5275460E-01  0.1431473E+00
 -0.3865100E+01  0.9331180E+01 -0.1027320E+00  0.1319975E+00 -0.1972949E+01  0.5166384E-01  0.1214668E+00
 -0.4761110E+01  0.8907400E+01 -0.1027320E+00  0.1115813E+00 -0.2049672E+01  0.5141458E-01  0.9902992E-01
 -0.5611260E+01  0.8397840E+01 -0.1027320E+00  0.9214801E-01 -0.2169428E+01  0.5192658E-01  0.7612415E-01
 -0.6407370E+01  0.7807410E+01 -0.1027320E+00  0.7522738E-01 -0.2357357E+01  0.5325557E-01  0.5313194E-01
 -0.7141780E+01  0.7141780E+01 -0.1027320E+00  0.6316486E-01 -0.2638884E+01  0.5535014E-01  0.3043291E-01
 -0.7807410E+01  0.6407370E+01 -0.1027320E+00  0.5886811E-01 -0.3001078E+01  0.5828791E-01  0.8244631E-02
 -0.8397840E+01  0.5611260E+01 -0.1027320E+00  0.6338329E-01  0.2926240E+01  0.6191921E-01 -0.1354450E-01
 -0.8907410E+01  0.4761110E+01 -0.1027320E+00  0.7460799E-01  0.2660115E+01  0.6612594E-01 -0.3455014E-01
 -0.9331180E+01  0.3865100E+01 -0.1027320E+00  0.8925945E-01  0.2485182E+01  0.7071026E-01 -0.5447302E-01
 -0.9665100E+01  0.2931880E+01 -0.1027320E+00  0.1049336E+00  0.2375587E+01  0.7562412E-01 -0.7274655E-01
 -0.9905930E+01  0.1970410E+01 -0.1027320E+00  0.1208280E+00  0.2302655E+01  0.8074380E-01 -0.8988800E-01
 -0.1005140E+02  0.9899730E+00 -0.1027320E+00  0.1360669E+00  0.2253462E+01  0.8583969E-01 -0.1055734E+00
 -0.1010000E+02 -0.8829700E-06 -0.1027320E+00  0.1501465E+00  0.2219286E+01  0.9068607E-01 -0.1196663E+00
 -0.1005140E+02 -0.9899740E+00 -0.1027320E+00  0.1621583E+00  0.2197674E+01  0.9512515E-01 -0.1313260E+00
 -0.9905930E+01 -0.1970410E+01 -0.1027320E+00  0.1726842E+00  0.2182321E+01  0.9914088E-01 -0.1413892E+00
 -0.9665100E+01 -0.2931880E+01 -0.1027320E+00  0.1813934E+00  0.2171483E+01  0.1025252E+00 -0.1496401E+00
 -0.9331180E+01 -0.3865100E+01 -0.1027320E+00  0.1881870E+00  0.2163672E+01  0.1051491E+00 -0.1560705E+00
 -0.8907400E+01 -0.4761110E+01 -0.1027320E+00  0.1921283E+00  0.2160359E+01  0.1068229E+00 -0.1596940E+00
 -0.8397840E+01 -0.5611260E+01 -0.1027320E+00  0.1940986E+00  0.2158734E+01  0.1076561E+00 -0.1615068E+00
 -0.7807400E+01 -0.6407370E+01 -0.1027320E+00  0.1939584E+00  0.2158710E+01  0.1075744E+00 -0.1613926E+00
 -0.7141780E+01 -0.7141780E+01 -0.1027320E+00  0.1918127E+00  0.2160177E+01  0.1066185E+00 -0.1594510E+00
 -0.6407370E+01 -0.7807410E+01 -0.1027320E+00  0.1867482E+00  0.2165684E+01  0.1046566E+00 -0.1546670E+00
 -0.5611260E+01 -0.8397850E+01 -0.1027320E+00  0.1797142E+00  0.2173499E+01  0.1018748E+00 -0.1480497E+00
 -0.4761110E+01 -0.8907410E+01 -0.1027320E+00  0.1707597E+00  0.2184714E+01  0.9837026E-01 -0.1395786E+00
 -0.3865100E+01 -0.9331190E+01 -0.1027320E+00  0.1601732E+00  0.2200537E+01  0.9433166E-01 -0.1294488E+00
 -0.2931870E+01 -0.9665100E+01 -0.1027320E+00  0.1472872E+00  0.2226040E+01  0.8974983E-01 -0.1167839E+00
 -0.1970410E+01 -0.9905930E+01 -0.1027320E+00  0.1329921E+00  0.2262162E+01  0.8479448E-01 -0.1024539E+00
 -0.9899710E+00 -0.1005140E+02 -0.1027320E+00  0.1176659E+00  0.2314752E+01  0.7968379E-01 -0.8657805E-01
  0.1204410E-06 -0.1010000E+02 -0.1027320E+00  0.1019642E+00  0.2392253E+01  0.7465196E-01 -0.6945343E-01
  0.9899760E+00 -0.1005140E+02 -0.1027320E+00  0.8615144E-01  0.2515432E+01  0.6980708E-01 -0.5048804E-01
  0.1970410E+01 -0.9905930E+01 -0.1027320E+00  0.7192483E-01  0.2706479E+01  0.6522301E-01 -0.3031732E-01
  0.2931880E+01 -0.9665100E+01 -0.1027320E+00  0.6180122E-01  0.2992190E+01  0.6111276E-01 -0.9198981E-02
  0.3865100E+01 -0.9331180E+01 -0.1027320E+00  0.5896238E-01 -0.2928352E+01  0.5762689E-01  0.1247813E-01
  0.4761110E+01 -0.8907410E+01 -0.1027320E+00  0.6507525E-01 -0.2575302E+01  0.5491680E-01  0.3491322E-01
  0.5611260E+01 -0.8397840E+01 -0.1027320E+00  0.7838576E-01 -0.2312071E+01  0.5292833E-01  0.5781798E-01
  0.6407370E+01 -0.7807410E+01 -0.1027320E+00  0.9595894E-01 -0.2140366E+01  0.5174775E-01  0.8081020E-01
  0.7141780E+01 -0.7141780E+01 -0.1027320E+00  0.1155489E+00 -0.2031341E+01  0.5135412E-01  0.1035099E+00
  0.7807410E+01 -0.6407370E+01 -0.1027320E+00  0.1359737E+00 -0.1962004E+01  0.5184747E-01  0.1257008E+00
  0.8397840E+01 -0.5611260E+01 -0.1027320E+00  0.1567556E+00 -0.1916283E+01  0.5308599E-01  0.1474930E+00
