 VARIABLES="X" "Y" "Z" "abs(eta) (m)" "angle(phi) (rad)" "PRE1" "PRE2"
ZONE N=   3200 ,E =    3136 ,F=FEPOINT,ET=QUADRILATERAL
  0.1010000E+02  0.0000000E+00  0.0000000E+00  0.2154739E+00  0.2773548E+01  0.2010442E+00 -0.7752579E-01
  0.1005140E+02  0.9899730E+00  0.0000000E+00  0.2578142E+00  0.2691097E+01  0.2320925E+00 -0.1122552E+00
  0.9905930E+01  0.1970410E+01  0.0000000E+00  0.2994658E+00  0.2642179E+01  0.2628902E+00 -0.1434173E+00
  0.9665100E+01  0.2931880E+01  0.0000000E+00  0.3382840E+00  0.2612765E+01  0.2920741E+00 -0.1706715E+00
  0.9331180E+01  0.3865100E+01  0.0000000E+00  0.3724662E+00  0.2595417E+01  0.3182788E+00 -0.1934674E+00
  0.8907400E+01  0.4761110E+01  0.0000000E+00  0.4025028E+00  0.2584382E+01  0.3416175E+00 -0.2128520E+00
  0.8397840E+01  0.5611260E+01  0.0000000E+00  0.4274855E+00  0.2578316E+01  0.3614433E+00 -0.2282599E+00
  0.7807410E+01  0.6407370E+01  0.0000000E+00  0.4467945E+00  0.2575052E+01  0.3769886E+00 -0.2398019E+00
  0.7141780E+01  0.7141780E+01  0.0000000E+00  0.4595792E+00  0.2573539E+01  0.3874022E+00 -0.2472501E+00
  0.6407370E+01  0.7807410E+01  0.0000000E+00  0.4667611E+00  0.2572455E+01  0.3931837E+00 -0.2515401E+00
  0.5611260E+01  0.8397840E+01  0.0000000E+00  0.4673755E+00  0.2572325E+01  0.3936686E+00 -0.2519225E+00
  0.4761110E+01  0.8907410E+01  0.0000000E+00  0.4616631E+00  0.2572968E+01  0.3890168E+00 -0.2485935E+00
  0.3865100E+01  0.9331180E+01  0.0000000E+00  0.4495429E+00  0.2574849E+01  0.3792585E+00 -0.2413541E+00
  0.2931870E+01  0.9665100E+01  0.0000000E+00  0.4319759E+00  0.2577603E+01  0.3650753E+00 -0.2309181E+00
  0.1970410E+01  0.9905930E+01  0.0000000E+00  0.4080676E+00  0.2582929E+01  0.3460267E+00 -0.2162977E+00
  0.9899730E+00  0.1005140E+02  0.0000000E+00  0.3788328E+00  0.2592357E+01  0.3231155E+00 -0.1977643E+00
 -0.4414850E-06  0.1010000E+02  0.0000000E+00  0.3450865E+00  0.2608865E+01  0.2972662E+00 -0.1752642E+00
 -0.9899740E+00  0.1005140E+02  0.0000000E+00  0.3077447E+00  0.2634974E+01  0.2690889E+00 -0.1493251E+00
 -0.1970410E+01  0.9905930E+01  0.0000000E+00  0.2665741E+00  0.2679123E+01  0.2385714E+00 -0.1189347E+00
 -0.2931880E+01  0.9665100E+01  0.0000000E+00  0.2237502E+00  0.2753247E+01  0.2070890E+00 -0.8472487E-01
 -0.3865100E+01  0.9331180E+01  0.0000000E+00  0.1822692E+00  0.2879744E+01  0.1760562E+00 -0.4718335E-01
 -0.4761110E+01  0.8907400E+01  0.0000000E+00  0.1459394E+00  0.3095445E+01  0.1457841E+00 -0.6732327E-02
 -0.5611260E+01  0.8397840E+01  0.0000000E+00  0.1224798E+00 -0.2831620E+01  0.1166426E+00  0.3736029E-01
 -0.6407370E+01  0.7807410E+01  0.0000000E+00  0.1227882E+00 -0.2389747E+01  0.8968809E-01  0.8386289E-01
 -0.7141780E+01  0.7141780E+01  0.0000000E+00  0.1472477E+00 -0.2035812E+01  0.6603128E-01  0.1316122E+00
 -0.7807410E+01  0.6407370E+01  0.0000000E+00  0.1860737E+00 -0.1818155E+01  0.4555903E-01  0.1804101E+00
 -0.8397840E+01  0.5611260E+01  0.0000000E+00  0.2322431E+00 -0.1694839E+01  0.2873413E-01  0.2304586E+00
 -0.8907410E+01  0.4761110E+01  0.0000000E+00  0.2807501E+00 -0.1626646E+01  0.1567172E-01  0.2803124E+00
 -0.9331180E+01  0.3865100E+01  0.0000000E+00  0.3285458E+00 -0.1590807E+01  0.6573961E-02  0.3284800E+00
 -0.9665100E+01  0.2931880E+01  0.0000000E+00  0.3752285E+00 -0.1573522E+01  0.1022740E-02  0.3752271E+00
 -0.9905930E+01  0.1970410E+01  0.0000000E+00  0.4203411E+00 -0.1568981E+01 -0.7630376E-03  0.4203404E+00
 -0.1005140E+02  0.9899730E+00  0.0000000E+00  0.4627329E+00 -0.1571730E+01  0.4322857E-03  0.4627327E+00
 -0.1010000E+02 -0.8829700E-06  0.0000000E+00  0.5012860E+00 -0.1578634E+01  0.3928666E-02  0.5012707E+00
 -0.1005140E+02 -0.9899740E+00  0.0000000E+00  0.5367762E+00 -0.1588222E+01  0.9353369E-02  0.5366947E+00
 -0.9905930E+01 -0.1970410E+01  0.0000000E+00  0.5688283E+00 -0.1599952E+01  0.1658210E-01  0.5685866E+00
 -0.9665100E+01 -0.2931880E+01  0.0000000E+00  0.5970797E+00 -0.1611961E+01  0.2457173E-01  0.5965739E+00
 -0.9331180E+01 -0.3865100E+01  0.0000000E+00  0.6209062E+00 -0.1622926E+01  0.3235288E-01  0.6200627E+00
 -0.8907400E+01 -0.4761110E+01  0.0000000E+00  0.6412866E+00 -0.1632998E+01  0.3986362E-01  0.6400464E+00
 -0.8397840E+01 -0.5611260E+01  0.0000000E+00  0.6576437E+00 -0.1641958E+01  0.4675947E-01  0.6559793E+00
 -0.7807400E+01 -0.6407370E+01  0.0000000E+00  0.6700029E+00 -0.1649104E+01  0.5241246E-01  0.6679497E+00
 -0.7141780E+01 -0.7141780E+01  0.0000000E+00  0.6780350E+00 -0.1653771E+01  0.5619548E-01  0.6757023E+00
 -0.6407370E+01 -0.7807410E+01  0.0000000E+00  0.6826348E+00 -0.1656382E+01  0.5835264E-01  0.6801361E+00
 -0.5611260E+01 -0.8397850E+01  0.0000000E+00  0.6830363E+00 -0.1656569E+01  0.5851425E-01  0.6805252E+00
 -0.4761110E+01 -0.8907410E+01  0.0000000E+00  0.6794497E+00 -0.1654454E+01  0.5677468E-01  0.6770735E+00
 -0.3865100E+01 -0.9331190E+01  0.0000000E+00  0.6716918E+00 -0.1650063E+01  0.5318722E-01  0.6695827E+00
 -0.2931870E+01 -0.9665100E+01  0.0000000E+00  0.6604962E+00 -0.1643739E+01  0.4813555E-01  0.6587399E+00
 -0.1970410E+01 -0.9905930E+01  0.0000000E+00  0.6449338E+00 -0.1635066E+01  0.4142138E-01  0.6436023E+00
 -0.9899710E+00 -0.1005140E+02  0.0000000E+00  0.6253839E+00 -0.1624841E+01  0.3378214E-01  0.6244708E+00
  0.1204410E-06 -0.1010000E+02  0.0000000E+00  0.6018787E+00 -0.1613953E+01  0.2596684E-01  0.6013183E+00
  0.9899760E+00 -0.1005140E+02  0.0000000E+00  0.5749434E+00 -0.1602610E+01  0.1828818E-01  0.5746524E+00
  0.1970410E+01 -0.9905930E+01  0.0000000E+00  0.5436264E+00 -0.1590816E+01  0.1088256E-01  0.5435175E+00
  0.2931880E+01 -0.9665100E+01  0.0000000E+00  0.5086106E+00 -0.1580061E+01  0.4712046E-02  0.5085888E+00
  0.3865100E+01 -0.9331180E+01  0.0000000E+00  0.4703865E+00 -0.1572569E+01  0.8337760E-03  0.4703858E+00
  0.4761110E+01 -0.8907410E+01  0.0000000E+00  0.4293046E+00 -0.1569184E+01 -0.6919903E-03  0.4293040E+00
  0.5611260E+01 -0.8397840E+01  0.0000000E+00  0.3846725E+00 -0.1572209E+01  0.5435430E-03  0.3846721E+00
  0.6407370E+01 -0.7807410E+01  0.0000000E+00  0.3377947E+00 -0.1585848E+01  0.5084320E-02  0.3377564E+00
  0.7141780E+01 -0.7141780E+01  0.0000000E+00  0.2900512E+00 -0.1617594E+01  0.1356868E-01  0.2897337E+00
  0.7807410E+01 -0.6407370E+01  0.0000000E+00  0.2421304E+00 -0.1677204E+01  0.2571586E-01  0.2407610E+00
  0.8397840E+01 -0.5611260E+01  0.0000000E+00  0.1952394E+00 -0.1787100E+01  0.4190239E-01  0.1906899E+00
  0.8907410E+01 -0.4761110E+01  0.0000000E+00  0.1538960E+00 -0.1983515E+01  0.6172790E-01  0.1409739E+00
  0.9331180E+01 -0.3865100E+01  0.0000000E+00  0.1259662E+00 -0.2309994E+01  0.8486278E-01  0.9309019E-01
  0.9665100E+01 -0.2931870E+01  0.0000000E+00  0.1202756E+00 -0.2742685E+01  0.1108323E+00  0.4671646E-01
  0.9905930E+01 -0.1970410E+01  0.0000000E+00  0.1396867E+00 -0.3126502E+01  0.1396708E+00  0.2107893E-02
  0.1005140E+02 -0.9899690E+00  0.0000000E+00  0.1746970E+00  0.2912501E+01  0.1701327E+00 -0.3967242E-01
  0.1010000E+02  0.0000000E+00 -0.2568960E-01  0.2151607E+00  0.2773373E+01  0.2007384E+00 -0.7744814E-01
  0.1005140E+02  0.9899730E+00 -0.2568960E-01  0.2574512E+00  0.2690914E+01  0.2317451E+00 -0.1121398E+00
  0.9905930E+01  0.1970410E+01 -0.2568960E-01  0.2989922E+00  0.2642204E+01  0.2624778E+00 -0.1431841E+00
  0.9665100E+01  0.2931880E+01 -0.2568960E-01  0.3378073E+00  0.2612635E+01  0.2916405E+00 -0.1704689E+00
  0.9331180E+01  0.3865100E+01 -0.2568960E-01  0.3719270E+00  0.2595330E+01  0.3178013E+00 -0.1932150E+00
  0.8907400E+01  0.4761110E+01 -0.2568960E-01  0.4019364E+00  0.2584281E+01  0.3411154E+00 -0.2125867E+00
  0.8397840E+01  0.5611260E+01 -0.2568960E-01  0.4268004E+00  0.2578336E+01  0.3608685E+00 -0.2278871E+00
  0.7807410E+01  0.6407370E+01 -0.2568960E-01  0.4461640E+00  0.2574968E+01  0.3764364E+00 -0.2394953E+00
  0.7141780E+01  0.7141780E+01 -0.2568960E-01  0.4589114E+00  0.2573476E+01  0.3868237E+00 -0.2469151E+00
  0.6407370E+01  0.7807410E+01 -0.2568960E-01  0.4661017E+00  0.2572377E+01  0.3926087E+00 -0.2512154E+00
  0.5611260E+01  0.8397840E+01 -0.2568960E-01  0.4666234E+00  0.2572342E+01  0.3930393E+00 -0.2515105E+00
  0.4761110E+01  0.8907410E+01 -0.2568960E-01  0.4610116E+00  0.2572888E+01  0.3884482E+00 -0.2482735E+00
  0.3865100E+01  0.9331180E+01 -0.2568960E-01  0.4488903E+00  0.2574785E+01  0.3786924E+00 -0.2410280E+00
  0.2931870E+01  0.9665100E+01 -0.2568960E-01  0.4313663E+00  0.2577513E+01  0.3645395E+00 -0.2306248E+00
  0.1970410E+01  0.9905930E+01 -0.2568960E-01  0.4074144E+00  0.2582948E+01  0.3454770E+00 -0.2159448E+00
  0.9899730E+00  0.1005140E+02 -0.2568960E-01  0.3782998E+00  0.2592245E+01  0.3226388E+00 -0.1975220E+00
 -0.4414850E-06  0.1010000E+02 -0.2568960E-01  0.3445875E+00  0.2608768E+01  0.2968193E+00 -0.1750395E+00
 -0.9899740E+00  0.1005140E+02 -0.2568960E-01  0.3073115E+00  0.2634826E+01  0.2686881E+00 -0.1491544E+00
 -0.1970410E+01  0.9905930E+01 -0.2568960E-01  0.2661539E+00  0.2679147E+01  0.2381981E+00 -0.1187415E+00
 -0.2931880E+01  0.9665100E+01 -0.2568960E-01  0.2234322E+00  0.2753029E+01  0.2067762E+00 -0.8464950E-01
 -0.3865100E+01  0.9331180E+01 -0.2568960E-01  0.1820007E+00  0.2879534E+01  0.1757869E+00 -0.4715074E-01
 -0.4761110E+01  0.8907400E+01 -0.2568960E-01  0.1457147E+00  0.3095120E+01  0.1455574E+00 -0.6769347E-02
 -0.5611260E+01  0.8397840E+01 -0.2568960E-01  0.1222959E+00 -0.2831684E+01  0.1164699E+00  0.3729681E-01
 -0.6407370E+01  0.7807410E+01 -0.2568960E-01  0.1225667E+00 -0.2389945E+01  0.8954290E-01  0.8369394E-01
 -0.7141780E+01  0.7141780E+01 -0.2568960E-01  0.1469926E+00 -0.2035880E+01  0.6592581E-01  0.1313796E+00
 -0.7807410E+01  0.6407370E+01 -0.2568960E-01  0.1857576E+00 -0.1818138E+01  0.4547860E-01  0.1801043E+00
 -0.8397840E+01  0.5611260E+01 -0.2568960E-01  0.2318627E+00 -0.1694916E+01  0.2870477E-01  0.2300790E+00
 -0.8907410E+01  0.4761110E+01 -0.2568960E-01  0.2802990E+00 -0.1626617E+01  0.1563834E-01  0.2798625E+00
 -0.9331180E+01  0.3865100E+01 -0.2568960E-01  0.3280227E+00 -0.1590803E+01  0.6562327E-02  0.3279570E+00
 -0.9665100E+01  0.2931880E+01 -0.2568960E-01  0.3746441E+00 -0.1573509E+01  0.1016332E-02  0.3746427E+00
 -0.9905930E+01  0.1970410E+01 -0.2568960E-01  0.4196504E+00 -0.1569021E+01 -0.7451260E-03  0.4196497E+00
 -0.1005140E+02  0.9899730E+00 -0.2568960E-01  0.4620198E+00 -0.1571733E+01  0.4327681E-03  0.4620196E+00
 -0.1010000E+02 -0.8829700E-06 -0.2568960E-01  0.5005069E+00 -0.1578650E+01  0.3930579E-02  0.5004914E+00
 -0.1005140E+02 -0.9899740E+00 -0.2568960E-01  0.5359571E+00 -0.1588241E+01  0.9349341E-02  0.5358756E+00
 -0.9905930E+01 -0.1970410E+01 -0.2568960E-01  0.5678941E+00 -0.1599978E+01  0.1656981E-01  0.5676523E+00
 -0.9665100E+01 -0.2931880E+01 -0.2568960E-01  0.5961717E+00 -0.1611990E+01  0.2455183E-01  0.5956659E+00
 -0.9331180E+01 -0.3865100E+01 -0.2568960E-01  0.6199473E+00 -0.1622956E+01  0.3232171E-01  0.6191041E+00
 -0.8907400E+01 -0.4761110E+01 -0.2568960E-01  0.6403127E+00 -0.1633037E+01  0.3982750E-01  0.6390728E+00
 -0.8397840E+01 -0.5611260E+01 -0.2568960E-01  0.6565638E+00 -0.1641979E+01  0.4669634E-01  0.6549011E+00
 -0.7807400E+01 -0.6407370E+01 -0.2568960E-01  0.6689862E+00 -0.1649147E+01  0.5236162E-01  0.6669339E+00
 -0.7141780E+01 -0.7141780E+01 -0.2568960E-01  0.6769900E+00 -0.1653809E+01  0.5613426E-01  0.6746588E+00
 -0.6407370E+01 -0.7807410E+01 -0.2568960E-01  0.6815996E+00 -0.1656428E+01  0.5829524E-01  0.6791021E+00
 -0.5611260E+01 -0.8397850E+01 -0.2568960E-01  0.6819156E+00 -0.1656589E+01  0.5843132E-01  0.6794076E+00
 -0.4761110E+01 -0.8907410E+01 -0.2568960E-01  0.6784191E+00 -0.1654499E+01  0.5671924E-01  0.6760439E+00
 -0.3865100E+01 -0.9331190E+01 -0.2568960E-01  0.6706552E+00 -0.1650101E+01  0.5313008E-01  0.6685474E+00
 -0.2931870E+01 -0.9665100E+01 -0.2568960E-01  0.6594926E+00 -0.1643780E+01  0.4808963E-01  0.6577370E+00
 -0.1970410E+01 -0.9905930E+01 -0.2568960E-01  0.6438752E+00 -0.1635088E+01  0.4136725E-01  0.6425450E+00
 -0.9899710E+00 -0.1005140E+02 -0.2568960E-01  0.6244338E+00 -0.1624876E+01  0.3375281E-01  0.6235209E+00
  0.1204410E-06 -0.1010000E+02 -0.2568960E-01  0.6009481E+00 -0.1613981E+01  0.2594377E-01  0.6003878E+00
  0.9899760E+00 -0.1005140E+02 -0.2568960E-01  0.5740671E+00 -0.1602635E+01  0.1827442E-01  0.5737762E+00
  0.1970410E+01 -0.9905930E+01 -0.2568960E-01  0.5427340E+00 -0.1590845E+01  0.1088024E-01  0.5426249E+00
  0.2931880E+01 -0.9665100E+01 -0.2568960E-01  0.5078323E+00 -0.1580075E+01  0.4711710E-02  0.5078104E+00
  0.3865100E+01 -0.9331180E+01 -0.2568960E-01  0.4696533E+00 -0.1572581E+01  0.8381023E-03  0.4696526E+00
  0.4761110E+01 -0.8907410E+01 -0.2568960E-01  0.4286415E+00 -0.1569180E+01 -0.6927389E-03  0.4286409E+00
  0.5611260E+01 -0.8397840E+01 -0.2568960E-01  0.3840410E+00 -0.1572253E+01  0.5595633E-03  0.3840406E+00
  0.6407370E+01 -0.7807410E+01 -0.2568960E-01  0.3372637E+00 -0.1585828E+01  0.5069360E-02  0.3372256E+00
  0.7141780E+01 -0.7141780E+01 -0.2568960E-01  0.2895848E+00 -0.1617589E+01  0.1354552E-01  0.2892678E+00
  0.7807410E+01 -0.6407370E+01 -0.2568960E-01  0.2417339E+00 -0.1677171E+01  0.2566598E-01  0.2403675E+00
  0.8397840E+01 -0.5611260E+01 -0.2568960E-01  0.1949214E+00 -0.1787193E+01  0.4185198E-01  0.1903753E+00
  0.8907410E+01 -0.4761110E+01 -0.2568960E-01  0.1536256E+00 -0.1983542E+01  0.6162322E-01  0.1407246E+00
  0.9331180E+01 -0.3865100E+01 -0.2568960E-01  0.1257460E+00 -0.2310148E+01  0.8472873E-01  0.9291445E-01
  0.9665100E+01 -0.2931870E+01 -0.2568960E-01  0.1200688E+00 -0.2743004E+01  0.1106565E+00  0.4660089E-01
  0.9905930E+01 -0.1970410E+01 -0.2568960E-01  0.1394762E+00 -0.3126519E+01  0.1394603E+00  0.2102314E-02
  0.1005140E+02 -0.9899690E+00 -0.2568960E-01  0.1744394E+00  0.2912220E+01  0.1698707E+00 -0.3966175E-01
  0.1010000E+02  0.0000000E+00 -0.1027320E+00  0.2142211E+00  0.2772681E+01  0.1998083E+00 -0.7724825E-01
  0.1005140E+02  0.9899730E+00 -0.1027320E+00  0.2563115E+00  0.2690529E+01  0.2306762E+00 -0.1117321E+00
  0.9905930E+01  0.1970410E+01 -0.1027320E+00  0.2976325E+00  0.2642004E+01  0.2612557E+00 -0.1425853E+00
  0.9665100E+01  0.2931880E+01 -0.1027320E+00  0.3363093E+00  0.2612365E+01  0.2903013E+00 -0.1697912E+00
  0.9331180E+01  0.3865100E+01 -0.1027320E+00  0.3703462E+00  0.2594974E+01  0.3163819E+00 -0.1925065E+00
  0.8907400E+01  0.4761110E+01 -0.1027320E+00  0.4001628E+00  0.2584072E+01  0.3395659E+00 -0.2117197E+00
  0.8397840E+01  0.5611260E+01 -0.1027320E+00  0.4248580E+00  0.2578220E+01  0.3591999E+00 -0.2268915E+00
  0.7807410E+01  0.6407370E+01 -0.1027320E+00  0.4441889E+00  0.2574787E+01  0.3747268E+00 -0.2385027E+00
  0.7141780E+01  0.7141780E+01 -0.1027320E+00  0.4569640E+00  0.2573218E+01  0.3851187E+00 -0.2459667E+00
  0.6407370E+01  0.7807410E+01 -0.1027320E+00  0.4640408E+00  0.2572210E+01  0.3908309E+00 -0.2501701E+00
  0.5611260E+01  0.8397840E+01 -0.1027320E+00  0.4645002E+00  0.2572246E+01  0.3912269E+00 -0.2504036E+00
  0.4761110E+01  0.8907410E+01 -0.1027320E+00  0.4589742E+00  0.2572720E+01  0.3866897E+00 -0.2472416E+00
  0.3865100E+01  0.9331180E+01 -0.1027320E+00  0.4469835E+00  0.2574513E+01  0.3770187E+00 -0.2401064E+00
  0.2931870E+01  0.9665100E+01 -0.1027320E+00  0.4294563E+00  0.2577322E+01  0.3628816E+00 -0.2296729E+00
  0.1970410E+01  0.9905930E+01 -0.1027320E+00  0.4055616E+00  0.2582824E+01  0.3438790E+00 -0.2150056E+00
  0.9899730E+00  0.1005140E+02 -0.1027320E+00  0.3766311E+00  0.2592016E+01  0.3211707E+00 -0.1967242E+00
 -0.4414850E-06  0.1010000E+02 -0.1027320E+00  0.3431211E+00  0.2608372E+01  0.2954871E+00 -0.1744117E+00
 -0.9899740E+00  0.1005140E+02 -0.1027320E+00  0.3059462E+00  0.2634521E+01  0.2674490E+00 -0.1485736E+00
 -0.1970410E+01  0.9905930E+01 -0.1027320E+00  0.2649425E+00  0.2678910E+01  0.2370861E+00 -0.1182570E+00
 -0.2931880E+01  0.9665100E+01 -0.1027320E+00  0.2224375E+00  0.2752572E+01  0.2058172E+00 -0.8436658E-01
 -0.3865100E+01  0.9331180E+01 -0.1027320E+00  0.1811866E+00  0.2878719E+01  0.1749624E+00 -0.4708249E-01
 -0.4761110E+01  0.8907400E+01 -0.1027320E+00  0.1450230E+00  0.3094478E+01  0.1448621E+00 -0.6830162E-02
 -0.5611260E+01  0.8397840E+01 -0.1027320E+00  0.1216928E+00 -0.2832154E+01  0.1159130E+00  0.3705841E-01
 -0.6407370E+01  0.7807410E+01 -0.1027320E+00  0.1219215E+00 -0.2390341E+01  0.8910452E-01  0.8321805E-01
 -0.7141780E+01  0.7141780E+01 -0.1027320E+00  0.1462079E+00 -0.2035883E+01  0.6557426E-01  0.1306781E+00
 -0.7807410E+01  0.6407370E+01 -0.1027320E+00  0.1848284E+00 -0.1818065E+01  0.4523794E-01  0.1792068E+00
 -0.8397840E+01  0.5611260E+01 -0.1027320E+00  0.2307259E+00 -0.1694885E+01  0.2855704E-01  0.2289518E+00
 -0.8907410E+01  0.4761110E+01 -0.1027320E+00  0.2789410E+00 -0.1626536E+01  0.1554008E-01  0.2785078E+00
 -0.9331180E+01  0.3865100E+01 -0.1027320E+00  0.3264761E+00 -0.1590675E+01  0.6489487E-02  0.3264116E+00
 -0.9665100E+01  0.2931880E+01 -0.1027320E+00  0.3728746E+00 -0.1573470E+01  0.9968618E-03  0.3728732E+00
 -0.9905930E+01  0.1970410E+01 -0.1027320E+00  0.4176481E+00 -0.1569022E+01 -0.7409292E-03  0.4176475E+00
 -0.1005140E+02  0.9899730E+00 -0.1027320E+00  0.4598489E+00 -0.1571723E+01  0.4261606E-03  0.4598487E+00
 -0.1010000E+02 -0.8829700E-06 -0.1027320E+00  0.4982150E+00 -0.1578645E+01  0.3910144E-02  0.4981997E+00
 -0.1005140E+02 -0.9899740E+00 -0.1027320E+00  0.5334591E+00 -0.1588275E+01  0.9323479E-02  0.5333776E+00
 -0.9905930E+01 -0.1970410E+01 -0.1027320E+00  0.5652050E+00 -0.1600022E+01  0.1651631E-01  0.5649636E+00
 -0.9665100E+01 -0.2931880E+01 -0.1027320E+00  0.5933955E+00 -0.1612040E+01  0.2446709E-01  0.5928909E+00
 -0.9331180E+01 -0.3865100E+01 -0.1027320E+00  0.6171337E+00 -0.1623032E+01  0.3222151E-01  0.6162919E+00
 -0.8907400E+01 -0.4761110E+01 -0.1027320E+00  0.6373410E+00 -0.1633114E+01  0.3969179E-01  0.6361038E+00
 -0.8397840E+01 -0.5611260E+01 -0.1027320E+00  0.6534622E+00 -0.1642050E+01  0.4652194E-01  0.6518041E+00
 -0.7807400E+01 -0.6407370E+01 -0.1027320E+00  0.6658808E+00 -0.1649231E+01  0.5217456E-01  0.6638336E+00
 -0.7141780E+01 -0.7141780E+01 -0.1027320E+00  0.6739264E+00 -0.1653921E+01  0.5595577E-01  0.6715994E+00
 -0.6407370E+01 -0.7807410E+01 -0.1027320E+00  0.6784371E+00 -0.1656521E+01  0.5808740E-01  0.6759458E+00
 -0.5611260E+01 -0.8397850E+01 -0.1027320E+00  0.6786952E+00 -0.1656667E+01  0.5820829E-01  0.6761945E+00
 -0.4761110E+01 -0.8907410E+01 -0.1027320E+00  0.6752734E+00 -0.1654590E+01  0.5651753E-01  0.6729041E+00
 -0.3865100E+01 -0.9331190E+01 -0.1027320E+00  0.6676182E+00 -0.1650209E+01  0.5296164E-01  0.6655141E+00
 -0.2931870E+01 -0.9665100E+01 -0.1027320E+00  0.6564319E+00 -0.1643860E+01  0.4791841E-01  0.6546806E+00
 -0.1970410E+01 -0.9905930E+01 -0.1027320E+00  0.6408319E+00 -0.1635155E+01  0.4121469E-01  0.6395051E+00
 -0.9899710E+00 -0.1005140E+02 -0.1027320E+00  0.6215338E+00 -0.1624947E+01  0.3364009E-01  0.6206227E+00
  0.1204410E-06 -0.1010000E+02 -0.1027320E+00  0.5982186E+00 -0.1614044E+01  0.2586330E-01  0.5976593E+00
  0.9899760E+00 -0.1005140E+02 -0.1027320E+00  0.5713920E+00 -0.1602675E+01  0.1821220E-01  0.5711017E+00
  0.1970410E+01 -0.9905930E+01 -0.1027320E+00  0.5401613E+00 -0.1590882E+01  0.1084852E-01  0.5400524E+00
  0.2931880E+01 -0.9665100E+01 -0.1027320E+00  0.5054619E+00 -0.1580096E+01  0.4700519E-02  0.5054400E+00
  0.3865100E+01 -0.9331180E+01 -0.1027320E+00  0.4674963E+00 -0.1572555E+01  0.8221364E-03  0.4674956E+00
  0.4761110E+01 -0.8907410E+01 -0.1027320E+00  0.4266202E+00 -0.1569156E+01 -0.6997436E-03  0.4266196E+00
  0.5611260E+01 -0.8397840E+01 -0.1027320E+00  0.3822035E+00 -0.1572245E+01  0.5535436E-03  0.3822031E+00
  0.6407370E+01 -0.7807410E+01 -0.1027320E+00  0.3356616E+00 -0.1585772E+01  0.5026409E-02  0.3356240E+00
  0.7141780E+01 -0.7141780E+01 -0.1027320E+00  0.2882020E+00 -0.1617432E+01  0.1343562E-01  0.2878887E+00
  0.7807410E+01 -0.6407370E+01 -0.1027320E+00  0.2405473E+00 -0.1677087E+01  0.2551987E-01  0.2391898E+00
  0.8397840E+01 -0.5611260E+01 -0.1027320E+00  0.1939538E+00 -0.1787179E+01  0.4164151E-01  0.1894309E+00
