 VARIABLES="X" "Y" "Z" "abs(eta) (m)" "angle(phi) (rad)" "PRE1" "PRE2"
ZONE N=   3200 ,E =    3136 ,F=FEPOINT,ET=QUADRILATERAL
  0.1010000E+02  0.0000000E+00  0.0000000E+00  0.3662271E+00 -0.1666849E+01  0.3512312E-01  0.3645390E+00
  0.1005140E+02  0.9899730E+00  0.0000000E+00  0.4018099E+00 -0.1665916E+01  0.3816248E-01  0.3999935E+00
  0.9905930E+01  0.1970410E+01  0.0000000E+00  0.4353213E+00 -0.1669432E+01  0.4286855E-01  0.4332054E+00
  0.9665100E+01  0.2931880E+01  0.0000000E+00  0.4661930E+00 -0.1675498E+01  0.4872213E-01  0.4636400E+00
  0.9331180E+01  0.3865100E+01  0.0000000E+00  0.4941081E+00 -0.1682531E+01  0.5509438E-01  0.4910269E+00
  0.8907400E+01  0.4761110E+01  0.0000000E+00  0.5178958E+00 -0.1690239E+01  0.6171181E-01  0.5142059E+00
  0.8397840E+01  0.5611260E+01  0.0000000E+00  0.5387227E+00 -0.1698042E+01  0.6836516E-01  0.5343673E+00
  0.7807410E+01  0.6407370E+01  0.0000000E+00  0.5562973E+00 -0.1705086E+01  0.7448094E-01  0.5512887E+00
  0.7141780E+01  0.7141780E+01  0.0000000E+00  0.5705605E+00 -0.1710863E+01  0.7965552E-01  0.5649728E+00
  0.6407370E+01  0.7807410E+01  0.0000000E+00  0.5800669E+00 -0.1715238E+01  0.8349466E-01  0.5740263E+00
  0.5611260E+01  0.8397840E+01  0.0000000E+00  0.5862797E+00 -0.1718218E+01  0.8611748E-01  0.5799204E+00
  0.4761110E+01  0.8907410E+01  0.0000000E+00  0.5890860E+00 -0.1719444E+01  0.8724402E-01  0.5825897E+00
  0.3865100E+01  0.9331180E+01  0.0000000E+00  0.5885342E+00 -0.1718983E+01  0.8689433E-01  0.5820841E+00
  0.2931870E+01  0.9665100E+01  0.0000000E+00  0.5831066E+00 -0.1716721E+01  0.8478790E-01  0.5769092E+00
  0.1970410E+01  0.9905930E+01  0.0000000E+00  0.5743119E+00 -0.1712793E+01  0.8127641E-01  0.5685316E+00
  0.9899730E+00  0.1005140E+02  0.0000000E+00  0.5621434E+00 -0.1707343E+01  0.7652040E-01  0.5569110E+00
 -0.4414850E-06  0.1010000E+02  0.0000000E+00  0.5467746E+00 -0.1700920E+01  0.7094765E-01  0.5421521E+00
 -0.9899740E+00  0.1005140E+02  0.0000000E+00  0.5268237E+00 -0.1693667E+01  0.6456823E-01  0.5228519E+00
 -0.1970410E+01  0.9905930E+01  0.0000000E+00  0.5036511E+00 -0.1685725E+01  0.5775676E-01  0.5003285E+00
 -0.2931880E+01  0.9665100E+01  0.0000000E+00  0.4773893E+00 -0.1677920E+01  0.5104185E-01  0.4746528E+00
 -0.3865100E+01  0.9331180E+01  0.0000000E+00  0.4484300E+00 -0.1671378E+01  0.4502784E-01  0.4461636E+00
 -0.4761110E+01  0.8907400E+01  0.0000000E+00  0.4158057E+00 -0.1667217E+01  0.4003006E-01  0.4138744E+00
 -0.5611260E+01  0.8397840E+01  0.0000000E+00  0.3805522E+00 -0.1666122E+01  0.3622165E-01  0.3788244E+00
 -0.6407370E+01  0.7807410E+01  0.0000000E+00  0.3431487E+00 -0.1670661E+01  0.3421159E-01  0.3414390E+00
 -0.7141780E+01  0.7141780E+01  0.0000000E+00  0.3043272E+00 -0.1684015E+01  0.3438197E-01  0.3023788E+00
 -0.7807410E+01  0.6407370E+01  0.0000000E+00  0.2639398E+00 -0.1711968E+01  0.3713715E-01  0.2613141E+00
 -0.8397840E+01  0.5611260E+01  0.0000000E+00  0.2229520E+00 -0.1761805E+01  0.4232738E-01  0.2188972E+00
 -0.8907410E+01  0.4761110E+01  0.0000000E+00  0.1828940E+00 -0.1848938E+01  0.5021702E-01  0.1758649E+00
 -0.9331180E+01  0.3865100E+01  0.0000000E+00  0.1462315E+00 -0.1998467E+01  0.6064989E-01  0.1330610E+00
 -0.9665100E+01  0.2931880E+01  0.0000000E+00  0.1170286E+00 -0.2253091E+01  0.7379542E-01  0.9082916E-01
 -0.9905930E+01  0.1970410E+01  0.0000000E+00  0.1019255E+00 -0.2637755E+01  0.8925983E-01  0.4920863E-01
 -0.1005140E+02  0.9899730E+00  0.0000000E+00  0.1071058E+00 -0.3057339E+01  0.1067259E+00  0.9013419E-02
 -0.1010000E+02 -0.8829700E-06  0.0000000E+00  0.1288689E+00  0.2913519E+01  0.1255317E+00 -0.2913740E-01
 -0.1005140E+02 -0.9899740E+00  0.0000000E+00  0.1590390E+00  0.2724875E+01  0.1454289E+00 -0.6437279E-01
 -0.9905930E+01 -0.1970410E+01  0.0000000E+00  0.1924865E+00  0.2611318E+01  0.1660520E+00 -0.9735405E-01
 -0.9665100E+01 -0.2931880E+01  0.0000000E+00  0.2261001E+00  0.2542158E+01  0.1866807E+00 -0.1275602E+00
 -0.9331180E+01 -0.3865100E+01  0.0000000E+00  0.2580518E+00  0.2498592E+01  0.2065189E+00 -0.1547277E+00
 -0.8907400E+01 -0.4761110E+01  0.0000000E+00  0.2866566E+00  0.2473119E+01  0.2249592E+00 -0.1776666E+00
 -0.8397840E+01 -0.5611260E+01  0.0000000E+00  0.3124033E+00  0.2456767E+01  0.2419654E+00 -0.1976070E+00
 -0.7807400E+01 -0.6407370E+01  0.0000000E+00  0.3345184E+00  0.2446101E+01  0.2568228E+00 -0.2143469E+00
 -0.7141780E+01 -0.7141780E+01  0.0000000E+00  0.3525863E+00  0.2438818E+01  0.2690415E+00 -0.2278898E+00
 -0.6407370E+01 -0.7807410E+01  0.0000000E+00  0.3650888E+00  0.2435803E+01  0.2778689E+00 -0.2368094E+00
 -0.5611260E+01 -0.8397850E+01  0.0000000E+00  0.3732997E+00  0.2434096E+01  0.2837045E+00 -0.2426199E+00
 -0.4761110E+01 -0.8907410E+01  0.0000000E+00  0.3769234E+00  0.2433087E+01  0.2862112E+00 -0.2452640E+00
 -0.3865100E+01 -0.9331190E+01  0.0000000E+00  0.3760045E+00  0.2432669E+01  0.2854110E+00 -0.2447855E+00
 -0.2931870E+01 -0.9665100E+01  0.0000000E+00  0.3690901E+00  0.2434910E+01  0.2807003E+00 -0.2396556E+00
 -0.1970410E+01 -0.9905930E+01  0.0000000E+00  0.3576865E+00  0.2438125E+01  0.2727731E+00 -0.2313751E+00
 -0.9899710E+00 -0.1005140E+02  0.0000000E+00  0.3419212E+00  0.2442999E+01  0.2618253E+00 -0.2199036E+00
  0.1204410E-06 -0.1010000E+02  0.0000000E+00  0.3222632E+00  0.2450780E+01  0.2483775E+00 -0.2053344E+00
  0.9899760E+00 -0.1005140E+02  0.0000000E+00  0.2976465E+00  0.2465633E+01  0.2321961E+00 -0.1862215E+00
  0.1970410E+01 -0.9905930E+01  0.0000000E+00  0.2695741E+00  0.2487983E+01  0.2140133E+00 -0.1639162E+00
  0.2931880E+01 -0.9665100E+01  0.0000000E+00  0.2387424E+00  0.2522808E+01  0.1944757E+00 -0.1384815E+00
  0.3865100E+01 -0.9331180E+01  0.0000000E+00  0.2062863E+00  0.2577781E+01  0.1743582E+00 -0.1102418E+00
  0.4761110E+01 -0.8907410E+01  0.0000000E+00  0.1725703E+00  0.2671536E+01  0.1538537E+00 -0.7816344E-01
  0.5611260E+01 -0.8397840E+01  0.0000000E+00  0.1403009E+00  0.2827689E+01  0.1334452E+00 -0.4332119E-01
  0.6407370E+01 -0.7807410E+01  0.0000000E+00  0.1141002E+00  0.3087827E+01  0.1139354E+00 -0.6131668E-02
  0.7141780E+01 -0.7141780E+01  0.0000000E+00  0.1013596E+00 -0.2812510E+01  0.9592056E-01  0.3275688E-01
  0.7807410E+01 -0.6407370E+01  0.0000000E+00  0.1086561E+00 -0.2395926E+01  0.7982264E-01  0.7371903E-01
  0.8397840E+01 -0.5611260E+01  0.0000000E+00  0.1333771E+00 -0.2085989E+01  0.6571528E-01  0.1160645E+00
  0.8907410E+01 -0.4761110E+01  0.0000000E+00  0.1680028E+00 -0.1898586E+01  0.5408874E-01  0.1590577E+00
  0.9331180E+01 -0.3865100E+01  0.0000000E+00  0.2068190E+00 -0.1790257E+01  0.4502510E-01  0.2018584E+00
  0.9665100E+01 -0.2931870E+01  0.0000000E+00  0.2472375E+00 -0.1728560E+01  0.3884346E-01  0.2441671E+00
  0.9905930E+01 -0.1970410E+01  0.0000000E+00  0.2880618E+00 -0.1693467E+01  0.3524832E-01  0.2858971E+00
  0.1005140E+02 -0.9899690E+00  0.0000000E+00  0.3280126E+00 -0.1675119E+01  0.3415711E-01  0.3262292E+00
  0.1010000E+02  0.0000000E+00 -0.2568960E-01  0.3657697E+00 -0.1666836E+01  0.3507437E-01  0.3640841E+00
  0.1005140E+02  0.9899730E+00 -0.2568960E-01  0.4013004E+00 -0.1665921E+01  0.3811608E-01  0.3994862E+00
  0.9905930E+01  0.1970410E+01 -0.2568960E-01  0.4347050E+00 -0.1669476E+01  0.4282711E-01  0.4325902E+00
  0.9665100E+01  0.2931880E+01 -0.2568960E-01  0.4656071E+00 -0.1675515E+01  0.4866849E-01  0.4630566E+00
  0.9331180E+01  0.3865100E+01 -0.2568960E-01  0.4935021E+00 -0.1682551E+01  0.5503658E-01  0.4904236E+00
  0.8907400E+01  0.4761110E+01 -0.2568960E-01  0.5172481E+00 -0.1690266E+01  0.6164848E-01  0.5135611E+00
  0.8397840E+01  0.5611260E+01 -0.2568960E-01  0.5379571E+00 -0.1698070E+01  0.6828309E-01  0.5336059E+00
  0.7807410E+01  0.6407370E+01 -0.2568960E-01  0.5556027E+00 -0.1705120E+01  0.7440641E-01  0.5505979E+00
  0.7141780E+01  0.7141780E+01 -0.2568960E-01  0.5698661E+00 -0.1710902E+01  0.7958040E-01  0.5642821E+00
  0.6407370E+01  0.7807410E+01 -0.2568960E-01  0.5793424E+00 -0.1715276E+01  0.8341244E-01  0.5733061E+00
  0.5611260E+01  0.8397840E+01 -0.2568960E-01  0.5854459E+00 -0.1718240E+01  0.8600771E-01  0.5790938E+00
  0.4761110E+01  0.8907410E+01 -0.2568960E-01  0.5883515E+00 -0.1719483E+01  0.8715830E-01  0.5818599E+00
  0.3865100E+01  0.9331180E+01 -0.2568960E-01  0.5878188E+00 -0.1719026E+01  0.8681338E-01  0.5813729E+00
  0.2931870E+01  0.9665100E+01 -0.2568960E-01  0.5823781E+00 -0.1716759E+01  0.8470422E-01  0.5761853E+00
  0.1970410E+01  0.9905930E+01 -0.2568960E-01  0.5734951E+00 -0.1712816E+01  0.8117417E-01  0.5677212E+00
  0.9899730E+00  0.1005140E+02 -0.2568960E-01  0.5614411E+00 -0.1707378E+01  0.7644438E-01  0.5562125E+00
 -0.4414850E-06  0.1010000E+02 -0.2568960E-01  0.5461071E+00 -0.1700953E+01  0.7087886E-01  0.5414879E+00
 -0.9899740E+00  0.1005140E+02 -0.2568960E-01  0.5261647E+00 -0.1693694E+01  0.6450186E-01  0.5221961E+00
 -0.1970410E+01  0.9905930E+01 -0.2568960E-01  0.5029371E+00 -0.1685758E+01  0.5769131E-01  0.4996172E+00
 -0.2931880E+01  0.9665100E+01 -0.2568960E-01  0.4767897E+00 -0.1677939E+01  0.5098705E-01  0.4740556E+00
 -0.3865100E+01  0.9331180E+01 -0.2568960E-01  0.4478779E+00 -0.1671386E+01  0.4497588E-01  0.4456139E+00
 -0.4761110E+01  0.8907400E+01 -0.2568960E-01  0.4152805E+00 -0.1667224E+01  0.3998244E-01  0.4133513E+00
 -0.5611260E+01  0.8397840E+01 -0.2568960E-01  0.3800164E+00 -0.1666178E+01  0.3619162E-01  0.3782890E+00
 -0.6407370E+01  0.7807410E+01 -0.2568960E-01  0.3427100E+00 -0.1670654E+01  0.3416553E-01  0.3410028E+00
 -0.7141780E+01  0.7141780E+01 -0.2568960E-01  0.3039391E+00 -0.1683985E+01  0.3432906E-01  0.3019942E+00
 -0.7807410E+01  0.6407370E+01 -0.2568960E-01  0.2635938E+00 -0.1711947E+01  0.3708312E-01  0.2609723E+00
 -0.8397840E+01  0.5611260E+01 -0.2568960E-01  0.2226467E+00 -0.1761908E+01  0.4229190E-01  0.2185931E+00
 -0.8907410E+01  0.4761110E+01 -0.2568960E-01  0.1826425E+00 -0.1848919E+01  0.5014458E-01  0.1756240E+00
 -0.9331180E+01  0.3865100E+01 -0.2568960E-01  0.1460192E+00 -0.1998453E+01  0.6055989E-01  0.1328687E+00
 -0.9665100E+01  0.2931880E+01 -0.2568960E-01  0.1168552E+00 -0.2253176E+01  0.7369375E-01  0.9068825E-01
 -0.9905930E+01  0.1970410E+01 -0.2568960E-01  0.1018080E+00 -0.2637770E+01  0.8915771E-01  0.4915049E-01
 -0.1005140E+02  0.9899730E+00 -0.2568960E-01  0.1069618E+00 -0.3057635E+01  0.1065851E+00  0.8969679E-02
 -0.1010000E+02 -0.8829700E-06 -0.2568960E-01  0.1287113E+00  0.2913172E+01  0.1253681E+00 -0.2914526E-01
 -0.1005140E+02 -0.9899740E+00 -0.2568960E-01  0.1588526E+00  0.2724656E+01  0.1452443E+00 -0.6432910E-01
 -0.9905930E+01 -0.1970410E+01 -0.2568960E-01  0.1922240E+00  0.2611445E+01  0.1658378E+00 -0.9720014E-01
 -0.9665100E+01 -0.2931880E+01 -0.2568960E-01  0.2258413E+00  0.2542018E+01  0.1864491E+00 -0.1274403E+00
 -0.9331180E+01 -0.3865100E+01 -0.2568960E-01  0.2577691E+00  0.2498441E+01  0.2062693E+00 -0.1545895E+00
 -0.8907400E+01 -0.4761110E+01 -0.2568960E-01  0.2863292E+00  0.2473024E+01  0.2246852E+00 -0.1774851E+00
 -0.8397840E+01 -0.5611260E+01 -0.2568960E-01  0.3119621E+00  0.2456848E+01  0.2416399E+00 -0.1973082E+00
 -0.7807400E+01 -0.6407370E+01 -0.2568960E-01  0.3341354E+00  0.2446029E+01  0.2565133E+00 -0.2141201E+00
 -0.7141780E+01 -0.7141780E+01 -0.2568960E-01  0.3521993E+00  0.2438728E+01  0.2687259E+00 -0.2276637E+00
 -0.6407370E+01 -0.7807410E+01 -0.2568960E-01  0.3646703E+00  0.2435743E+01  0.2775362E+00 -0.2365547E+00
 -0.5611260E+01 -0.8397850E+01 -0.2568960E-01  0.3727691E+00  0.2434164E+01  0.2833177E+00 -0.2422559E+00
 -0.4761110E+01 -0.8907410E+01 -0.2568960E-01  0.3764911E+00  0.2433030E+01  0.2858690E+00 -0.2449988E+00
 -0.3865100E+01 -0.9331190E+01 -0.2568960E-01  0.3755912E+00  0.2432590E+01  0.2850781E+00 -0.2445388E+00
 -0.2931870E+01 -0.9665100E+01 -0.2568960E-01  0.3686668E+00  0.2434850E+01  0.2803643E+00 -0.2393974E+00
 -0.1970410E+01 -0.9905930E+01 -0.2568960E-01  0.3571791E+00  0.2438197E+01  0.2724026E+00 -0.2310275E+00
 -0.9899710E+00 -0.1005140E+02 -0.2568960E-01  0.3415298E+00  0.2442930E+01  0.2615105E+00 -0.2196700E+00
  0.1204410E-06 -0.1010000E+02 -0.2568960E-01  0.3219101E+00  0.2450673E+01  0.2480833E+00 -0.2051359E+00
  0.9899760E+00 -0.1005140E+02 -0.2568960E-01  0.2973066E+00  0.2465541E+01  0.2319139E+00 -0.1860300E+00
  0.1970410E+01 -0.9905930E+01 -0.2568960E-01  0.2691960E+00  0.2488078E+01  0.2137287E+00 -0.1636659E+00
  0.2931880E+01 -0.9665100E+01 -0.2568960E-01  0.2384699E+00  0.2522680E+01  0.1942360E+00 -0.1383484E+00
  0.3865100E+01 -0.9331180E+01 -0.2568960E-01  0.2060578E+00  0.2577573E+01  0.1741422E+00 -0.1101559E+00
  0.4761110E+01 -0.8907410E+01 -0.2568960E-01  0.1723698E+00  0.2671337E+01  0.1536594E+00 -0.7810323E-01
  0.5611260E+01 -0.8397840E+01 -0.2568960E-01  0.1401194E+00  0.2827837E+01  0.1332789E+00 -0.4324548E-01
  0.6407370E+01 -0.7807410E+01 -0.2568960E-01  0.1139530E+00  0.3087532E+01  0.1137865E+00 -0.6157428E-02
  0.7141780E+01 -0.7141780E+01 -0.2568960E-01  0.1012106E+00 -0.2812827E+01  0.9578995E-01  0.3267841E-01
  0.7807410E+01 -0.6407370E+01 -0.2568960E-01  0.1084944E+00 -0.2396059E+01  0.7971361E-01  0.7359871E-01
  0.8397840E+01 -0.5611260E+01 -0.2568960E-01  0.1332086E+00 -0.2086118E+01  0.6564711E-01  0.1159094E+00
  0.8907410E+01 -0.4761110E+01 -0.2568960E-01  0.1677686E+00 -0.1898574E+01  0.5401131E-01  0.1588367E+00
  0.9331180E+01 -0.3865100E+01 -0.2568960E-01  0.2065405E+00 -0.1790210E+01  0.4495501E-01  0.2015887E+00
  0.9665100E+01 -0.2931870E+01 -0.2568960E-01  0.2469113E+00 -0.1728539E+01  0.3878711E-01  0.2438457E+00
  0.9905930E+01 -0.1970410E+01 -0.2568960E-01  0.2876603E+00 -0.1693547E+01  0.3522186E-01  0.2854958E+00
  0.1005140E+02 -0.9899690E+00 -0.2568960E-01  0.3275919E+00 -0.1675109E+01  0.3410993E-01  0.3258112E+00
  0.1010000E+02  0.0000000E+00 -0.1027320E+00  0.3643656E+00 -0.1666815E+01  0.3493226E-01  0.3626872E+00
  0.1005140E+02  0.9899730E+00 -0.1027320E+00  0.3997435E+00 -0.1665946E+01  0.3797820E-01  0.3979353E+00
  0.9905930E+01  0.1970410E+01 -0.1027320E+00  0.4328857E+00 -0.1669582E+01  0.4269341E-01  0.4307753E+00
  0.9665100E+01  0.2931880E+01 -0.1027320E+00  0.4638082E+00 -0.1675562E+01  0.4850240E-01  0.4612652E+00
  0.9331180E+01  0.3865100E+01 -0.1027320E+00  0.4916351E+00 -0.1682607E+01  0.5485557E-01  0.4885651E+00
  0.8907400E+01  0.4761110E+01 -0.1027320E+00  0.5152560E+00 -0.1690338E+01  0.6144815E-01  0.5115788E+00
  0.8397840E+01  0.5611260E+01 -0.1027320E+00  0.5356997E+00 -0.1698145E+01  0.6803644E-01  0.5313617E+00
  0.7807410E+01  0.6407370E+01 -0.1027320E+00  0.5534663E+00 -0.1705206E+01  0.7416727E-01  0.5484744E+00
  0.7141780E+01  0.7141780E+01 -0.1027320E+00  0.5677187E+00 -0.1711002E+01  0.7933658E-01  0.5621479E+00
  0.6407370E+01  0.7807410E+01 -0.1027320E+00  0.5771159E+00 -0.1715374E+01  0.8314767E-01  0.5710948E+00
  0.5611260E+01  0.8397840E+01 -0.1027320E+00  0.5829870E+00 -0.1718304E+01  0.8568348E-01  0.5766560E+00
  0.4761110E+01  0.8907410E+01 -0.1027320E+00  0.5860916E+00 -0.1719584E+01  0.8688176E-01  0.5796162E+00
  0.3865100E+01  0.9331180E+01 -0.1027320E+00  0.5856045E+00 -0.1719137E+01  0.8655052E-01  0.5791733E+00
  0.2931870E+01  0.9665100E+01 -0.1027320E+00  0.5801415E+00 -0.1716857E+01  0.8443484E-01  0.5739642E+00
  0.1970410E+01  0.9905930E+01 -0.1027320E+00  0.5710871E+00 -0.1712882E+01  0.8087079E-01  0.5653321E+00
  0.9899730E+00  0.1005140E+02 -0.1027320E+00  0.5592824E+00 -0.1707468E+01  0.7620053E-01  0.5540670E+00
 -0.4414850E-06  0.1010000E+02 -0.1027320E+00  0.5440474E+00 -0.1701039E+01  0.7065811E-01  0.5394396E+00
 -0.9899740E+00  0.1005140E+02 -0.1027320E+00  0.5241395E+00 -0.1693767E+01  0.6429163E-01  0.5201815E+00
 -0.1970410E+01  0.9905930E+01 -0.1027320E+00  0.5008268E+00 -0.1685843E+01  0.5749157E-01  0.4975161E+00
 -0.2931880E+01  0.9665100E+01 -0.1027320E+00  0.4749494E+00 -0.1677996E+01  0.5081682E-01  0.4722230E+00
 -0.3865100E+01  0.9331180E+01 -0.1027320E+00  0.4461768E+00 -0.1671415E+01  0.4481794E-01  0.4439201E+00
 -0.4761110E+01  0.8907400E+01 -0.1027320E+00  0.4136689E+00 -0.1667251E+01  0.3983840E-01  0.4117461E+00
 -0.5611260E+01  0.8397840E+01 -0.1027320E+00  0.3784291E+00 -0.1666305E+01  0.3608837E-01  0.3767044E+00
 -0.6407370E+01  0.7807410E+01 -0.1027320E+00  0.3413700E+00 -0.1670657E+01  0.3403269E-01  0.3396693E+00
 -0.7141780E+01  0.7141780E+01 -0.1027320E+00  0.3027568E+00 -0.1683927E+01  0.3417809E-01  0.3008215E+00
 -0.7807410E+01  0.6407370E+01 -0.1027320E+00  0.2625457E+00 -0.1711918E+01  0.3692797E-01  0.2599357E+00
 -0.8397840E+01  0.5611260E+01 -0.1027320E+00  0.2217350E+00 -0.1762135E+01  0.4216811E-01  0.2176885E+00
 -0.8907410E+01  0.4761110E+01 -0.1027320E+00  0.1818938E+00 -0.1848893E+01  0.4993461E-01  0.1749054E+00
 -0.9331180E+01  0.3865100E+01 -0.1027320E+00  0.1453953E+00 -0.1998423E+01  0.6029725E-01  0.1323028E+00
 -0.9665100E+01  0.2931880E+01 -0.1027320E+00  0.1163515E+00 -0.2253378E+01  0.7339435E-01  0.9028254E-01
 -0.9905930E+01  0.1970410E+01 -0.1027320E+00  0.1014395E+00 -0.2637823E+01  0.8883758E-01  0.4896788E-01
 -0.1005140E+02  0.9899730E+00 -0.1027320E+00  0.1065336E+00 -0.3058247E+01  0.1061638E+00  0.8868853E-02
 -0.1010000E+02 -0.8829700E-06 -0.1027320E+00  0.1282278E+00  0.2912431E+01  0.1248756E+00 -0.2912833E-01
 -0.1005140E+02 -0.9899740E+00 -0.1027320E+00  0.1582718E+00  0.2724220E+01  0.1446853E+00 -0.6415714E-01
 -0.9905930E+01 -0.1970410E+01 -0.1027320E+00  0.1914447E+00  0.2611726E+01  0.1651927E+00 -0.9675971E-01
 -0.9665100E+01 -0.2931880E+01 -0.1027320E+00  0.2250262E+00  0.2541747E+01  0.1857417E+00 -0.1270307E+00
 -0.9331180E+01 -0.3865100E+01 -0.1027320E+00  0.2568692E+00  0.2498129E+01  0.2055011E+00 -0.1541139E+00
 -0.8907400E+01 -0.4761110E+01 -0.1027320E+00  0.2852979E+00  0.2472845E+01  0.2238443E+00 -0.1768858E+00
 -0.8397840E+01 -0.5611260E+01 -0.1027320E+00  0.3106646E+00  0.2457037E+01  0.2406720E+00 -0.1964421E+00
 -0.7807400E+01 -0.6407370E+01 -0.1027320E+00  0.3329293E+00  0.2445895E+01  0.2555588E+00 -0.2133812E+00
 -0.7141780E+01 -0.7141780E+01 -0.1027320E+00  0.3509695E+00  0.2438555E+01  0.2677483E+00 -0.2269150E+00
 -0.6407370E+01 -0.7807410E+01 -0.1027320E+00  0.3633528E+00  0.2435637E+01  0.2765086E+00 -0.2357292E+00
 -0.5611260E+01 -0.8397850E+01 -0.1027320E+00  0.3712118E+00  0.2434322E+01  0.2821721E+00 -0.2411992E+00
 -0.4761110E+01 -0.8907410E+01 -0.1027320E+00  0.3751297E+00  0.2432934E+01  0.2848118E+00 -0.2441404E+00
 -0.3865100E+01 -0.9331190E+01 -0.1027320E+00  0.3742787E+00  0.2432442E+01  0.2840459E+00 -0.2437261E+00
 -0.2931870E+01 -0.9665100E+01 -0.1027320E+00  0.3673342E+00  0.2434747E+01  0.2793261E+00 -0.2385610E+00
 -0.1970410E+01 -0.9905930E+01 -0.1027320E+00  0.3556880E+00  0.2438362E+01  0.2713035E+00 -0.2300182E+00
 -0.9899710E+00 -0.1005140E+02 -0.1027320E+00  0.3402973E+00  0.2442806E+01  0.2605396E+00 -0.2189094E+00
  0.1204410E-06 -0.1010000E+02 -0.1027320E+00  0.3207872E+00  0.2450464E+01  0.2471751E+00 -0.2044722E+00
  0.9899760E+00 -0.1005140E+02 -0.1027320E+00  0.2962341E+00  0.2465370E+01  0.2310456E+00 -0.1853984E+00
  0.1970410E+01 -0.9905930E+01 -0.1027320E+00  0.2680821E+00  0.2488294E+01  0.2128795E+00 -0.1629428E+00
  0.2931880E+01 -0.9665100E+01 -0.1027320E+00  0.2376112E+00  0.2522435E+01  0.1935028E+00 -0.1378975E+00
  0.3865100E+01 -0.9331180E+01 -0.1027320E+00  0.2053339E+00  0.2577140E+01  0.1734829E+00 -0.1098440E+00
  0.4761110E+01 -0.8907410E+01 -0.1027320E+00  0.1717411E+00  0.2670940E+01  0.1530681E+00 -0.7787903E-01
  0.5611260E+01 -0.8397840E+01 -0.1027320E+00  0.1395723E+00  0.2828153E+01  0.1327721E+00 -0.4303468E-01
  0.6407370E+01 -0.7807410E+01 -0.1027320E+00  0.1135102E+00  0.3086920E+01  0.1133406E+00 -0.6202765E-02
  0.7141780E+01 -0.7141780E+01 -0.1027320E+00  0.1007752E+00 -0.2813516E+01  0.9540020E-01  0.3247207E-01
  0.7807410E+01 -0.6407370E+01 -0.1027320E+00  0.1080261E+00 -0.2396352E+01  0.7939108E-01  0.7325777E-01
  0.8397840E+01 -0.5611260E+01 -0.1027320E+00  0.1326935E+00 -0.2086402E+01  0.6542613E-01  0.1154426E+00
