 VARIABLES="X" "Y" "Z" "abs(eta) (m)" "angle(phi) (rad)" "PRE1" "PRE2"
ZONE N=   3200 ,E =    3136 ,F=FEPOINT,ET=QUADRILATERAL
  0.1010000E+02  0.0000000E+00  0.0000000E+00  0.1490051E+00 -0.1931791E+01  0.5262936E-01  0.1394011E+00
  0.1005140E+02  0.9899730E+00  0.0000000E+00  0.1282476E+00 -0.1986194E+01  0.5175480E-01  0.1173409E+00
  0.9905930E+01  0.1970410E+01  0.0000000E+00  0.1077997E+00 -0.2069646E+01  0.5157303E-01  0.9466255E-01
  0.9665100E+01  0.2931880E+01  0.0000000E+00  0.8869191E-01 -0.2201066E+01  0.5227171E-01  0.7165141E-01
  0.9331180E+01  0.3865100E+01  0.0000000E+00  0.7258337E-01 -0.2404414E+01  0.5373839E-01  0.4879068E-01
  0.8907400E+01  0.4761110E+01  0.0000000E+00  0.6187948E-01 -0.2704833E+01  0.5607066E-01  0.2617538E-01
  0.8397840E+01  0.5611260E+01  0.0000000E+00  0.5925050E-01 -0.3078499E+01  0.5913261E-01  0.3735842E-02
  0.7807410E+01  0.6407370E+01  0.0000000E+00  0.6542492E-01  0.2863719E+01  0.6291528E-01 -0.1794679E-01
  0.7141780E+01  0.7141780E+01  0.0000000E+00  0.7752910E-01  0.2618526E+01  0.6716281E-01 -0.3872878E-01
  0.6407370E+01  0.7807410E+01  0.0000000E+00  0.9242842E-01  0.2461454E+01  0.7186178E-01 -0.5812828E-01
  0.5611260E+01  0.8397840E+01  0.0000000E+00  0.1085454E+00  0.2357921E+01  0.7688563E-01 -0.7662059E-01
  0.4761110E+01  0.8907410E+01  0.0000000E+00  0.1243682E+00  0.2291045E+01  0.8202978E-01 -0.9348031E-01
  0.3865100E+01  0.9331180E+01  0.0000000E+00  0.1394220E+00  0.2245070E+01  0.8704539E-01 -0.1089109E+00
  0.2931870E+01  0.9665100E+01  0.0000000E+00  0.1527961E+00  0.2215343E+01  0.9180535E-01 -0.1221410E+00
  0.1970410E+01  0.9905930E+01  0.0000000E+00  0.1649842E+00  0.2193905E+01  0.9627865E-01 -0.1339784E+00
  0.9899730E+00  0.1005140E+02  0.0000000E+00  0.1751249E+00  0.2179760E+01  0.1001745E+00 -0.1436447E+00
 -0.4414850E-06  0.1010000E+02  0.0000000E+00  0.1835477E+00  0.2169222E+01  0.1034002E+00 -0.1516515E+00
 -0.9899740E+00  0.1005140E+02  0.0000000E+00  0.1893243E+00  0.2163595E+01  0.1057726E+00 -0.1570219E+00
 -0.1970410E+01  0.9905930E+01  0.0000000E+00  0.1933293E+00  0.2159700E+01  0.1073847E+00 -0.1607630E+00
 -0.2931880E+01  0.9665100E+01  0.0000000E+00  0.1948148E+00  0.2158507E+01  0.1080165E+00 -0.1621272E+00
 -0.3865100E+01  0.9331180E+01  0.0000000E+00  0.1944131E+00  0.2158445E+01  0.1077838E+00 -0.1617996E+00
 -0.4761110E+01  0.8907400E+01  0.0000000E+00  0.1911844E+00  0.2161869E+01  0.1065379E+00 -0.1587488E+00
 -0.5611260E+01  0.8397840E+01  0.0000000E+00  0.1860785E+00  0.2166787E+01  0.1044512E+00 -0.1539972E+00
 -0.6407370E+01  0.7807410E+01  0.0000000E+00  0.1785660E+00  0.2175317E+01  0.1014911E+00 -0.1469196E+00
 -0.7141780E+01  0.7141780E+01  0.0000000E+00  0.1694421E+00  0.2186965E+01  0.9792269E-01 -0.1382814E+00
 -0.7807410E+01  0.6407370E+01  0.0000000E+00  0.1579358E+00  0.2205940E+01  0.9370223E-01 -0.1271361E+00
 -0.8397840E+01  0.5611260E+01  0.0000000E+00  0.1449386E+00  0.2231979E+01  0.8899971E-01 -0.1143952E+00
 -0.8907410E+01  0.4761110E+01  0.0000000E+00  0.1303210E+00  0.2271074E+01  0.8398276E-01 -0.9965172E-01
 -0.9331180E+01  0.3865100E+01  0.0000000E+00  0.1150298E+00  0.2326976E+01  0.7892739E-01 -0.8367988E-01
 -0.9665100E+01  0.2931880E+01  0.0000000E+00  0.9894717E-01  0.2414267E+01  0.7390908E-01 -0.6578746E-01
 -0.9905930E+01  0.1970410E+01  0.0000000E+00  0.8329529E-01  0.2547289E+01  0.6901339E-01 -0.4663967E-01
 -0.1005140E+02  0.9899730E+00  0.0000000E+00  0.6962080E-01  0.2756179E+01  0.6451362E-01 -0.2617342E-01
 -0.1010000E+02 -0.8829700E-06  0.0000000E+00  0.6075552E-01  0.3058033E+01  0.6054354E-01 -0.5070787E-02
 -0.1005140E+02 -0.9899740E+00  0.0000000E+00  0.5971236E-01 -0.2853125E+01  0.5724510E-01  0.1698718E-01
 -0.9905930E+01 -0.1970410E+01  0.0000000E+00  0.6747179E-01 -0.2513188E+01  0.5458242E-01  0.3966362E-01
 -0.9665100E+01 -0.2931880E+01  0.0000000E+00  0.8193082E-01 -0.2270607E+01  0.5276946E-01  0.6267411E-01
 -0.9331180E+01 -0.3865100E+01  0.0000000E+00  0.9996050E-01 -0.2114718E+01  0.5172915E-01  0.8553477E-01
 -0.8907400E+01 -0.4761110E+01  0.0000000E+00  0.1198200E+00 -0.2015780E+01  0.5157575E-01  0.1081516E+00
 -0.8397840E+01 -0.5611260E+01  0.0000000E+00  0.1406335E+00 -0.1950945E+01  0.5218326E-01  0.1305936E+00
 -0.7807400E+01 -0.6407370E+01  0.0000000E+00  0.1614316E+00 -0.1909132E+01  0.5358199E-01  0.1522798E+00
 -0.7141780E+01 -0.7141780E+01  0.0000000E+00  0.1817574E+00 -0.1881312E+01  0.5553585E-01  0.1730651E+00
 -0.6407370E+01 -0.7807410E+01  0.0000000E+00  0.2010377E+00 -0.1863802E+01  0.5806592E-01  0.1924695E+00
 -0.5611260E+01 -0.8397850E+01  0.0000000E+00  0.2196189E+00 -0.1852421E+01  0.6103577E-01  0.2109671E+00
 -0.4761110E+01 -0.8907410E+01  0.0000000E+00  0.2367278E+00 -0.1845812E+01  0.6428635E-01  0.2278318E+00
 -0.3865100E+01 -0.9331190E+01  0.0000000E+00  0.2524774E+00 -0.1841731E+01  0.6757110E-01  0.2432673E+00
 -0.2931870E+01 -0.9665100E+01  0.0000000E+00  0.2660974E+00 -0.1840145E+01  0.7080945E-01  0.2565031E+00
 -0.1970410E+01 -0.9905930E+01  0.0000000E+00  0.2783464E+00 -0.1839671E+01  0.7394173E-01  0.2683455E+00
 -0.9899710E+00 -0.1005140E+02  0.0000000E+00  0.2884080E+00 -0.1840059E+01  0.7672243E-01  0.2780159E+00
  0.1204410E-06 -0.1010000E+02  0.0000000E+00  0.2967464E+00 -0.1840418E+01  0.7904334E-01  0.2860255E+00
  0.9899760E+00 -0.1005140E+02  0.0000000E+00  0.3023873E+00 -0.1841197E+01  0.8077297E-01  0.2913997E+00
  0.1970410E+01 -0.9905930E+01  0.0000000E+00  0.3063115E+00 -0.1841670E+01  0.8196089E-01  0.2951426E+00
  0.2931880E+01 -0.9665100E+01  0.0000000E+00  0.3077508E+00 -0.1841941E+01  0.8242614E-01  0.2965072E+00
  0.3865100E+01 -0.9331180E+01  0.0000000E+00  0.3073883E+00 -0.1841682E+01  0.8225261E-01  0.2961791E+00
  0.4761110E+01 -0.8907410E+01  0.0000000E+00  0.3042032E+00 -0.1841478E+01  0.8134032E-01  0.2931269E+00
  0.5611260E+01 -0.8397840E+01  0.0000000E+00  0.2992139E+00 -0.1840801E+01  0.7981123E-01  0.2883733E+00
  0.6407370E+01 -0.7807410E+01  0.0000000E+00  0.2918156E+00 -0.1840163E+01  0.7765828E-01  0.2812926E+00
  0.7141780E+01 -0.7141780E+01  0.0000000E+00  0.2828048E+00 -0.1839590E+01  0.7510400E-01  0.2726499E+00
  0.7807410E+01 -0.6407370E+01  0.0000000E+00  0.2712692E+00 -0.1839981E+01  0.7214275E-01  0.2615003E+00
  0.8397840E+01 -0.5611260E+01  0.0000000E+00  0.2581185E+00 -0.1840982E+01  0.6889445E-01  0.2487543E+00
  0.8907410E+01 -0.4761110E+01  0.0000000E+00  0.2430094E+00 -0.1843860E+01  0.6553540E-01  0.2340058E+00
  0.9331180E+01 -0.3865100E+01  0.0000000E+00  0.2267527E+00 -0.1849100E+01  0.6229465E-01  0.2180279E+00
  0.9665100E+01 -0.2931870E+01  0.0000000E+00  0.2087229E+00 -0.1858722E+01  0.5926988E-01  0.2001308E+00
  0.9905930E+01 -0.1970410E+01  0.0000000E+00  0.1895936E+00 -0.1873422E+01  0.5650416E-01  0.1809780E+00
  0.1005140E+02 -0.9899690E+00  0.0000000E+00  0.1694311E+00 -0.1896791E+01  0.5426054E-01  0.1605076E+00
  0.1010000E+02  0.0000000E+00 -0.2568960E-01  0.1489124E+00 -0.1931723E+01  0.5258714E-01  0.1393180E+00
  0.1005140E+02  0.9899730E+00 -0.2568960E-01  0.1281629E+00 -0.1986150E+01  0.5171547E-01  0.1172657E+00
  0.9905930E+01  0.1970410E+01 -0.2568960E-01  0.1077207E+00 -0.2069876E+01  0.5155700E-01  0.9458131E-01
  0.9665100E+01  0.2931880E+01 -0.2568960E-01  0.8862643E-01 -0.2201047E+01  0.5223177E-01  0.7159948E-01
  0.9331180E+01  0.3865100E+01 -0.2568960E-01  0.7252426E-01 -0.2404408E+01  0.5369433E-01  0.4875128E-01
  0.8907400E+01  0.4761110E+01 -0.2568960E-01  0.6183079E-01 -0.2704892E+01  0.5602810E-01  0.2615145E-01
  0.8397840E+01  0.5611260E+01 -0.2568960E-01  0.5922748E-01 -0.3077997E+01  0.5910775E-01  0.3764067E-02
  0.7807410E+01  0.6407370E+01 -0.2568960E-01  0.6538113E-01  0.2863504E+01  0.6286931E-01 -0.1794832E-01
  0.7141780E+01  0.7141780E+01 -0.2568960E-01  0.7748403E-01  0.2618238E+01  0.6711260E-01 -0.3872563E-01
  0.6407370E+01  0.7807410E+01 -0.2568960E-01  0.9237357E-01  0.2461298E+01  0.7181007E-01 -0.5810500E-01
  0.5611260E+01  0.8397840E+01 -0.2568960E-01  0.1084218E+00  0.2358400E+01  0.7683468E-01 -0.7649656E-01
  0.4761110E+01  0.8907410E+01 -0.2568960E-01  0.1242999E+00  0.2290925E+01  0.8197348E-01 -0.9343877E-01
  0.3865100E+01  0.9331180E+01 -0.2568960E-01  0.1393560E+00  0.2244910E+01  0.8698670E-01 -0.1088733E+00
  0.2931870E+01  0.9665100E+01 -0.2568960E-01  0.1527109E+00  0.2215249E+01  0.9174279E-01 -0.1220815E+00
  0.1970410E+01  0.9905930E+01 -0.2568960E-01  0.1647819E+00  0.2194190E+01  0.9619872E-01 -0.1337867E+00
  0.9899730E+00  0.1005140E+02 -0.2568960E-01  0.1750293E+00  0.2179679E+01  0.1001082E+00 -0.1435743E+00
 -0.4414850E-06  0.1010000E+02 -0.2568960E-01  0.1834619E+00  0.2169109E+01  0.1033348E+00 -0.1515923E+00
 -0.9899740E+00  0.1005140E+02 -0.2568960E-01  0.1892202E+00  0.2163522E+01  0.1057029E+00 -0.1569432E+00
 -0.1970410E+01  0.9905930E+01 -0.2568960E-01  0.1930901E+00  0.2159923E+01  0.1072877E+00 -0.1605402E+00
 -0.2931880E+01  0.9665100E+01 -0.2568960E-01  0.1947074E+00  0.2158437E+01  0.1079456E+00 -0.1620454E+00
 -0.3865100E+01  0.9331180E+01 -0.2568960E-01  0.1943225E+00  0.2158340E+01  0.1077165E+00 -0.1617356E+00
 -0.4761110E+01  0.8907400E+01 -0.2568960E-01  0.1910798E+00  0.2161797E+01  0.1064682E+00 -0.1586695E+00
 -0.5611260E+01  0.8397840E+01 -0.2568960E-01  0.1858484E+00  0.2167024E+01  0.1043586E+00 -0.1537821E+00
 -0.6407370E+01  0.7807410E+01 -0.2568960E-01  0.1784678E+00  0.2175237E+01  0.1014236E+00 -0.1468469E+00
 -0.7141780E+01  0.7141780E+01 -0.2568960E-01  0.1693634E+00  0.2186838E+01  0.9785962E-01 -0.1382297E+00
 -0.7807410E+01  0.6407370E+01 -0.2568960E-01  0.1578499E+00  0.2205848E+01  0.9363952E-01 -0.1270757E+00
 -0.8397840E+01  0.5611260E+01 -0.2568960E-01  0.1447631E+00  0.2232320E+01  0.8893084E-01 -0.1142263E+00
 -0.8907410E+01  0.4761110E+01 -0.2568960E-01  0.1302485E+00  0.2270961E+01  0.8392476E-01 -0.9960575E-01
 -0.9331180E+01  0.3865100E+01 -0.2568960E-01  0.1149736E+00  0.2326774E+01  0.7887197E-01 -0.8365490E-01
 -0.9665100E+01  0.2931880E+01 -0.2568960E-01  0.9889155E-01  0.2414109E+01  0.7385720E-01 -0.6576209E-01
 -0.9905930E+01  0.1970410E+01 -0.2568960E-01  0.8321344E-01  0.2547909E+01  0.6897443E-01 -0.4655111E-01
 -0.1005140E+02  0.9899730E+00 -0.2568960E-01  0.6957489E-01  0.2755992E+01  0.6446619E-01 -0.2616822E-01
 -0.1010000E+02 -0.8829700E-06 -0.2568960E-01  0.6070964E-01  0.3057748E+01  0.6049637E-01 -0.5084204E-02
 -0.1005140E+02 -0.9899740E+00 -0.2568960E-01  0.5966502E-01 -0.2853261E+01  0.5720202E-01  0.1696596E-01
 -0.9905930E+01 -0.1970410E+01 -0.2568960E-01  0.6744774E-01 -0.2513203E+01  0.5456354E-01  0.3964866E-01
 -0.9665100E+01 -0.2931880E+01 -0.2568960E-01  0.8187077E-01 -0.2270582E+01  0.5272916E-01  0.6262954E-01
 -0.9331180E+01 -0.3865100E+01 -0.2568960E-01  0.9988955E-01 -0.2114648E+01  0.5168640E-01  0.8547771E-01
 -0.8907400E+01 -0.4761110E+01 -0.2568960E-01  0.1197377E+00 -0.2015744E+01  0.5153633E-01  0.1080792E+00
 -0.8397840E+01 -0.5611260E+01 -0.2568960E-01  0.1405111E+00 -0.1951150E+01  0.5216461E-01  0.1304692E+00
 -0.7807400E+01 -0.6407370E+01 -0.2568960E-01  0.1613290E+00 -0.1909094E+01  0.5354213E-01  0.1521851E+00
 -0.7141780E+01 -0.7141780E+01 -0.2568960E-01  0.1816496E+00 -0.1881254E+01  0.5549299E-01  0.1729657E+00
 -0.6407370E+01 -0.7807410E+01 -0.2568960E-01  0.2009110E+00 -0.1863772E+01  0.5802361E-01  0.1923499E+00
 -0.5611260E+01 -0.8397850E+01 -0.2568960E-01  0.2193971E+00 -0.1852542E+01  0.6099962E-01  0.2107466E+00
 -0.4761110E+01 -0.8907410E+01 -0.2568960E-01  0.2365831E+00 -0.1845789E+01  0.6424171E-01  0.2276940E+00
 -0.3865100E+01 -0.9331190E+01 -0.2568960E-01  0.2523358E+00 -0.1841695E+01  0.6752442E-01  0.2431333E+00
 -0.2931870E+01 -0.9665100E+01 -0.2568960E-01  0.2659343E+00 -0.1840125E+01  0.7076094E-01  0.2563474E+00
 -0.1970410E+01 -0.9905930E+01 -0.2568960E-01  0.2780527E+00 -0.1839740E+01  0.7388226E-01  0.2680573E+00
 -0.9899710E+00 -0.1005140E+02 -0.2568960E-01  0.2882336E+00 -0.1840042E+01  0.7667140E-01  0.2778491E+00
  0.1204410E-06 -0.1010000E+02 -0.2568960E-01  0.2965838E+00 -0.1840393E+01  0.7899300E-01  0.2858707E+00
  0.9899760E+00 -0.1005140E+02 -0.2568960E-01  0.3022043E+00 -0.1841182E+01  0.8071961E-01  0.2912247E+00
  0.1970410E+01 -0.9905930E+01 -0.2568960E-01  0.3059840E+00 -0.1841718E+01  0.8188725E-01  0.2948232E+00
  0.2931880E+01 -0.9665100E+01 -0.2568960E-01  0.3075651E+00 -0.1841925E+01  0.8237176E-01  0.2963295E+00
  0.3865100E+01 -0.9331180E+01 -0.2568960E-01  0.3072199E+00 -0.1841660E+01  0.8220094E-01  0.2960187E+00
  0.4761110E+01 -0.8907410E+01 -0.2568960E-01  0.3040196E+00 -0.1841463E+01  0.8128691E-01  0.2929511E+00
  0.5611260E+01 -0.8397840E+01 -0.2568960E-01  0.2988951E+00 -0.1840854E+01  0.7974129E-01  0.2880618E+00
  0.6407370E+01 -0.7807410E+01 -0.2568960E-01  0.2916386E+00 -0.1840146E+01  0.7760628E-01  0.2811233E+00
  0.7141780E+01 -0.7141780E+01 -0.2568960E-01  0.2826487E+00 -0.1839561E+01  0.7505475E-01  0.2725016E+00
  0.7807410E+01 -0.6407370E+01 -0.2568960E-01  0.2711050E+00 -0.1839962E+01  0.7209412E-01  0.2613434E+00
  0.8397840E+01 -0.5611260E+01 -0.2568960E-01  0.2578493E+00 -0.1841068E+01  0.6884395E-01  0.2484890E+00
  0.8907410E+01 -0.4761110E+01 -0.2568960E-01  0.2428595E+00 -0.1843836E+01  0.6548953E-01  0.2338629E+00
  0.9331180E+01 -0.3865100E+01 -0.2568960E-01  0.2266235E+00 -0.1849057E+01  0.6224976E-01  0.2179064E+00
  0.9665100E+01 -0.2931870E+01 -0.2568960E-01  0.2085940E+00 -0.1858694E+01  0.5922758E-01  0.2000089E+00
  0.9905930E+01 -0.1970410E+01 -0.2568960E-01  0.1894090E+00 -0.1873574E+01  0.5647653E-01  0.1807932E+00
  0.1005140E+02 -0.9899690E+00 -0.2568960E-01  0.1693217E+00 -0.1896755E+01  0.5421978E-01  0.1604059E+00
  0.1010000E+02  0.0000000E+00 -0.1027320E+00  0.1486185E+00 -0.1931583E+01  0.5246389E-01  0.1390503E+00
  0.1005140E+02  0.9899730E+00 -0.1027320E+00  0.1278983E+00 -0.1986089E+01  0.5160152E-01  0.1170268E+00
  0.9905930E+01  0.1970410E+01 -0.1027320E+00  0.1074893E+00 -0.2069978E+01  0.5145588E-01  0.9437291E-01
  0.9665100E+01  0.2931880E+01 -0.1027320E+00  0.8843152E-01 -0.2201030E+01  0.5211570E-01  0.7144290E-01
  0.9331180E+01  0.3865100E+01 -0.1027320E+00  0.7235331E-01 -0.2404374E+01  0.5356614E-01  0.4863816E-01
  0.8907400E+01  0.4761110E+01 -0.1027320E+00  0.6169274E-01 -0.2704940E+01  0.5590425E-01  0.2609040E-01
  0.8397840E+01  0.5611260E+01 -0.1027320E+00  0.5910962E-01 -0.3077820E+01  0.5898947E-01  0.3767017E-02
  0.7807410E+01  0.6407370E+01 -0.1027320E+00  0.6524622E-01  0.2863209E+01  0.6273431E-01 -0.1792976E-01
  0.7141780E+01  0.7141780E+01 -0.1027320E+00  0.7733742E-01  0.2617690E+01  0.6696441E-01 -0.3868908E-01
  0.6407370E+01  0.7807410E+01 -0.1027320E+00  0.9219026E-01  0.2461129E+01  0.7165774E-01 -0.5800183E-01
  0.5611260E+01  0.8397840E+01 -0.1027320E+00  0.1081756E+00  0.2358610E+01  0.7667623E-01 -0.7630666E-01
  0.4761110E+01  0.8907410E+01 -0.1027320E+00  0.1240633E+00  0.2290796E+01  0.8180541E-01 -0.9327152E-01
  0.3865100E+01  0.9331180E+01 -0.1027320E+00  0.1391234E+00  0.2244634E+01  0.8681159E-01 -0.1087156E+00
  0.2931870E+01  0.9665100E+01 -0.1027320E+00  0.1524164E+00  0.2215169E+01  0.9155614E-01 -0.1218533E+00
  0.1970410E+01  0.9905930E+01 -0.1027320E+00  0.1644009E+00  0.2194339E+01  0.9599607E-01 -0.1334632E+00
  0.9899730E+00  0.1005140E+02 -0.1027320E+00  0.1746953E+00  0.2179619E+01  0.9990852E-01 -0.1433064E+00
 -0.4414850E-06  0.1010000E+02 -0.1027320E+00  0.1831588E+00  0.2168938E+01  0.1031381E+00 -0.1513595E+00
 -0.9899740E+00  0.1005140E+02 -0.1027320E+00  0.1888565E+00  0.2163475E+01  0.1054923E+00 -0.1566466E+00
 -0.1970410E+01  0.9905930E+01 -0.1027320E+00  0.1926421E+00  0.2160055E+01  0.1070598E+00 -0.1601536E+00
 -0.2931880E+01  0.9665100E+01 -0.1027320E+00  0.1943349E+00  0.2158394E+01  0.1077321E+00 -0.1617401E+00
 -0.3865100E+01  0.9331180E+01 -0.1027320E+00  0.1940019E+00  0.2158187E+01  0.1075141E+00 -0.1614851E+00
 -0.4761110E+01  0.8907400E+01 -0.1027320E+00  0.1907144E+00  0.2161749E+01  0.1062570E+00 -0.1583712E+00
 -0.5611260E+01  0.8397840E+01 -0.1027320E+00  0.1854176E+00  0.2167160E+01  0.1041374E+00 -0.1534115E+00
 -0.6407370E+01  0.7807410E+01 -0.1027320E+00  0.1781248E+00  0.2175181E+01  0.1012204E+00 -0.1465704E+00
 -0.7141780E+01  0.7141780E+01 -0.1027320E+00  0.1690830E+00  0.2186639E+01  0.9767020E-01 -0.1380203E+00
 -0.7807410E+01  0.6407370E+01 -0.1027320E+00  0.1575491E+00  0.2205768E+01  0.9345104E-01 -0.1268410E+00
 -0.8397840E+01  0.5611260E+01 -0.1027320E+00  0.1444293E+00  0.2232486E+01  0.8874471E-01 -0.1139483E+00
 -0.8907410E+01  0.4761110E+01 -0.1027320E+00  0.1299955E+00  0.2270854E+01  0.8375113E-01 -0.9942120E-01
 -0.9331180E+01  0.3865100E+01 -0.1027320E+00  0.1147778E+00  0.2326418E+01  0.7870788E-01 -0.8354048E-01
 -0.9665100E+01  0.2931880E+01 -0.1027320E+00  0.9870146E-01  0.2413925E+01  0.7370315E-01 -0.6564926E-01
 -0.9905930E+01  0.1970410E+01 -0.1027320E+00  0.8302955E-01  0.2548163E+01  0.6883381E-01 -0.4643072E-01
 -0.1005140E+02  0.9899730E+00 -0.1027320E+00  0.6943033E-01  0.2755786E+01  0.6432687E-01 -0.2612709E-01
 -0.1010000E+02 -0.8829700E-06 -0.1027320E+00  0.6057316E-01  0.3057212E+01  0.6035765E-01 -0.5105133E-02
 -0.1005140E+02 -0.9899740E+00 -0.1027320E+00  0.5953109E-01 -0.2853468E+01  0.5707712E-01  0.1691604E-01
 -0.9905930E+01 -0.1970410E+01 -0.1027320E+00  0.6731315E-01 -0.2513229E+01  0.5445569E-01  0.3956815E-01
 -0.9665100E+01 -0.2931880E+01 -0.1027320E+00  0.8169426E-01 -0.2270525E+01  0.5261195E-01  0.6249747E-01
 -0.9331180E+01 -0.3865100E+01 -0.1027320E+00  0.9967484E-01 -0.2114492E+01  0.5156203E-01  0.8530200E-01
 -0.8907400E+01 -0.4761110E+01 -0.1027320E+00  0.1194829E+00 -0.2015699E+01  0.5142188E-01  0.1078515E+00
 -0.8397840E+01 -0.5611260E+01 -0.1027320E+00  0.1402020E+00 -0.1951244E+01  0.5206209E-01  0.1301773E+00
 -0.7807400E+01 -0.6407370E+01 -0.1027320E+00  0.1610005E+00 -0.1909049E+01  0.5342628E-01  0.1518776E+00
 -0.7141780E+01 -0.7141780E+01 -0.1027320E+00  0.1813016E+00 -0.1881144E+01  0.5536757E-01  0.1726404E+00
 -0.6407370E+01 -0.7807410E+01 -0.1027320E+00  0.2005000E+00 -0.1863746E+01  0.5789997E-01  0.1919579E+00
 -0.5611260E+01 -0.8397850E+01 -0.1027320E+00  0.2189027E+00 -0.1852609E+01  0.6087619E-01  0.2102677E+00
 -0.4761110E+01 -0.8907410E+01 -0.1027320E+00  0.2361083E+00 -0.1845777E+01  0.6411004E-01  0.2272378E+00
 -0.3865100E+01 -0.9331190E+01 -0.1027320E+00  0.2518689E+00 -0.1841645E+01  0.6738744E-01  0.2426868E+00
 -0.2931870E+01 -0.9665100E+01 -0.1027320E+00  0.2653976E+00 -0.1840122E+01  0.7061743E-01  0.2558302E+00
 -0.1970410E+01 -0.9905930E+01 -0.1027320E+00  0.2774220E+00 -0.1839794E+01  0.7372924E-01  0.2674452E+00
 -0.9899710E+00 -0.1005140E+02 -0.1027320E+00  0.2876574E+00 -0.1840049E+01  0.7652000E-01  0.2772931E+00
  0.1204410E-06 -0.1010000E+02 -0.1027320E+00  0.2960410E+00 -0.1840378E+01  0.7884408E-01  0.2853487E+00
  0.9899760E+00 -0.1005140E+02 -0.1027320E+00  0.3015981E+00 -0.1841192E+01  0.8056078E-01  0.2906396E+00
  0.1970410E+01 -0.9905930E+01 -0.1027320E+00  0.3052882E+00 -0.1841768E+01  0.8171584E-01  0.2941486E+00
  0.2931880E+01 -0.9665100E+01 -0.1027320E+00  0.3069492E+00 -0.1841938E+01  0.8221082E-01  0.2957350E+00
  0.3865100E+01 -0.9331180E+01 -0.1027320E+00  0.3066593E+00 -0.1841653E+01  0.8204877E-01  0.2954792E+00
  0.4761110E+01 -0.8907410E+01 -0.1027320E+00  0.3034115E+00 -0.1841475E+01  0.8112773E-01  0.2923642E+00
  0.5611260E+01 -0.8397840E+01 -0.1027320E+00  0.2982154E+00 -0.1840906E+01  0.7957496E-01  0.2874025E+00
  0.6407370E+01 -0.7807410E+01 -0.1027320E+00  0.2910523E+00 -0.1840152E+01  0.7745213E-01  0.2805577E+00
  0.7141780E+01 -0.7141780E+01 -0.1027320E+00  0.2821301E+00 -0.1839536E+01  0.7491019E-01  0.2720034E+00
  0.7807410E+01 -0.6407370E+01 -0.1027320E+00  0.2705622E+00 -0.1839963E+01  0.7195012E-01  0.2608200E+00
  0.8397840E+01 -0.5611260E+01 -0.1027320E+00  0.2572654E+00 -0.1841126E+01  0.6870256E-01  0.2479222E+00
