 VARIABLES="X" "Y" "Z" "abs(eta) (m)" "angle(phi) (rad)" "PRE1" "PRE2"
ZONE N=   3200 ,E =    3136 ,F=FEPOINT,ET=QUADRILATERAL
  0.1010000E+02  0.0000000E+00  0.0000000E+00  0.3873394E+00 -0.1748182E+01  0.6834883E-01  0.3812613E+00
  0.1005140E+02  0.9899730E+00  0.0000000E+00  0.3619166E+00 -0.1746584E+01  0.6329332E-01  0.3563392E+00
  0.9905930E+01  0.1970410E+01  0.0000000E+00  0.3336385E+00 -0.1747942E+01  0.5879399E-01  0.3284173E+00
  0.9665100E+01  0.2931880E+01  0.0000000E+00  0.3036643E+00 -0.1753519E+01  0.5517807E-01  0.2986091E+00
  0.9331180E+01  0.3865100E+01  0.0000000E+00  0.2720762E+00 -0.1766667E+01  0.5295165E-01  0.2668737E+00
  0.8907400E+01  0.4761110E+01  0.0000000E+00  0.2395175E+00 -0.1790004E+01  0.5208458E-01  0.2337858E+00
  0.8397840E+01  0.5611260E+01  0.0000000E+00  0.2059259E+00 -0.1830593E+01  0.5289903E-01  0.1990155E+00
  0.7807410E+01  0.6407370E+01  0.0000000E+00  0.1726465E+00 -0.1897191E+01  0.5535559E-01  0.1635315E+00
  0.7141780E+01  0.7141780E+01  0.0000000E+00  0.1411498E+00 -0.2007943E+01  0.5975663E-01  0.1278766E+00
  0.6407370E+01  0.7807410E+01  0.0000000E+00  0.1133147E+00 -0.2190789E+01  0.6583920E-01  0.9222484E-01
  0.5611260E+01  0.8397840E+01  0.0000000E+00  0.9310272E-01 -0.2485904E+01  0.7379586E-01  0.5676521E-01
  0.4761110E+01  0.8907410E+01  0.0000000E+00  0.8607522E-01 -0.2882789E+01  0.8320864E-01  0.2202872E-01
  0.3865100E+01  0.9331180E+01  0.0000000E+00  0.9458633E-01  0.3024961E+01  0.9394372E-01 -0.1100682E-01
  0.2931870E+01  0.9665100E+01  0.0000000E+00  0.1139690E+00  0.2757676E+01  0.1056726E+00 -0.4268764E-01
  0.1970410E+01  0.9905930E+01  0.0000000E+00  0.1387125E+00  0.2592248E+01  0.1183033E+00 -0.7242572E-01
  0.9899730E+00  0.1005140E+02  0.0000000E+00  0.1652000E+00  0.2489316E+01  0.1312850E+00 -0.1002760E+00
 -0.4414850E-06  0.1010000E+02  0.0000000E+00  0.1908325E+00  0.2426552E+01  0.1440913E+00 -0.1251189E+00
 -0.9899740E+00  0.1005140E+02  0.0000000E+00  0.2152646E+00  0.2385144E+01  0.1565572E+00 -0.1477453E+00
 -0.1970410E+01  0.9905930E+01  0.0000000E+00  0.2373298E+00  0.2359195E+01  0.1683203E+00 -0.1673132E+00
 -0.2931880E+01  0.9665100E+01  0.0000000E+00  0.2570631E+00  0.2341336E+01  0.1790503E+00 -0.1844517E+00
 -0.3865100E+01  0.9331180E+01  0.0000000E+00  0.2730947E+00  0.2330484E+01  0.1880790E+00 -0.1980077E+00
 -0.4761110E+01  0.8907400E+01  0.0000000E+00  0.2862459E+00  0.2322834E+01  0.1955427E+00 -0.2090449E+00
 -0.5611260E+01  0.8397840E+01  0.0000000E+00  0.2954293E+00  0.2318874E+01  0.2009601E+00 -0.2165490E+00
 -0.6407370E+01  0.7807410E+01  0.0000000E+00  0.3014163E+00  0.2316138E+01  0.2044275E+00 -0.2214976E+00
 -0.7141780E+01  0.7141780E+01  0.0000000E+00  0.3030553E+00  0.2315752E+01  0.2054530E+00 -0.2227814E+00
 -0.7807410E+01  0.6407370E+01  0.0000000E+00  0.3014161E+00  0.2316138E+01  0.2044273E+00 -0.2214975E+00
 -0.8397840E+01  0.5611260E+01  0.0000000E+00  0.2954292E+00  0.2318872E+01  0.2009597E+00 -0.2165493E+00
 -0.8907410E+01  0.4761110E+01  0.0000000E+00  0.2862457E+00  0.2322835E+01  0.1955427E+00 -0.2090447E+00
 -0.9331180E+01  0.3865100E+01  0.0000000E+00  0.2730950E+00  0.2330484E+01  0.1880792E+00 -0.1980077E+00
 -0.9665100E+01  0.2931880E+01  0.0000000E+00  0.2570639E+00  0.2341338E+01  0.1790511E+00 -0.1844520E+00
 -0.9905930E+01  0.1970410E+01  0.0000000E+00  0.2373299E+00  0.2359195E+01  0.1683205E+00 -0.1673132E+00
 -0.1005140E+02  0.9899730E+00  0.0000000E+00  0.2152649E+00  0.2385144E+01  0.1565574E+00 -0.1477457E+00
 -0.1010000E+02 -0.8829700E-06  0.0000000E+00  0.1908329E+00  0.2426551E+01  0.1440914E+00 -0.1251193E+00
 -0.1005140E+02 -0.9899740E+00  0.0000000E+00  0.1652005E+00  0.2489314E+01  0.1312852E+00 -0.1002765E+00
 -0.9905930E+01 -0.1970410E+01  0.0000000E+00  0.1387130E+00  0.2592247E+01  0.1183036E+00 -0.7242608E-01
 -0.9665100E+01 -0.2931880E+01  0.0000000E+00  0.1139692E+00  0.2757677E+01  0.1056728E+00 -0.4268764E-01
 -0.9331180E+01 -0.3865100E+01  0.0000000E+00  0.9458636E-01  0.3024958E+01  0.9394374E-01 -0.1100701E-01
 -0.8907400E+01 -0.4761110E+01  0.0000000E+00  0.8607541E-01 -0.2882792E+01  0.8320889E-01  0.2202856E-01
 -0.8397840E+01 -0.5611260E+01  0.0000000E+00  0.9310270E-01 -0.2485907E+01  0.7379598E-01  0.5676501E-01
 -0.7807400E+01 -0.6407370E+01  0.0000000E+00  0.1133148E+00 -0.2190790E+01  0.6583932E-01  0.9222484E-01
 -0.7141780E+01 -0.7141780E+01  0.0000000E+00  0.1411497E+00 -0.2007943E+01  0.5975659E-01  0.1278764E+00
 -0.6407370E+01 -0.7807410E+01  0.0000000E+00  0.1726462E+00 -0.1897191E+01  0.5535563E-01  0.1635313E+00
 -0.5611260E+01 -0.8397850E+01  0.0000000E+00  0.2059259E+00 -0.1830592E+01  0.5289894E-01  0.1990155E+00
 -0.4761110E+01 -0.8907410E+01  0.0000000E+00  0.2395175E+00 -0.1790004E+01  0.5208452E-01  0.2337859E+00
 -0.3865100E+01 -0.9331190E+01  0.0000000E+00  0.2720761E+00 -0.1766667E+01  0.5295171E-01  0.2668736E+00
 -0.2931870E+01 -0.9665100E+01  0.0000000E+00  0.3036644E+00 -0.1753519E+01  0.5517818E-01  0.2986092E+00
 -0.1970410E+01 -0.9905930E+01  0.0000000E+00  0.3336383E+00 -0.1747943E+01  0.5879427E-01  0.3284171E+00
 -0.9899710E+00 -0.1005140E+02  0.0000000E+00  0.3619166E+00 -0.1746584E+01  0.6329340E-01  0.3563391E+00
  0.1204410E-06 -0.1010000E+02  0.0000000E+00  0.3873391E+00 -0.1748183E+01  0.6834906E-01  0.3812611E+00
  0.9899760E+00 -0.1005140E+02  0.0000000E+00  0.4106348E+00 -0.1751354E+01  0.7374091E-01  0.4039595E+00
  0.1970410E+01 -0.9905930E+01  0.0000000E+00  0.4309541E+00 -0.1755769E+01  0.7926101E-01  0.4236025E+00
  0.2931880E+01 -0.9665100E+01  0.0000000E+00  0.4488411E+00 -0.1760288E+01  0.8454354E-01  0.4408069E+00
  0.3865100E+01 -0.9331180E+01  0.0000000E+00  0.4630817E+00 -0.1764452E+01  0.8911897E-01  0.4544255E+00
  0.4761110E+01 -0.8907410E+01  0.0000000E+00  0.4747085E+00 -0.1768009E+01  0.9301297E-01  0.4655070E+00
  0.5611260E+01 -0.8397840E+01  0.0000000E+00  0.4826739E+00 -0.1770829E+01  0.9590819E-01  0.4730494E+00
  0.6407370E+01 -0.7807410E+01  0.0000000E+00  0.4879186E+00 -0.1772591E+01  0.9779242E-01  0.4780180E+00
  0.7141780E+01 -0.7141780E+01  0.0000000E+00  0.4892971E+00 -0.1773156E+01  0.9833966E-01  0.4793130E+00
  0.7807410E+01 -0.6407370E+01  0.0000000E+00  0.4879190E+00 -0.1772591E+01  0.9779238E-01  0.4780184E+00
  0.8397840E+01 -0.5611260E+01  0.0000000E+00  0.4826739E+00 -0.1770830E+01  0.9590841E-01  0.4730493E+00
  0.8907410E+01 -0.4761110E+01  0.0000000E+00  0.4747081E+00 -0.1768009E+01  0.9301276E-01  0.4655066E+00
  0.9331180E+01 -0.3865100E+01  0.0000000E+00  0.4630815E+00 -0.1764452E+01  0.8911888E-01  0.4544252E+00
  0.9665100E+01 -0.2931870E+01  0.0000000E+00  0.4488409E+00 -0.1760288E+01  0.8454355E-01  0.4408067E+00
  0.9905930E+01 -0.1970410E+01  0.0000000E+00  0.4309542E+00 -0.1755768E+01  0.7926062E-01  0.4236028E+00
  0.1005140E+02 -0.9899690E+00  0.0000000E+00  0.4106348E+00 -0.1751354E+01  0.7374106E-01  0.4039594E+00
  0.1010000E+02  0.0000000E+00 -0.2568960E-01  0.3869300E+00 -0.1748180E+01  0.6827559E-01  0.3808586E+00
  0.1005140E+02  0.9899730E+00 -0.2568960E-01  0.3614809E+00 -0.1746610E+01  0.6322632E-01  0.3559085E+00
  0.9905930E+01  0.1970410E+01 -0.2568960E-01  0.3332166E+00 -0.1747986E+01  0.5873398E-01  0.3279995E+00
  0.9665100E+01  0.2931880E+01 -0.2568960E-01  0.3032994E+00 -0.1753537E+01  0.5511726E-01  0.2982492E+00
  0.9331180E+01  0.3865100E+01 -0.2568960E-01  0.2717833E+00 -0.1766611E+01  0.5287970E-01  0.2665893E+00
  0.8907400E+01  0.4761110E+01 -0.2568960E-01  0.2392365E+00 -0.1790017E+01  0.5202660E-01  0.2335109E+00
  0.8397840E+01  0.5611260E+01 -0.2568960E-01  0.2056798E+00 -0.1830648E+01  0.5284680E-01  0.1987747E+00
  0.7807410E+01  0.6407370E+01 -0.2568960E-01  0.1724460E+00 -0.1897198E+01  0.5529250E-01  0.1633413E+00
  0.7141780E+01  0.7141780E+01 -0.2568960E-01  0.1409830E+00 -0.2007827E+01  0.5967116E-01  0.1277324E+00
  0.6407370E+01  0.7807410E+01 -0.2568960E-01  0.1131915E+00 -0.2190744E+01  0.6576340E-01  0.9212753E-01
  0.5611260E+01  0.8397840E+01 -0.2568960E-01  0.9301241E-01 -0.2485786E+01  0.7371758E-01  0.5671885E-01
  0.4761110E+01  0.8907410E+01 -0.2568960E-01  0.8598066E-01 -0.2882648E+01  0.8311412E-01  0.2201629E-01
  0.3865100E+01  0.9331180E+01 -0.2568960E-01  0.9447149E-01  0.3024779E+01  0.9382766E-01 -0.1101053E-01
  0.2931870E+01  0.9665100E+01 -0.2568960E-01  0.1138299E+00  0.2757866E+01  0.1055517E+00 -0.4261550E-01
  0.1970410E+01  0.9905930E+01 -0.2568960E-01  0.1385309E+00  0.2592548E+01  0.1181701E+00 -0.7229545E-01
  0.9899730E+00  0.1005140E+02 -0.2568960E-01  0.1649966E+00  0.2489459E+01  0.1311377E+00 -0.1001337E+00
 -0.4414850E-06  0.1010000E+02 -0.2568960E-01  0.1906405E+00  0.2426471E+01  0.1439361E+00 -0.1250048E+00
 -0.9899740E+00  0.1005140E+02 -0.2568960E-01  0.2149952E+00  0.2385276E+01  0.1563807E+00 -0.1475398E+00
 -0.1970410E+01  0.9905930E+01 -0.2568960E-01  0.2370068E+00  0.2359395E+01  0.1681246E+00 -0.1670519E+00
 -0.2931880E+01  0.9665100E+01 -0.2568960E-01  0.2567443E+00  0.2341460E+01  0.1788510E+00 -0.1842008E+00
 -0.3865100E+01  0.9331180E+01 -0.2568960E-01  0.2728260E+00  0.2330469E+01  0.1878909E+00 -0.1978157E+00
 -0.4761110E+01  0.8907400E+01 -0.2568960E-01  0.2858890E+00  0.2322954E+01  0.1953240E+00 -0.2087608E+00
 -0.5611260E+01  0.8397840E+01 -0.2568960E-01  0.2950268E+00  0.2319047E+01  0.2007238E+00 -0.2162193E+00
 -0.6407370E+01  0.7807410E+01 -0.2568960E-01  0.3010415E+00  0.2316258E+01  0.2041998E+00 -0.2211976E+00
 -0.7141780E+01  0.7141780E+01 -0.2568960E-01  0.3027588E+00  0.2315755E+01  0.2052527E+00 -0.2225628E+00
 -0.7807410E+01  0.6407370E+01 -0.2568960E-01  0.3010418E+00  0.2316257E+01  0.2041998E+00 -0.2211981E+00
 -0.8397840E+01  0.5611260E+01 -0.2568960E-01  0.2950273E+00  0.2319046E+01  0.2007239E+00 -0.2162198E+00
 -0.8907410E+01  0.4761110E+01 -0.2568960E-01  0.2858889E+00  0.2322955E+01  0.1953241E+00 -0.2087606E+00
 -0.9331180E+01  0.3865100E+01 -0.2568960E-01  0.2728266E+00  0.2330470E+01  0.1878915E+00 -0.1978159E+00
 -0.9665100E+01  0.2931880E+01 -0.2568960E-01  0.2567446E+00  0.2341461E+01  0.1788515E+00 -0.1842007E+00
 -0.9905930E+01  0.1970410E+01 -0.2568960E-01  0.2370072E+00  0.2359394E+01  0.1681248E+00 -0.1670523E+00
 -0.1005140E+02  0.9899730E+00 -0.2568960E-01  0.2149956E+00  0.2385276E+01  0.1563810E+00 -0.1475401E+00
 -0.1010000E+02 -0.8829700E-06 -0.2568960E-01  0.1906410E+00  0.2426469E+01  0.1439362E+00 -0.1250055E+00
 -0.1005140E+02 -0.9899740E+00 -0.2568960E-01  0.1649968E+00  0.2489460E+01  0.1311380E+00 -0.1001338E+00
 -0.9905930E+01 -0.1970410E+01 -0.2568960E-01  0.1385309E+00  0.2592548E+01  0.1181701E+00 -0.7229541E-01
 -0.9665100E+01 -0.2931880E+01 -0.2568960E-01  0.1138300E+00  0.2757868E+01  0.1055519E+00 -0.4261531E-01
 -0.9331180E+01 -0.3865100E+01 -0.2568960E-01  0.9447173E-01  0.3024775E+01  0.9382786E-01 -0.1101091E-01
 -0.8907400E+01 -0.4761110E+01 -0.2568960E-01  0.8598045E-01 -0.2882649E+01  0.8311395E-01  0.2201612E-01
 -0.8397840E+01 -0.5611260E+01 -0.2568960E-01  0.9301247E-01 -0.2485790E+01  0.7371784E-01  0.5671860E-01
 -0.7807400E+01 -0.6407370E+01 -0.2568960E-01  0.1131915E+00 -0.2190745E+01  0.6576350E-01  0.9212756E-01
 -0.7141780E+01 -0.7141780E+01 -0.2568960E-01  0.1409829E+00 -0.2007827E+01  0.5967123E-01  0.1277323E+00
 -0.6407370E+01 -0.7807410E+01 -0.2568960E-01  0.1724460E+00 -0.1897200E+01  0.5529277E-01  0.1633411E+00
 -0.5611260E+01 -0.8397850E+01 -0.2568960E-01  0.2056798E+00 -0.1830649E+01  0.5284695E-01  0.1987747E+00
 -0.4761110E+01 -0.8907410E+01 -0.2568960E-01  0.2392364E+00 -0.1790018E+01  0.5202665E-01  0.2335107E+00
 -0.3865100E+01 -0.9331190E+01 -0.2568960E-01  0.2717831E+00 -0.1766612E+01  0.5287990E-01  0.2665892E+00
 -0.2931870E+01 -0.9665100E+01 -0.2568960E-01  0.3032999E+00 -0.1753538E+01  0.5511769E-01  0.2982497E+00
 -0.1970410E+01 -0.9905930E+01 -0.2568960E-01  0.3332167E+00 -0.1747987E+01  0.5873443E-01  0.3279994E+00
 -0.9899710E+00 -0.1005140E+02 -0.2568960E-01  0.3614811E+00 -0.1746610E+01  0.6322657E-01  0.3559087E+00
  0.1204410E-06 -0.1010000E+02 -0.2568960E-01  0.3869302E+00 -0.1748180E+01  0.6827572E-01  0.3808587E+00
  0.9899760E+00 -0.1005140E+02 -0.2568960E-01  0.4101356E+00 -0.1751382E+01  0.7366291E-01  0.4034662E+00
  0.1970410E+01 -0.9905930E+01 -0.2568960E-01  0.4303988E+00 -0.1755808E+01  0.7917540E-01  0.4230537E+00
  0.2931880E+01 -0.9665100E+01 -0.2568960E-01  0.4482953E+00 -0.1760322E+01  0.8445577E-01  0.4402680E+00
  0.3865100E+01 -0.9331180E+01 -0.2568960E-01  0.4625941E+00 -0.1764480E+01  0.8903770E-01  0.4539444E+00
  0.4761110E+01 -0.8907410E+01 -0.2568960E-01  0.4741283E+00 -0.1768045E+01  0.9291583E-01  0.4649347E+00
  0.5611260E+01 -0.8397840E+01 -0.2568960E-01  0.4820481E+00 -0.1770868E+01  0.9580196E-01  0.4724324E+00
  0.6407370E+01 -0.7807410E+01 -0.2568960E-01  0.4873227E+00 -0.1772629E+01  0.9769122E-01  0.4774304E+00
  0.7141780E+01 -0.7141780E+01 -0.2568960E-01  0.4887826E+00 -0.1773194E+01  0.9825446E-01  0.4788052E+00
  0.7807410E+01 -0.6407370E+01 -0.2568960E-01  0.4873224E+00 -0.1772629E+01  0.9769119E-01  0.4774301E+00
  0.8397840E+01 -0.5611260E+01 -0.2568960E-01  0.4820479E+00 -0.1770867E+01  0.9580175E-01  0.4724322E+00
  0.8907410E+01 -0.4761110E+01 -0.2568960E-01  0.4741284E+00 -0.1768045E+01  0.9291578E-01  0.4649348E+00
  0.9331180E+01 -0.3865100E+01 -0.2568960E-01  0.4625944E+00 -0.1764480E+01  0.8903796E-01  0.4539447E+00
  0.9665100E+01 -0.2931870E+01 -0.2568960E-01  0.4482954E+00 -0.1760322E+01  0.8445594E-01  0.4402681E+00
  0.9905930E+01 -0.1970410E+01 -0.2568960E-01  0.4303989E+00 -0.1755808E+01  0.7917517E-01  0.4230537E+00
  0.1005140E+02 -0.9899690E+00 -0.2568960E-01  0.4101356E+00 -0.1751382E+01  0.7366277E-01  0.4034663E+00
  0.1010000E+02  0.0000000E+00 -0.1027320E+00  0.3857814E+00 -0.1748100E+01  0.6804272E-01  0.3797334E+00
  0.1005140E+02  0.9899730E+00 -0.1027320E+00  0.3603096E+00 -0.1746582E+01  0.6301165E-01  0.3547570E+00
  0.9905930E+01  0.1970410E+01 -0.1027320E+00  0.3321559E+00 -0.1747911E+01  0.5852260E-01  0.3269598E+00
  0.9665100E+01  0.2931880E+01 -0.1027320E+00  0.3022986E+00 -0.1753474E+01  0.5491672E-01  0.2972686E+00
  0.9331180E+01  0.3865100E+01 -0.1027320E+00  0.2709467E+00 -0.1766406E+01  0.5266234E-01  0.2657796E+00
  0.8907400E+01  0.4761110E+01 -0.1027320E+00  0.2384548E+00 -0.1789929E+01  0.5183599E-01  0.2327525E+00
  0.8397840E+01  0.5611260E+01 -0.1027320E+00  0.2050027E+00 -0.1830480E+01  0.5263956E-01  0.1981292E+00
  0.7807410E+01  0.6407370E+01 -0.1027320E+00  0.1718576E+00 -0.1897091E+01  0.5508650E-01  0.1627898E+00
  0.7141780E+01  0.7141780E+01 -0.1027320E+00  0.1404867E+00 -0.2007498E+01  0.5941925E-01  0.1273022E+00
  0.6407370E+01  0.7807410E+01 -0.1027320E+00  0.1128015E+00 -0.2190584E+01  0.6552215E-01  0.9182065E-01
  0.5611260E+01  0.8397840E+01 -0.1027320E+00  0.9266485E-01 -0.2485808E+01  0.7344335E-01  0.5650528E-01
  0.4761110E+01  0.8907410E+01 -0.1027320E+00  0.8567284E-01 -0.2882906E+01  0.8282223E-01  0.2191604E-01
  0.3865100E+01  0.9331180E+01 -0.1027320E+00  0.9413601E-01  0.3023814E+01  0.9348385E-01 -0.1106155E-01
  0.2931870E+01  0.9665100E+01 -0.1027320E+00  0.1134438E+00  0.2757650E+01  0.1051845E+00 -0.4249371E-01
  0.1970410E+01  0.9905930E+01 -0.1027320E+00  0.1380933E+00  0.2592139E+01  0.1177673E+00 -0.7211526E-01
  0.9899730E+00  0.1005140E+02 -0.1027320E+00  0.1644718E+00  0.2489260E+01  0.1307009E+00 -0.9984125E-01
 -0.4414850E-06  0.1010000E+02 -0.1027320E+00  0.1901153E+00  0.2425911E+01  0.1434697E+00 -0.1247407E+00
 -0.9899740E+00  0.1005140E+02 -0.1027320E+00  0.2143037E+00  0.2385151E+01  0.1558595E+00 -0.1470847E+00
 -0.1970410E+01  0.9905930E+01 -0.1027320E+00  0.2362896E+00  0.2359189E+01  0.1675816E+00 -0.1665809E+00
 -0.2931880E+01  0.9665100E+01 -0.1027320E+00  0.2559340E+00  0.2341368E+01  0.1782697E+00 -0.1836358E+00
 -0.3865100E+01  0.9331180E+01 -0.1027320E+00  0.2720935E+00  0.2330135E+01  0.1873206E+00 -0.1973471E+00
 -0.4761110E+01  0.8907400E+01 -0.1027320E+00  0.2849809E+00  0.2322881E+01  0.1946883E+00 -0.2081120E+00
 -0.5611260E+01  0.8397840E+01 -0.1027320E+00  0.2941390E+00  0.2318910E+01  0.2000903E+00 -0.2155960E+00
 -0.6407370E+01  0.7807410E+01 -0.1027320E+00  0.3000890E+00  0.2316193E+01  0.2035394E+00 -0.2205110E+00
 -0.7141780E+01  0.7141780E+01 -0.1027320E+00  0.3019474E+00  0.2315478E+01  0.2046411E+00 -0.2220231E+00
 -0.7807410E+01  0.6407370E+01 -0.1027320E+00  0.3000898E+00  0.2316195E+01  0.2035404E+00 -0.2205112E+00
 -0.8397840E+01  0.5611260E+01 -0.1027320E+00  0.2941390E+00  0.2318909E+01  0.2000900E+00 -0.2155962E+00
 -0.8907410E+01  0.4761110E+01 -0.1027320E+00  0.2849799E+00  0.2322881E+01  0.1946876E+00 -0.2081112E+00
 -0.9331180E+01  0.3865100E+01 -0.1027320E+00  0.2720939E+00  0.2330134E+01  0.1873208E+00 -0.1973475E+00
 -0.9665100E+01  0.2931880E+01 -0.1027320E+00  0.2559342E+00  0.2341369E+01  0.1782701E+00 -0.1836358E+00
 -0.9905930E+01  0.1970410E+01 -0.1027320E+00  0.2362897E+00  0.2359190E+01  0.1675817E+00 -0.1665809E+00
 -0.1005140E+02  0.9899730E+00 -0.1027320E+00  0.2143040E+00  0.2385150E+01  0.1558595E+00 -0.1470852E+00
 -0.1010000E+02 -0.8829700E-06 -0.1027320E+00  0.1901156E+00  0.2425909E+01  0.1434698E+00 -0.1247412E+00
 -0.1005140E+02 -0.9899740E+00 -0.1027320E+00  0.1644720E+00  0.2489259E+01  0.1307009E+00 -0.9984152E-01
 -0.9905930E+01 -0.1970410E+01 -0.1027320E+00  0.1380938E+00  0.2592138E+01  0.1177677E+00 -0.7211566E-01
 -0.9665100E+01 -0.2931880E+01 -0.1027320E+00  0.1134439E+00  0.2757651E+01  0.1051847E+00 -0.4249357E-01
 -0.9331180E+01 -0.3865100E+01 -0.1027320E+00  0.9413621E-01  0.3023811E+01  0.9348401E-01 -0.1106189E-01
 -0.8907400E+01 -0.4761110E+01 -0.1027320E+00  0.8567300E-01 -0.2882909E+01  0.8282245E-01  0.2191585E-01
 -0.8397840E+01 -0.5611260E+01 -0.1027320E+00  0.9266482E-01 -0.2485810E+01  0.7344346E-01  0.5650511E-01
 -0.7807400E+01 -0.6407370E+01 -0.1027320E+00  0.1128017E+00 -0.2190586E+01  0.6552245E-01  0.9182066E-01
 -0.7141780E+01 -0.7141780E+01 -0.1027320E+00  0.1404866E+00 -0.2007499E+01  0.5941930E-01  0.1273021E+00
 -0.6407370E+01 -0.7807410E+01 -0.1027320E+00  0.1718576E+00 -0.1897094E+01  0.5508696E-01  0.1627896E+00
 -0.5611260E+01 -0.8397850E+01 -0.1027320E+00  0.2050029E+00 -0.1830481E+01  0.5263986E-01  0.1981293E+00
 -0.4761110E+01 -0.8907410E+01 -0.1027320E+00  0.2384549E+00 -0.1789929E+01  0.5183614E-01  0.2327526E+00
 -0.3865100E+01 -0.9331190E+01 -0.1027320E+00  0.2709466E+00 -0.1766405E+01  0.5266219E-01  0.2657795E+00
 -0.2931870E+01 -0.9665100E+01 -0.1027320E+00  0.3022989E+00 -0.1753475E+01  0.5491682E-01  0.2972688E+00
 -0.1970410E+01 -0.9905930E+01 -0.1027320E+00  0.3321555E+00 -0.1747911E+01  0.5852262E-01  0.3269593E+00
 -0.9899710E+00 -0.1005140E+02 -0.1027320E+00  0.3603091E+00 -0.1746583E+01  0.6301180E-01  0.3547565E+00
  0.1204410E-06 -0.1010000E+02 -0.1027320E+00  0.3857812E+00 -0.1748100E+01  0.6804242E-01  0.3797332E+00
  0.9899760E+00 -0.1005140E+02 -0.1027320E+00  0.4087972E+00 -0.1751361E+01  0.7341377E-01  0.4021512E+00
  0.1970410E+01 -0.9905930E+01 -0.1027320E+00  0.4290427E+00 -0.1755790E+01  0.7891846E-01  0.4217221E+00
  0.2931880E+01 -0.9665100E+01 -0.1027320E+00  0.4468439E+00 -0.1760326E+01  0.8418400E-01  0.4388422E+00
  0.3865100E+01 -0.9331180E+01 -0.1027320E+00  0.4612372E+00 -0.1764470E+01  0.8877230E-01  0.4526138E+00
  0.4761110E+01 -0.8907410E+01 -0.1027320E+00  0.4725890E+00 -0.1768048E+01  0.9261573E-01  0.4634249E+00
  0.5611260E+01 -0.8397840E+01 -0.1027320E+00  0.4805337E+00 -0.1770878E+01  0.9550567E-01  0.4709473E+00
  0.6407370E+01 -0.7807410E+01 -0.1027320E+00  0.4857441E+00 -0.1772642E+01  0.9738106E-01  0.4758826E+00
  0.7141780E+01 -0.7141780E+01 -0.1027320E+00  0.4873530E+00 -0.1773208E+01  0.9797360E-01  0.4774035E+00
  0.7807410E+01 -0.6407370E+01 -0.1027320E+00  0.4857441E+00 -0.1772642E+01  0.9738083E-01  0.4758827E+00
  0.8397840E+01 -0.5611260E+01 -0.1027320E+00  0.4805339E+00 -0.1770878E+01  0.9550574E-01  0.4709474E+00
