 VARIABLES="X" "Y" "Z" "abs(eta) (m)" "angle(phi) (rad)" "PRE1" "PRE2"
ZONE N=   3200 ,E =    3136 ,F=FEPOINT,ET=QUADRILATERAL
  0.1010000E+02  0.0000000E+00  0.0000000E+00  0.1594913E+00  0.2654235E+01  0.1409222E+00 -0.7468865E-01
  0.1005140E+02  0.9899730E+00  0.0000000E+00  0.1595359E+00  0.2653711E+01  0.1409225E+00 -0.7478333E-01
  0.9905930E+01  0.1970410E+01  0.0000000E+00  0.1595805E+00  0.2653195E+01  0.1409232E+00 -0.7487702E-01
  0.9665100E+01  0.2931880E+01  0.0000000E+00  0.1595357E+00  0.2653714E+01  0.1409225E+00 -0.7478286E-01
  0.9331180E+01  0.3865100E+01  0.0000000E+00  0.1594914E+00  0.2654234E+01  0.1409223E+00 -0.7468882E-01
  0.8907400E+01  0.4761110E+01  0.0000000E+00  0.1595355E+00  0.2653713E+01  0.1409223E+00 -0.7478286E-01
  0.8397840E+01  0.5611260E+01  0.0000000E+00  0.1595804E+00  0.2653194E+01  0.1409232E+00 -0.7487702E-01
  0.7807410E+01  0.6407370E+01  0.0000000E+00  0.1595358E+00  0.2653712E+01  0.1409224E+00 -0.7478320E-01
  0.7141780E+01  0.7141780E+01  0.0000000E+00  0.1594912E+00  0.2654237E+01  0.1409223E+00 -0.7468837E-01
  0.6407370E+01  0.7807410E+01  0.0000000E+00  0.1595358E+00  0.2653712E+01  0.1409224E+00 -0.7478318E-01
  0.5611260E+01  0.8397840E+01  0.0000000E+00  0.1595804E+00  0.2653195E+01  0.1409232E+00 -0.7487699E-01
  0.4761110E+01  0.8907410E+01  0.0000000E+00  0.1595355E+00  0.2653713E+01  0.1409223E+00 -0.7478292E-01
  0.3865100E+01  0.9331180E+01  0.0000000E+00  0.1594914E+00  0.2654234E+01  0.1409223E+00 -0.7468875E-01
  0.2931870E+01  0.9665100E+01  0.0000000E+00  0.1595356E+00  0.2653713E+01  0.1409224E+00 -0.7478292E-01
  0.1970410E+01  0.9905930E+01  0.0000000E+00  0.1595804E+00  0.2653195E+01  0.1409231E+00 -0.7487701E-01
  0.9899730E+00  0.1005140E+02  0.0000000E+00  0.1595357E+00  0.2653711E+01  0.1409224E+00 -0.7478324E-01
 -0.4414850E-06  0.1010000E+02  0.0000000E+00  0.1594914E+00  0.2654236E+01  0.1409224E+00 -0.7468858E-01
 -0.9899740E+00  0.1005140E+02  0.0000000E+00  0.1595359E+00  0.2653711E+01  0.1409225E+00 -0.7478330E-01
 -0.1970410E+01  0.9905930E+01  0.0000000E+00  0.1595804E+00  0.2653194E+01  0.1409232E+00 -0.7487703E-01
 -0.2931880E+01  0.9665100E+01  0.0000000E+00  0.1595356E+00  0.2653713E+01  0.1409225E+00 -0.7478292E-01
 -0.3865100E+01  0.9331180E+01  0.0000000E+00  0.1594914E+00  0.2654234E+01  0.1409223E+00 -0.7468886E-01
 -0.4761110E+01  0.8907400E+01  0.0000000E+00  0.1595358E+00  0.2653713E+01  0.1409226E+00 -0.7478298E-01
 -0.5611260E+01  0.8397840E+01  0.0000000E+00  0.1595805E+00  0.2653195E+01  0.1409233E+00 -0.7487700E-01
 -0.6407370E+01  0.7807410E+01  0.0000000E+00  0.1595357E+00  0.2653711E+01  0.1409224E+00 -0.7478324E-01
 -0.7141780E+01  0.7141780E+01  0.0000000E+00  0.1594913E+00  0.2654236E+01  0.1409224E+00 -0.7468845E-01
 -0.7807410E+01  0.6407370E+01  0.0000000E+00  0.1595358E+00  0.2653712E+01  0.1409224E+00 -0.7478323E-01
 -0.8397840E+01  0.5611260E+01  0.0000000E+00  0.1595806E+00  0.2653195E+01  0.1409234E+00 -0.7487705E-01
 -0.8907410E+01  0.4761110E+01  0.0000000E+00  0.1595356E+00  0.2653713E+01  0.1409224E+00 -0.7478294E-01
 -0.9331180E+01  0.3865100E+01  0.0000000E+00  0.1594916E+00  0.2654234E+01  0.1409224E+00 -0.7468890E-01
 -0.9665100E+01  0.2931880E+01  0.0000000E+00  0.1595355E+00  0.2653713E+01  0.1409223E+00 -0.7478295E-01
 -0.9905930E+01  0.1970410E+01  0.0000000E+00  0.1595804E+00  0.2653194E+01  0.1409231E+00 -0.7487714E-01
 -0.1005140E+02  0.9899730E+00  0.0000000E+00  0.1595359E+00  0.2653711E+01  0.1409225E+00 -0.7478333E-01
 -0.1010000E+02 -0.8829700E-06  0.0000000E+00  0.1594913E+00  0.2654235E+01  0.1409223E+00 -0.7468865E-01
 -0.1005140E+02 -0.9899740E+00  0.0000000E+00  0.1595358E+00  0.2653711E+01  0.1409224E+00 -0.7478338E-01
 -0.9905930E+01 -0.1970410E+01  0.0000000E+00  0.1595804E+00  0.2653193E+01  0.1409231E+00 -0.7487720E-01
 -0.9665100E+01 -0.2931880E+01  0.0000000E+00  0.1595358E+00  0.2653713E+01  0.1409225E+00 -0.7478307E-01
 -0.9331180E+01 -0.3865100E+01  0.0000000E+00  0.1594914E+00  0.2654234E+01  0.1409223E+00 -0.7468886E-01
 -0.8907400E+01 -0.4761110E+01  0.0000000E+00  0.1595357E+00  0.2653713E+01  0.1409224E+00 -0.7478306E-01
 -0.8397840E+01 -0.5611260E+01  0.0000000E+00  0.1595806E+00  0.2653194E+01  0.1409233E+00 -0.7487717E-01
 -0.7807400E+01 -0.6407370E+01  0.0000000E+00  0.1595357E+00  0.2653710E+01  0.1409223E+00 -0.7478335E-01
 -0.7141780E+01 -0.7141780E+01  0.0000000E+00  0.1594914E+00  0.2654235E+01  0.1409224E+00 -0.7468861E-01
 -0.6407370E+01 -0.7807410E+01  0.0000000E+00  0.1595359E+00  0.2653711E+01  0.1409224E+00 -0.7478342E-01
 -0.5611260E+01 -0.8397850E+01  0.0000000E+00  0.1595805E+00  0.2653194E+01  0.1409232E+00 -0.7487716E-01
 -0.4761110E+01 -0.8907410E+01  0.0000000E+00  0.1595359E+00  0.2653712E+01  0.1409226E+00 -0.7478319E-01
 -0.3865100E+01 -0.9331190E+01  0.0000000E+00  0.1594916E+00  0.2654233E+01  0.1409224E+00 -0.7468901E-01
 -0.2931870E+01 -0.9665100E+01  0.0000000E+00  0.1595357E+00  0.2653712E+01  0.1409224E+00 -0.7478314E-01
 -0.1970410E+01 -0.9905930E+01  0.0000000E+00  0.1595806E+00  0.2653194E+01  0.1409232E+00 -0.7487723E-01
 -0.9899710E+00 -0.1005140E+02  0.0000000E+00  0.1595360E+00  0.2653711E+01  0.1409225E+00 -0.7478348E-01
  0.1204410E-06 -0.1010000E+02  0.0000000E+00  0.1594916E+00  0.2654234E+01  0.1409225E+00 -0.7468882E-01
  0.9899760E+00 -0.1005140E+02  0.0000000E+00  0.1595359E+00  0.2653711E+01  0.1409225E+00 -0.7478345E-01
  0.1970410E+01 -0.9905930E+01  0.0000000E+00  0.1595805E+00  0.2653194E+01  0.1409232E+00 -0.7487716E-01
  0.2931880E+01 -0.9665100E+01  0.0000000E+00  0.1595358E+00  0.2653712E+01  0.1409224E+00 -0.7478320E-01
  0.3865100E+01 -0.9331180E+01  0.0000000E+00  0.1594917E+00  0.2654233E+01  0.1409224E+00 -0.7468911E-01
  0.4761110E+01 -0.8907410E+01  0.0000000E+00  0.1595357E+00  0.2653712E+01  0.1409224E+00 -0.7478307E-01
  0.5611260E+01 -0.8397840E+01  0.0000000E+00  0.1595806E+00  0.2653193E+01  0.1409232E+00 -0.7487725E-01
  0.6407370E+01 -0.7807410E+01  0.0000000E+00  0.1595359E+00  0.2653710E+01  0.1409225E+00 -0.7478347E-01
  0.7141780E+01 -0.7141780E+01  0.0000000E+00  0.1594912E+00  0.2654235E+01  0.1409222E+00 -0.7468859E-01
  0.7807410E+01 -0.6407370E+01  0.0000000E+00  0.1595358E+00  0.2653711E+01  0.1409224E+00 -0.7478330E-01
  0.8397840E+01 -0.5611260E+01  0.0000000E+00  0.1595805E+00  0.2653194E+01  0.1409232E+00 -0.7487717E-01
  0.8907410E+01 -0.4761110E+01  0.0000000E+00  0.1595356E+00  0.2653713E+01  0.1409224E+00 -0.7478302E-01
  0.9331180E+01 -0.3865100E+01  0.0000000E+00  0.1594914E+00  0.2654233E+01  0.1409222E+00 -0.7468902E-01
  0.9665100E+01 -0.2931870E+01  0.0000000E+00  0.1595358E+00  0.2653713E+01  0.1409226E+00 -0.7478296E-01
  0.9905930E+01 -0.1970410E+01  0.0000000E+00  0.1595804E+00  0.2653194E+01  0.1409232E+00 -0.7487708E-01
  0.1005140E+02 -0.9899690E+00  0.0000000E+00  0.1595358E+00  0.2653711E+01  0.1409224E+00 -0.7478327E-01
  0.1010000E+02  0.0000000E+00 -0.2568960E-01  0.1593227E+00  0.2654447E+01  0.1407891E+00 -0.7457989E-01
  0.1005140E+02  0.9899730E+00 -0.2568960E-01  0.1593614E+00  0.2653990E+01  0.1407892E+00 -0.7466236E-01
  0.9905930E+01  0.1970410E+01 -0.2568960E-01  0.1594127E+00  0.2653398E+01  0.1407903E+00 -0.7476977E-01
  0.9665100E+01  0.2931880E+01 -0.2568960E-01  0.1593613E+00  0.2653991E+01  0.1407892E+00 -0.7466204E-01
  0.9331180E+01  0.3865100E+01 -0.2568960E-01  0.1593230E+00  0.2654446E+01  0.1407893E+00 -0.7458008E-01
  0.8907400E+01  0.4761110E+01 -0.2568960E-01  0.1593612E+00  0.2653992E+01  0.1407892E+00 -0.7466196E-01
  0.8397840E+01  0.5611260E+01 -0.2568960E-01  0.1594127E+00  0.2653397E+01  0.1407903E+00 -0.7476979E-01
  0.7807410E+01  0.6407370E+01 -0.2568960E-01  0.1593614E+00  0.2653990E+01  0.1407892E+00 -0.7466223E-01
  0.7141780E+01  0.7141780E+01 -0.2568960E-01  0.1593228E+00  0.2654449E+01  0.1407893E+00 -0.7457966E-01
  0.6407370E+01  0.7807410E+01 -0.2568960E-01  0.1593615E+00  0.2653990E+01  0.1407893E+00 -0.7466229E-01
  0.5611260E+01  0.8397840E+01 -0.2568960E-01  0.1594126E+00  0.2653397E+01  0.1407901E+00 -0.7476979E-01
  0.4761110E+01  0.8907410E+01 -0.2568960E-01  0.1593613E+00  0.2653992E+01  0.1407892E+00 -0.7466201E-01
  0.3865100E+01  0.9331180E+01 -0.2568960E-01  0.1593229E+00  0.2654445E+01  0.1407891E+00 -0.7458013E-01
  0.2931870E+01  0.9665100E+01 -0.2568960E-01  0.1593614E+00  0.2653992E+01  0.1407893E+00 -0.7466203E-01
  0.1970410E+01  0.9905930E+01 -0.2568960E-01  0.1594127E+00  0.2653397E+01  0.1407902E+00 -0.7476977E-01
  0.9899730E+00  0.1005140E+02 -0.2568960E-01  0.1593614E+00  0.2653990E+01  0.1407892E+00 -0.7466237E-01
 -0.4414850E-06  0.1010000E+02 -0.2568960E-01  0.1593230E+00  0.2654447E+01  0.1407894E+00 -0.7457991E-01
 -0.9899740E+00  0.1005140E+02 -0.2568960E-01  0.1593614E+00  0.2653989E+01  0.1407891E+00 -0.7466238E-01
 -0.1970410E+01  0.9905930E+01 -0.2568960E-01  0.1594128E+00  0.2653398E+01  0.1407903E+00 -0.7476977E-01
 -0.2931880E+01  0.9665100E+01 -0.2568960E-01  0.1593613E+00  0.2653991E+01  0.1407893E+00 -0.7466205E-01
 -0.3865100E+01  0.9331180E+01 -0.2568960E-01  0.1593229E+00  0.2654446E+01  0.1407892E+00 -0.7458014E-01
 -0.4761110E+01  0.8907400E+01 -0.2568960E-01  0.1593613E+00  0.2653992E+01  0.1407893E+00 -0.7466202E-01
 -0.5611260E+01  0.8397840E+01 -0.2568960E-01  0.1594126E+00  0.2653397E+01  0.1407901E+00 -0.7476982E-01
 -0.6407370E+01  0.7807410E+01 -0.2568960E-01  0.1593615E+00  0.2653990E+01  0.1407893E+00 -0.7466228E-01
 -0.7141780E+01  0.7141780E+01 -0.2568960E-01  0.1593228E+00  0.2654448E+01  0.1407893E+00 -0.7457972E-01
 -0.7807410E+01  0.6407370E+01 -0.2568960E-01  0.1593615E+00  0.2653990E+01  0.1407893E+00 -0.7466233E-01
 -0.8397840E+01  0.5611260E+01 -0.2568960E-01  0.1594128E+00  0.2653397E+01  0.1407903E+00 -0.7476981E-01
 -0.8907410E+01  0.4761110E+01 -0.2568960E-01  0.1593613E+00  0.2653991E+01  0.1407892E+00 -0.7466204E-01
 -0.9331180E+01  0.3865100E+01 -0.2568960E-01  0.1593231E+00  0.2654446E+01  0.1407894E+00 -0.7458014E-01
 -0.9665100E+01  0.2931880E+01 -0.2568960E-01  0.1593613E+00  0.2653991E+01  0.1407892E+00 -0.7466207E-01
 -0.9905930E+01  0.1970410E+01 -0.2568960E-01  0.1594127E+00  0.2653397E+01  0.1407901E+00 -0.7476985E-01
 -0.1005140E+02  0.9899730E+00 -0.2568960E-01  0.1593616E+00  0.2653990E+01  0.1407894E+00 -0.7466248E-01
 -0.1010000E+02 -0.8829700E-06 -0.2568960E-01  0.1593228E+00  0.2654446E+01  0.1407892E+00 -0.7457999E-01
 -0.1005140E+02 -0.9899740E+00 -0.2568960E-01  0.1593616E+00  0.2653990E+01  0.1407893E+00 -0.7466245E-01
 -0.9905930E+01 -0.1970410E+01 -0.2568960E-01  0.1594126E+00  0.2653396E+01  0.1407900E+00 -0.7476991E-01
 -0.9665100E+01 -0.2931880E+01 -0.2568960E-01  0.1593614E+00  0.2653991E+01  0.1407893E+00 -0.7466216E-01
 -0.9331180E+01 -0.3865100E+01 -0.2568960E-01  0.1593231E+00  0.2654445E+01  0.1407893E+00 -0.7458029E-01
 -0.8907400E+01 -0.4761110E+01 -0.2568960E-01  0.1593614E+00  0.2653991E+01  0.1407893E+00 -0.7466209E-01
 -0.8397840E+01 -0.5611260E+01 -0.2568960E-01  0.1594127E+00  0.2653396E+01  0.1407901E+00 -0.7476995E-01
 -0.7807400E+01 -0.6407370E+01 -0.2568960E-01  0.1593615E+00  0.2653989E+01  0.1407893E+00 -0.7466245E-01
 -0.7141780E+01 -0.7141780E+01 -0.2568960E-01  0.1593229E+00  0.2654448E+01  0.1407893E+00 -0.7457983E-01
 -0.6407370E+01 -0.7807410E+01 -0.2568960E-01  0.1593616E+00  0.2653989E+01  0.1407893E+00 -0.7466251E-01
 -0.5611260E+01 -0.8397850E+01 -0.2568960E-01  0.1594129E+00  0.2653397E+01  0.1407904E+00 -0.7477000E-01
 -0.4761110E+01 -0.8907410E+01 -0.2568960E-01  0.1593615E+00  0.2653991E+01  0.1407894E+00 -0.7466230E-01
 -0.3865100E+01 -0.9331190E+01 -0.2568960E-01  0.1593231E+00  0.2654445E+01  0.1407892E+00 -0.7458033E-01
 -0.2931870E+01 -0.9665100E+01 -0.2568960E-01  0.1593614E+00  0.2653990E+01  0.1407892E+00 -0.7466230E-01
 -0.1970410E+01 -0.9905930E+01 -0.2568960E-01  0.1594127E+00  0.2653396E+01  0.1407901E+00 -0.7476997E-01
 -0.9899710E+00 -0.1005140E+02 -0.2568960E-01  0.1593617E+00  0.2653989E+01  0.1407894E+00 -0.7466254E-01
  0.1204410E-06 -0.1010000E+02 -0.2568960E-01  0.1593229E+00  0.2654447E+01  0.1407892E+00 -0.7457998E-01
  0.9899760E+00 -0.1005140E+02 -0.2568960E-01  0.1593616E+00  0.2653989E+01  0.1407892E+00 -0.7466257E-01
  0.1970410E+01 -0.9905930E+01 -0.2568960E-01  0.1594127E+00  0.2653396E+01  0.1407901E+00 -0.7477000E-01
  0.2931880E+01 -0.9665100E+01 -0.2568960E-01  0.1593615E+00  0.2653991E+01  0.1407894E+00 -0.7466221E-01
  0.3865100E+01 -0.9331180E+01 -0.2568960E-01  0.1593231E+00  0.2654445E+01  0.1407894E+00 -0.7458029E-01
  0.4761110E+01 -0.8907410E+01 -0.2568960E-01  0.1593614E+00  0.2653991E+01  0.1407892E+00 -0.7466218E-01
  0.5611260E+01 -0.8397840E+01 -0.2568960E-01  0.1594127E+00  0.2653397E+01  0.1407902E+00 -0.7476991E-01
  0.6407370E+01 -0.7807410E+01 -0.2568960E-01  0.1593615E+00  0.2653990E+01  0.1407892E+00 -0.7466239E-01
  0.7141780E+01 -0.7141780E+01 -0.2568960E-01  0.1593227E+00  0.2654448E+01  0.1407891E+00 -0.7457975E-01
  0.7807410E+01 -0.6407370E+01 -0.2568960E-01  0.1593614E+00  0.2653990E+01  0.1407892E+00 -0.7466236E-01
  0.8397840E+01 -0.5611260E+01 -0.2568960E-01  0.1594126E+00  0.2653397E+01  0.1407901E+00 -0.7476984E-01
  0.8907410E+01 -0.4761110E+01 -0.2568960E-01  0.1593614E+00  0.2653991E+01  0.1407892E+00 -0.7466221E-01
  0.9331180E+01 -0.3865100E+01 -0.2568960E-01  0.1593230E+00  0.2654445E+01  0.1407892E+00 -0.7458024E-01
  0.9665100E+01 -0.2931870E+01 -0.2568960E-01  0.1593614E+00  0.2653991E+01  0.1407893E+00 -0.7466207E-01
  0.9905930E+01 -0.1970410E+01 -0.2568960E-01  0.1594128E+00  0.2653397E+01  0.1407903E+00 -0.7476987E-01
  0.1005140E+02 -0.9899690E+00 -0.2568960E-01  0.1593615E+00  0.2653990E+01  0.1407893E+00 -0.7466241E-01
  0.1010000E+02  0.0000000E+00 -0.1027320E+00  0.1588335E+00  0.2654907E+01  0.1403909E+00 -0.7428633E-01
  0.1005140E+02  0.9899730E+00 -0.1027320E+00  0.1588669E+00  0.2654510E+01  0.1403910E+00 -0.7435755E-01
  0.9905930E+01  0.1970410E+01 -0.1027320E+00  0.1589245E+00  0.2653838E+01  0.1403919E+00 -0.7447898E-01
  0.9665100E+01  0.2931880E+01 -0.1027320E+00  0.1588667E+00  0.2654512E+01  0.1403911E+00 -0.7435722E-01
  0.9331180E+01  0.3865100E+01 -0.1027320E+00  0.1588337E+00  0.2654905E+01  0.1403911E+00 -0.7428657E-01
  0.8907400E+01  0.4761110E+01 -0.1027320E+00  0.1588667E+00  0.2654512E+01  0.1403910E+00 -0.7435720E-01
  0.8397840E+01  0.5611260E+01 -0.1027320E+00  0.1589246E+00  0.2653838E+01  0.1403920E+00 -0.7447901E-01
  0.7807410E+01  0.6407370E+01 -0.1027320E+00  0.1588668E+00  0.2654511E+01  0.1403910E+00 -0.7435747E-01
  0.7141780E+01  0.7141780E+01 -0.1027320E+00  0.1588336E+00  0.2654908E+01  0.1403912E+00 -0.7428611E-01
  0.6407370E+01  0.7807410E+01 -0.1027320E+00  0.1588667E+00  0.2654510E+01  0.1403909E+00 -0.7435749E-01
  0.5611260E+01  0.8397840E+01 -0.1027320E+00  0.1589247E+00  0.2653838E+01  0.1403921E+00 -0.7447900E-01
  0.4761110E+01  0.8907410E+01 -0.1027320E+00  0.1588667E+00  0.2654513E+01  0.1403910E+00 -0.7435716E-01
  0.3865100E+01  0.9331180E+01 -0.1027320E+00  0.1588335E+00  0.2654905E+01  0.1403909E+00 -0.7428650E-01
  0.2931870E+01  0.9665100E+01 -0.1027320E+00  0.1588667E+00  0.2654512E+01  0.1403911E+00 -0.7435723E-01
  0.1970410E+01  0.9905930E+01 -0.1027320E+00  0.1589246E+00  0.2653838E+01  0.1403920E+00 -0.7447899E-01
  0.9899730E+00  0.1005140E+02 -0.1027320E+00  0.1588669E+00  0.2654510E+01  0.1403910E+00 -0.7435756E-01
 -0.4414850E-06  0.1010000E+02 -0.1027320E+00  0.1588335E+00  0.2654907E+01  0.1403909E+00 -0.7428633E-01
 -0.9899740E+00  0.1005140E+02 -0.1027320E+00  0.1588669E+00  0.2654510E+01  0.1403910E+00 -0.7435756E-01
 -0.1970410E+01  0.9905930E+01 -0.1027320E+00  0.1589247E+00  0.2653838E+01  0.1403921E+00 -0.7447904E-01
 -0.2931880E+01  0.9665100E+01 -0.1027320E+00  0.1588666E+00  0.2654512E+01  0.1403909E+00 -0.7435723E-01
 -0.3865100E+01  0.9331180E+01 -0.1027320E+00  0.1588336E+00  0.2654905E+01  0.1403909E+00 -0.7428654E-01
 -0.4761110E+01  0.8907400E+01 -0.1027320E+00  0.1588669E+00  0.2654513E+01  0.1403912E+00 -0.7435723E-01
 -0.5611260E+01  0.8397840E+01 -0.1027320E+00  0.1589247E+00  0.2653837E+01  0.1403921E+00 -0.7447912E-01
 -0.6407370E+01  0.7807410E+01 -0.1027320E+00  0.1588669E+00  0.2654511E+01  0.1403910E+00 -0.7435747E-01
 -0.7141780E+01  0.7141780E+01 -0.1027320E+00  0.1588336E+00  0.2654908E+01  0.1403912E+00 -0.7428618E-01
 -0.7807410E+01  0.6407370E+01 -0.1027320E+00  0.1588667E+00  0.2654510E+01  0.1403909E+00 -0.7435749E-01
 -0.8397840E+01  0.5611260E+01 -0.1027320E+00  0.1589247E+00  0.2653837E+01  0.1403921E+00 -0.7447911E-01
 -0.8907410E+01  0.4761110E+01 -0.1027320E+00  0.1588666E+00  0.2654512E+01  0.1403909E+00 -0.7435726E-01
 -0.9331180E+01  0.3865100E+01 -0.1027320E+00  0.1588337E+00  0.2654905E+01  0.1403910E+00 -0.7428665E-01
 -0.9665100E+01  0.2931880E+01 -0.1027320E+00  0.1588667E+00  0.2654511E+01  0.1403910E+00 -0.7435732E-01
 -0.9905930E+01  0.1970410E+01 -0.1027320E+00  0.1589248E+00  0.2653837E+01  0.1403921E+00 -0.7447915E-01
 -0.1005140E+02  0.9899730E+00 -0.1027320E+00  0.1588669E+00  0.2654510E+01  0.1403910E+00 -0.7435767E-01
 -0.1010000E+02 -0.8829700E-06 -0.1027320E+00  0.1588335E+00  0.2654906E+01  0.1403910E+00 -0.7428639E-01
 -0.1005140E+02 -0.9899740E+00 -0.1027320E+00  0.1588670E+00  0.2654510E+01  0.1403911E+00 -0.7435767E-01
 -0.9905930E+01 -0.1970410E+01 -0.1027320E+00  0.1589248E+00  0.2653838E+01  0.1403921E+00 -0.7447908E-01
 -0.9665100E+01 -0.2931880E+01 -0.1027320E+00  0.1588667E+00  0.2654511E+01  0.1403909E+00 -0.7435741E-01
 -0.9331180E+01 -0.3865100E+01 -0.1027320E+00  0.1588337E+00  0.2654904E+01  0.1403910E+00 -0.7428674E-01
 -0.8907400E+01 -0.4761110E+01 -0.1027320E+00  0.1588668E+00  0.2654512E+01  0.1403911E+00 -0.7435726E-01
 -0.8397840E+01 -0.5611260E+01 -0.1027320E+00  0.1589247E+00  0.2653837E+01  0.1403920E+00 -0.7447919E-01
 -0.7807400E+01 -0.6407370E+01 -0.1027320E+00  0.1588668E+00  0.2654510E+01  0.1403909E+00 -0.7435763E-01
 -0.7141780E+01 -0.7141780E+01 -0.1027320E+00  0.1588335E+00  0.2654907E+01  0.1403911E+00 -0.7428624E-01
 -0.6407370E+01 -0.7807410E+01 -0.1027320E+00  0.1588669E+00  0.2654510E+01  0.1403910E+00 -0.7435769E-01
 -0.5611260E+01 -0.8397850E+01 -0.1027320E+00  0.1589248E+00  0.2653838E+01  0.1403922E+00 -0.7447915E-01
 -0.4761110E+01 -0.8907410E+01 -0.1027320E+00  0.1588667E+00  0.2654511E+01  0.1403909E+00 -0.7435740E-01
 -0.3865100E+01 -0.9331190E+01 -0.1027320E+00  0.1588337E+00  0.2654904E+01  0.1403910E+00 -0.7428672E-01
 -0.2931870E+01 -0.9665100E+01 -0.1027320E+00  0.1588668E+00  0.2654511E+01  0.1403911E+00 -0.7435738E-01
 -0.1970410E+01 -0.9905930E+01 -0.1027320E+00  0.1589247E+00  0.2653837E+01  0.1403919E+00 -0.7447917E-01
 -0.9899710E+00 -0.1005140E+02 -0.1027320E+00  0.1588670E+00  0.2654510E+01  0.1403911E+00 -0.7435775E-01
  0.1204410E-06 -0.1010000E+02 -0.1027320E+00  0.1588336E+00  0.2654906E+01  0.1403911E+00 -0.7428646E-01
  0.9899760E+00 -0.1005140E+02 -0.1027320E+00  0.1588669E+00  0.2654510E+01  0.1403910E+00 -0.7435770E-01
  0.1970410E+01 -0.9905930E+01 -0.1027320E+00  0.1589247E+00  0.2653837E+01  0.1403920E+00 -0.7447910E-01
  0.2931880E+01 -0.9665100E+01 -0.1027320E+00  0.1588667E+00  0.2654511E+01  0.1403909E+00 -0.7435737E-01
  0.3865100E+01 -0.9331180E+01 -0.1027320E+00  0.1588338E+00  0.2654905E+01  0.1403912E+00 -0.7428668E-01
  0.4761110E+01 -0.8907410E+01 -0.1027320E+00  0.1588666E+00  0.2654511E+01  0.1403908E+00 -0.7435736E-01
  0.5611260E+01 -0.8397840E+01 -0.1027320E+00  0.1589248E+00  0.2653838E+01  0.1403921E+00 -0.7447915E-01
  0.6407370E+01 -0.7807410E+01 -0.1027320E+00  0.1588669E+00  0.2654510E+01  0.1403909E+00 -0.7435764E-01
  0.7141780E+01 -0.7141780E+01 -0.1027320E+00  0.1588337E+00  0.2654908E+01  0.1403912E+00 -0.7428619E-01
  0.7807410E+01 -0.6407370E+01 -0.1027320E+00  0.1588668E+00  0.2654510E+01  0.1403909E+00 -0.7435759E-01
  0.8397840E+01 -0.5611260E+01 -0.1027320E+00  0.1589247E+00  0.2653837E+01  0.1403920E+00 -0.7447921E-01
