 VARIABLES="X" "Y" "Z" "abs(eta) (m)" "angle(phi) (rad)" "PRE1" "PRE2"
ZONE N=   3200 ,E =    3136 ,F=FEPOINT,ET=QUADRILATERAL
  0.1010000E+02  0.0000000E+00  0.0000000E+00  0.8522744E-01 -0.2233955E+01  0.5246679E-01  0.6716363E-01
  0.1005140E+02  0.9899730E+00  0.0000000E+00  0.1037549E+00 -0.2091962E+01  0.5165863E-01  0.8998031E-01
  0.9905930E+01  0.1970410E+01  0.0000000E+00  0.1240351E+00 -0.2000068E+01  0.5162456E-01  0.1127813E+00
  0.9665100E+01  0.2931880E+01  0.0000000E+00  0.1448658E+00 -0.1941173E+01  0.5243656E-01  0.1350426E+00
  0.9331180E+01  0.3865100E+01  0.0000000E+00  0.1655482E+00 -0.1902300E+01  0.5388022E-01  0.1565347E+00
  0.8907400E+01  0.4761110E+01  0.0000000E+00  0.1855088E+00 -0.1877441E+01  0.5599792E-01  0.1768551E+00
  0.8397840E+01  0.5611260E+01  0.0000000E+00  0.2049715E+00 -0.1860980E+01  0.5864816E-01  0.1964019E+00
  0.7807410E+01  0.6407370E+01  0.0000000E+00  0.2231598E+00 -0.1850945E+01  0.6170327E-01  0.2144597E+00
  0.7141780E+01  0.7141780E+01  0.0000000E+00  0.2401139E+00 -0.1844516E+01  0.6490619E-01  0.2311750E+00
  0.6407370E+01  0.7807410E+01  0.0000000E+00  0.2551042E+00 -0.1841406E+01  0.6819415E-01  0.2458204E+00
  0.5611260E+01  0.8397840E+01  0.0000000E+00  0.2688262E+00 -0.1839955E+01  0.7148637E-01  0.2591471E+00
  0.4761110E+01  0.8907410E+01  0.0000000E+00  0.2804724E+00 -0.1839812E+01  0.7454459E-01  0.2703847E+00
  0.3865100E+01  0.9331180E+01  0.0000000E+00  0.2904383E+00 -0.1839917E+01  0.7722286E-01  0.2799840E+00
  0.2931870E+01  0.9665100E+01  0.0000000E+00  0.2977884E+00 -0.1840676E+01  0.7939491E-01  0.2870094E+00
  0.1970410E+01  0.9905930E+01  0.0000000E+00  0.3034660E+00 -0.1841291E+01  0.8108851E-01  0.2924316E+00
  0.9899730E+00  0.1005140E+02  0.0000000E+00  0.3066878E+00 -0.1841797E+01  0.8209885E-01  0.2954948E+00
 -0.4414850E-06  0.1010000E+02  0.0000000E+00  0.3081054E+00 -0.1841781E+01  0.8247378E-01  0.2968619E+00
 -0.9899740E+00  0.1005140E+02  0.0000000E+00  0.3066878E+00 -0.1841797E+01  0.8209890E-01  0.2954948E+00
 -0.1970410E+01  0.9905930E+01  0.0000000E+00  0.3034658E+00 -0.1841291E+01  0.8108854E-01  0.2924314E+00
 -0.2931880E+01  0.9665100E+01  0.0000000E+00  0.2977885E+00 -0.1840675E+01  0.7939482E-01  0.2870095E+00
 -0.3865100E+01  0.9331180E+01  0.0000000E+00  0.2904386E+00 -0.1839917E+01  0.7722280E-01  0.2799843E+00
 -0.4761110E+01  0.8907400E+01  0.0000000E+00  0.2804728E+00 -0.1839811E+01  0.7454461E-01  0.2703851E+00
 -0.5611260E+01  0.8397840E+01  0.0000000E+00  0.2688261E+00 -0.1839955E+01  0.7148633E-01  0.2591470E+00
 -0.6407370E+01  0.7807410E+01  0.0000000E+00  0.2551041E+00 -0.1841406E+01  0.6819414E-01  0.2458204E+00
 -0.7141780E+01  0.7141780E+01  0.0000000E+00  0.2401138E+00 -0.1844516E+01  0.6490618E-01  0.2311749E+00
 -0.7807410E+01  0.6407370E+01  0.0000000E+00  0.2231600E+00 -0.1850944E+01  0.6170326E-01  0.2144600E+00
 -0.8397840E+01  0.5611260E+01  0.0000000E+00  0.2049717E+00 -0.1860980E+01  0.5864820E-01  0.1964021E+00
 -0.8907410E+01  0.4761110E+01  0.0000000E+00  0.1855090E+00 -0.1877440E+01  0.5599783E-01  0.1768553E+00
 -0.9331180E+01  0.3865100E+01  0.0000000E+00  0.1655482E+00 -0.1902300E+01  0.5388020E-01  0.1565347E+00
 -0.9665100E+01  0.2931880E+01  0.0000000E+00  0.1448660E+00 -0.1941173E+01  0.5243665E-01  0.1350428E+00
 -0.9905930E+01  0.1970410E+01  0.0000000E+00  0.1240352E+00 -0.2000067E+01  0.5162440E-01  0.1127814E+00
 -0.1005140E+02  0.9899730E+00  0.0000000E+00  0.1037552E+00 -0.2091960E+01  0.5165865E-01  0.8998065E-01
 -0.1010000E+02 -0.8829700E-06  0.0000000E+00  0.8522756E-01 -0.2233953E+01  0.5246676E-01  0.6716380E-01
 -0.1005140E+02 -0.9899740E+00  0.0000000E+00  0.7000235E-01 -0.2455500E+01  0.5416273E-01  0.4434781E-01
 -0.9905930E+01 -0.1970410E+01  0.0000000E+00  0.6058090E-01 -0.2777929E+01  0.5661890E-01  0.2154867E-01
 -0.9665100E+01 -0.2931880E+01  0.0000000E+00  0.5987528E-01  0.3129730E+01  0.5987107E-01 -0.7102386E-03
 -0.9331180E+01 -0.3865100E+01  0.0000000E+00  0.6743924E-01  0.2806161E+01  0.6368074E-01 -0.2219941E-01
 -0.8907400E+01 -0.4761110E+01  0.0000000E+00  0.8024706E-01  0.2583222E+01  0.6805910E-01 -0.4251529E-01
 -0.8397840E+01 -0.5611260E+01  0.0000000E+00  0.9571469E-01  0.2436173E+01  0.7287139E-01 -0.6205692E-01
 -0.7807400E+01 -0.6407370E+01  0.0000000E+00  0.1117714E+00  0.2342495E+01  0.7794420E-01 -0.8010960E-01
 -0.7141780E+01 -0.7141780E+01  0.0000000E+00  0.1275363E+00  0.2279583E+01  0.8301507E-01 -0.9681945E-01
 -0.6407370E+01 -0.7807410E+01  0.0000000E+00  0.1419959E+00  0.2238988E+01  0.8797609E-01 -0.1114587E+00
 -0.5611260E+01 -0.8397850E+01  0.0000000E+00  0.1554891E+00  0.2210115E+01  0.9277246E-01 -0.1247804E+00
 -0.4761110E+01 -0.8907410E+01  0.0000000E+00  0.1671282E+00  0.2190884E+01  0.9711923E-01 -0.1360135E+00
 -0.3865100E+01 -0.9331190E+01  0.0000000E+00  0.1771421E+00  0.2176696E+01  0.1008827E+00 -0.1456091E+00
 -0.2931870E+01 -0.9665100E+01  0.0000000E+00  0.1846300E+00  0.2168409E+01  0.1038859E+00 -0.1526302E+00
 -0.1970410E+01 -0.9905930E+01  0.0000000E+00  0.1904145E+00  0.2162427E+01  0.1061971E+00 -0.1580502E+00
 -0.9899710E+00 -0.1005140E+02  0.0000000E+00  0.1937224E+00  0.2159499E+01  0.1075706E+00 -0.1611115E+00
  0.1204410E-06 -0.1010000E+02  0.0000000E+00  0.1951441E+00  0.2157794E+01  0.1080832E+00 -0.1624785E+00
  0.9899760E+00 -0.1005140E+02  0.0000000E+00  0.1937222E+00  0.2159499E+01  0.1075705E+00 -0.1611113E+00
  0.1970410E+01 -0.9905930E+01  0.0000000E+00  0.1904146E+00  0.2162427E+01  0.1061972E+00 -0.1580503E+00
  0.2931880E+01 -0.9665100E+01  0.0000000E+00  0.1846300E+00  0.2168409E+01  0.1038859E+00 -0.1526301E+00
  0.3865100E+01 -0.9331180E+01  0.0000000E+00  0.1771423E+00  0.2176696E+01  0.1008829E+00 -0.1456092E+00
  0.4761110E+01 -0.8907410E+01  0.0000000E+00  0.1671283E+00  0.2190884E+01  0.9711926E-01 -0.1360136E+00
  0.5611260E+01 -0.8397840E+01  0.0000000E+00  0.1554893E+00  0.2210114E+01  0.9277243E-01 -0.1247806E+00
  0.6407370E+01 -0.7807410E+01  0.0000000E+00  0.1419959E+00  0.2238989E+01  0.8797612E-01 -0.1114586E+00
  0.7141780E+01 -0.7141780E+01  0.0000000E+00  0.1275363E+00  0.2279582E+01  0.8301502E-01 -0.9681955E-01
  0.7807410E+01 -0.6407370E+01  0.0000000E+00  0.1117712E+00  0.2342495E+01  0.7794409E-01 -0.8010940E-01
  0.8397840E+01 -0.5611260E+01  0.0000000E+00  0.9571477E-01  0.2436172E+01  0.7287138E-01 -0.6205706E-01
  0.8907410E+01 -0.4761110E+01  0.0000000E+00  0.8024693E-01  0.2583224E+01  0.6805905E-01 -0.4251511E-01
  0.9331180E+01 -0.3865100E+01  0.0000000E+00  0.6743928E-01  0.2806159E+01  0.6368074E-01 -0.2219956E-01
  0.9665100E+01 -0.2931870E+01  0.0000000E+00  0.5987526E-01  0.3129729E+01  0.5987105E-01 -0.7103151E-03
  0.9905930E+01 -0.1970410E+01  0.0000000E+00  0.6058081E-01 -0.2777929E+01  0.5661883E-01  0.2154861E-01
  0.1005140E+02 -0.9899690E+00  0.0000000E+00  0.7000225E-01 -0.2455502E+01  0.5416275E-01  0.4434763E-01
  0.1010000E+02  0.0000000E+00 -0.2568960E-01  0.8516277E-01 -0.2233904E+01  0.5242357E-01  0.6711532E-01
  0.1005140E+02  0.9899730E+00 -0.2568960E-01  0.1036814E+00 -0.2091929E+01  0.5161911E-01  0.8991827E-01
  0.9905930E+01  0.1970410E+01 -0.2568960E-01  0.1239341E+00 -0.2000290E+01  0.5160746E-01  0.1126780E+00
  0.9665100E+01  0.2931880E+01 -0.2568960E-01  0.1447721E+00 -0.1941131E+01  0.5239705E-01  0.1349574E+00
  0.9331180E+01  0.3865100E+01 -0.2568960E-01  0.1654479E+00 -0.1902237E+01  0.5383763E-01  0.1564433E+00
  0.8907400E+01  0.4761110E+01 -0.2568960E-01  0.1853906E+00 -0.1877408E+01  0.5595637E-01  0.1767443E+00
  0.8397840E+01  0.5611260E+01 -0.2568960E-01  0.2047679E+00 -0.1861115E+01  0.5861641E-01  0.1961989E+00
  0.7807410E+01  0.6407370E+01 -0.2568960E-01  0.2230224E+00 -0.1850918E+01  0.6165953E-01  0.2143294E+00
  0.7141780E+01  0.7141780E+01 -0.2568960E-01  0.2399784E+00 -0.1844476E+01  0.6486039E-01  0.2310470E+00
  0.6407370E+01  0.7807410E+01 -0.2568960E-01  0.2549476E+00 -0.1841384E+01  0.6814685E-01  0.2456711E+00
  0.5611260E+01  0.8397840E+01 -0.2568960E-01  0.2685438E+00 -0.1840032E+01  0.7143114E-01  0.2588693E+00
  0.4761110E+01  0.8907410E+01 -0.2568960E-01  0.2803034E+00 -0.1839793E+01  0.7449464E-01  0.2702232E+00
  0.3865100E+01  0.9331180E+01 -0.2568960E-01  0.2902786E+00 -0.1839890E+01  0.7717296E-01  0.2798321E+00
  0.2931870E+01  0.9665100E+01 -0.2568960E-01  0.2976077E+00 -0.1840660E+01  0.7934210E-01  0.2868365E+00
  0.1970410E+01  0.9905930E+01 -0.2568960E-01  0.3031423E+00 -0.1841340E+01  0.8101649E-01  0.2921157E+00
  0.9899730E+00  0.1005140E+02 -0.2568960E-01  0.3065025E+00 -0.1841782E+01  0.8204494E-01  0.2953174E+00
 -0.4414850E-06  0.1010000E+02 -0.2568960E-01  0.3079367E+00 -0.1841759E+01  0.8242211E-01  0.2967012E+00
 -0.9899740E+00  0.1005140E+02 -0.2568960E-01  0.3065025E+00 -0.1841782E+01  0.8204497E-01  0.2953174E+00
 -0.1970410E+01  0.9905930E+01 -0.2568960E-01  0.3031423E+00 -0.1841340E+01  0.8101642E-01  0.2921157E+00
 -0.2931880E+01  0.9665100E+01 -0.2568960E-01  0.2976080E+00 -0.1840659E+01  0.7934208E-01  0.2868368E+00
 -0.3865100E+01  0.9331180E+01 -0.2568960E-01  0.2902789E+00 -0.1839890E+01  0.7717294E-01  0.2798324E+00
 -0.4761110E+01  0.8907400E+01 -0.2568960E-01  0.2803039E+00 -0.1839793E+01  0.7449470E-01  0.2702237E+00
 -0.5611260E+01  0.8397840E+01 -0.2568960E-01  0.2685437E+00 -0.1840032E+01  0.7143114E-01  0.2588693E+00
 -0.6407370E+01  0.7807410E+01 -0.2568960E-01  0.2549472E+00 -0.1841384E+01  0.6814677E-01  0.2456708E+00
 -0.7141780E+01  0.7141780E+01 -0.2568960E-01  0.2399785E+00 -0.1844476E+01  0.6486037E-01  0.2310472E+00
 -0.7807410E+01  0.6407370E+01 -0.2568960E-01  0.2230228E+00 -0.1850918E+01  0.6165962E-01  0.2143298E+00
 -0.8397840E+01  0.5611260E+01 -0.2568960E-01  0.2047680E+00 -0.1861115E+01  0.5861647E-01  0.1961990E+00
 -0.8907410E+01  0.4761110E+01 -0.2568960E-01  0.1853909E+00 -0.1877407E+01  0.5595642E-01  0.1767446E+00
 -0.9331180E+01  0.3865100E+01 -0.2568960E-01  0.1654482E+00 -0.1902237E+01  0.5383774E-01  0.1564436E+00
 -0.9665100E+01  0.2931880E+01 -0.2568960E-01  0.1447724E+00 -0.1941132E+01  0.5239719E-01  0.1349577E+00
 -0.9905930E+01  0.1970410E+01 -0.2568960E-01  0.1239344E+00 -0.2000289E+01  0.5160748E-01  0.1126783E+00
 -0.1005140E+02  0.9899730E+00 -0.2568960E-01  0.1036815E+00 -0.2091928E+01  0.5161907E-01  0.8991840E-01
 -0.1010000E+02 -0.8829700E-06 -0.2568960E-01  0.8516289E-01 -0.2233903E+01  0.5242359E-01  0.6711546E-01
 -0.1005140E+02 -0.9899740E+00 -0.2568960E-01  0.6994865E-01 -0.2455504E+01  0.5412136E-01  0.4431356E-01
 -0.9905930E+01 -0.1970410E+01 -0.2568960E-01  0.6056313E-01 -0.2777698E+01  0.5659733E-01  0.2155540E-01
 -0.9665100E+01 -0.2931880E+01 -0.2568960E-01  0.5983115E-01  0.3129534E+01  0.5982680E-01 -0.7214745E-03
 -0.9331180E+01 -0.3865100E+01 -0.2568960E-01  0.6739492E-01  0.2805854E+01  0.6363206E-01 -0.2220440E-01
 -0.8907400E+01 -0.4761110E+01 -0.2568960E-01  0.8019749E-01  0.2583048E+01  0.6800966E-01 -0.4250087E-01
 -0.8397840E+01 -0.5611260E+01 -0.2568960E-01  0.9561130E-01  0.2436720E+01  0.7282657E-01 -0.6195006E-01
 -0.7807400E+01 -0.6407370E+01 -0.2568960E-01  0.1117096E+00  0.2342358E+01  0.7789011E-01 -0.8007596E-01
 -0.7141780E+01 -0.7141780E+01 -0.2568960E-01  0.1274754E+00  0.2279404E+01  0.8295805E-01 -0.9678810E-01
 -0.6407370E+01 -0.7807410E+01 -0.2568960E-01  0.1419169E+00  0.2238887E+01  0.8791579E-01 -0.1114056E+00
 -0.5611260E+01 -0.8397850E+01 -0.2568960E-01  0.1552991E+00  0.2210425E+01  0.9269762E-01 -0.1245992E+00
 -0.4761110E+01 -0.8907410E+01 -0.2568960E-01  0.1670371E+00  0.2190798E+01  0.9705460E-01 -0.1359477E+00
 -0.3865100E+01 -0.9331190E+01 -0.2568960E-01  0.1770595E+00  0.2176577E+01  0.1008183E+00 -0.1455531E+00
 -0.2931870E+01 -0.9665100E+01 -0.2568960E-01  0.1845286E+00  0.2168333E+01  0.1038172E+00 -0.1525542E+00
 -0.1970410E+01 -0.9905930E+01 -0.2568960E-01  0.1901789E+00  0.2162657E+01  0.1061019E+00 -0.1578303E+00
 -0.9899710E+00 -0.1005140E+02 -0.2568960E-01  0.1936162E+00  0.2159427E+01  0.1075001E+00 -0.1610309E+00
  0.1204410E-06 -0.1010000E+02 -0.2568960E-01  0.1950533E+00  0.2157688E+01  0.1080157E+00 -0.1624143E+00
  0.9899760E+00 -0.1005140E+02 -0.2568960E-01  0.1936162E+00  0.2159427E+01  0.1075001E+00 -0.1610309E+00
  0.1970410E+01 -0.9905930E+01 -0.2568960E-01  0.1901790E+00  0.2162657E+01  0.1061020E+00 -0.1578304E+00
  0.2931880E+01 -0.9665100E+01 -0.2568960E-01  0.1845282E+00  0.2168334E+01  0.1038171E+00 -0.1525538E+00
  0.3865100E+01 -0.9331180E+01 -0.2568960E-01  0.1770598E+00  0.2176576E+01  0.1008184E+00 -0.1455534E+00
  0.4761110E+01 -0.8907410E+01 -0.2568960E-01  0.1670371E+00  0.2190798E+01  0.9705460E-01 -0.1359478E+00
  0.5611260E+01 -0.8397840E+01 -0.2568960E-01  0.1552995E+00  0.2210424E+01  0.9269773E-01 -0.1245996E+00
  0.6407370E+01 -0.7807410E+01 -0.2568960E-01  0.1419170E+00  0.2238886E+01  0.8791583E-01 -0.1114057E+00
  0.7141780E+01 -0.7141780E+01 -0.2568960E-01  0.1274755E+00  0.2279403E+01  0.8295807E-01 -0.9678822E-01
  0.7807410E+01 -0.6407370E+01 -0.2568960E-01  0.1117093E+00  0.2342357E+01  0.7788984E-01 -0.8007583E-01
  0.8397840E+01 -0.5611260E+01 -0.2568960E-01  0.9561133E-01  0.2436719E+01  0.7282653E-01 -0.6195017E-01
  0.8907410E+01 -0.4761110E+01 -0.2568960E-01  0.8019736E-01  0.2583050E+01  0.6800961E-01 -0.4250069E-01
  0.9331180E+01 -0.3865100E+01 -0.2568960E-01  0.6739497E-01  0.2805854E+01  0.6363212E-01 -0.2220443E-01
  0.9665100E+01 -0.2931870E+01 -0.2568960E-01  0.5983112E-01  0.3129535E+01  0.5982677E-01 -0.7214093E-03
  0.9905930E+01 -0.1970410E+01 -0.2568960E-01  0.6056304E-01 -0.2777699E+01  0.5659726E-01  0.2155531E-01
  0.1005140E+02 -0.9899690E+00 -0.2568960E-01  0.6994862E-01 -0.2455506E+01  0.5412140E-01  0.4431347E-01
  0.1010000E+02  0.0000000E+00 -0.1027320E+00  0.8497141E-01 -0.2233781E+01  0.5229751E-01  0.6697097E-01
  0.1005140E+02  0.9899730E+00 -0.1027320E+00  0.1034573E+00 -0.2091894E+01  0.5150443E-01  0.8972574E-01
  0.9905930E+01  0.1970410E+01 -0.1027320E+00  0.1236641E+00 -0.2000388E+01  0.5150609E-01  0.1124275E+00
  0.9665100E+01  0.2931880E+01 -0.1027320E+00  0.1444757E+00 -0.1941079E+01  0.5228271E-01  0.1346839E+00
  0.9331180E+01  0.3865100E+01 -0.1027320E+00  0.1651267E+00 -0.1902112E+01  0.5371365E-01  0.1561463E+00
  0.8907400E+01  0.4761110E+01 -0.1027320E+00  0.1850099E+00 -0.1877376E+01  0.5583587E-01  0.1763832E+00
  0.8397840E+01  0.5611260E+01 -0.1027320E+00  0.2043075E+00 -0.1861187E+01  0.5849863E-01  0.1957536E+00
  0.7807410E+01  0.6407370E+01 -0.1027320E+00  0.2225741E+00 -0.1850901E+01  0.6153196E-01  0.2138996E+00
  0.7141780E+01  0.7141780E+01 -0.1027320E+00  0.2395327E+00 -0.1844417E+01  0.6472627E-01  0.2306218E+00
  0.6407370E+01  0.7807410E+01 -0.1027320E+00  0.2544312E+00 -0.1841378E+01  0.6800742E-01  0.2451739E+00
  0.5611260E+01  0.8397840E+01 -0.1027320E+00  0.2679352E+00 -0.1840088E+01  0.7128384E-01  0.2582787E+00
  0.4761110E+01  0.8907410E+01 -0.1027320E+00  0.2797420E+00 -0.1839798E+01  0.7434689E-01  0.2696815E+00
  0.3865100E+01  0.9331180E+01 -0.1027320E+00  0.2897474E+00 -0.1839870E+01  0.7702597E-01  0.2793216E+00
  0.2931870E+01  0.9665100E+01 -0.1027320E+00  0.2970106E+00 -0.1840669E+01  0.7918555E-01  0.2862603E+00
  0.1970410E+01  0.9905930E+01 -0.1027320E+00  0.3024528E+00 -0.1841391E+01  0.8084708E-01  0.2914471E+00
  0.9899730E+00  0.1005140E+02 -0.1027320E+00  0.3058890E+00 -0.1841795E+01  0.8188470E-01  0.2947252E+00
 -0.4414850E-06  0.1010000E+02 -0.1027320E+00  0.3073751E+00 -0.1841752E+01  0.8226953E-01  0.2961607E+00
 -0.9899740E+00  0.1005140E+02 -0.1027320E+00  0.3058889E+00 -0.1841795E+01  0.8188470E-01  0.2947252E+00
 -0.1970410E+01  0.9905930E+01 -0.1027320E+00  0.3024532E+00 -0.1841391E+01  0.8084713E-01  0.2914476E+00
 -0.2931880E+01  0.9665100E+01 -0.1027320E+00  0.2970105E+00 -0.1840668E+01  0.7918542E-01  0.2862602E+00
 -0.3865100E+01  0.9331180E+01 -0.1027320E+00  0.2897475E+00 -0.1839870E+01  0.7702597E-01  0.2793217E+00
 -0.4761110E+01  0.8907400E+01 -0.1027320E+00  0.2797424E+00 -0.1839798E+01  0.7434693E-01  0.2696819E+00
 -0.5611260E+01  0.8397840E+01 -0.1027320E+00  0.2679356E+00 -0.1840088E+01  0.7128390E-01  0.2582791E+00
 -0.6407370E+01  0.7807410E+01 -0.1027320E+00  0.2544315E+00 -0.1841378E+01  0.6800740E-01  0.2451742E+00
 -0.7141780E+01  0.7141780E+01 -0.1027320E+00  0.2395329E+00 -0.1844416E+01  0.6472626E-01  0.2306220E+00
 -0.7807410E+01  0.6407370E+01 -0.1027320E+00  0.2225744E+00 -0.1850900E+01  0.6153198E-01  0.2139000E+00
 -0.8397840E+01  0.5611260E+01 -0.1027320E+00  0.2043078E+00 -0.1861187E+01  0.5849874E-01  0.1957538E+00
 -0.8907410E+01  0.4761110E+01 -0.1027320E+00  0.1850097E+00 -0.1877376E+01  0.5583584E-01  0.1763830E+00
 -0.9331180E+01  0.3865100E+01 -0.1027320E+00  0.1651269E+00 -0.1902112E+01  0.5371364E-01  0.1561466E+00
 -0.9665100E+01  0.2931880E+01 -0.1027320E+00  0.1444760E+00 -0.1941078E+01  0.5228272E-01  0.1346842E+00
 -0.9905930E+01  0.1970410E+01 -0.1027320E+00  0.1236645E+00 -0.2000387E+01  0.5150611E-01  0.1124279E+00
 -0.1005140E+02  0.9899730E+00 -0.1027320E+00  0.1034576E+00 -0.2091893E+01  0.5150446E-01  0.8972609E-01
 -0.1010000E+02 -0.8829700E-06 -0.1027320E+00  0.8497151E-01 -0.2233780E+01  0.5229754E-01  0.6697108E-01
 -0.1005140E+02 -0.9899740E+00 -0.1027320E+00  0.6979473E-01 -0.2455483E+01  0.5400133E-01  0.4421720E-01
 -0.9905930E+01 -0.1970410E+01 -0.1027320E+00  0.6044445E-01 -0.2777627E+01  0.5648489E-01  0.2151718E-01
 -0.9665100E+01 -0.2931880E+01 -0.1027320E+00  0.5970168E-01  0.3129253E+01  0.5969714E-01 -0.7367058E-03
 -0.9331180E+01 -0.3865100E+01 -0.1027320E+00  0.6725705E-01  0.2805268E+01  0.6348891E-01 -0.2219614E-01
 -0.8907400E+01 -0.4761110E+01 -0.1027320E+00  0.8003546E-01  0.2582856E+01  0.6786411E-01 -0.4242801E-01
 -0.8397840E+01 -0.5611260E+01 -0.1027320E+00  0.9539627E-01  0.2436953E+01  0.7267715E-01 -0.6179385E-01
 -0.7807400E+01 -0.6407370E+01 -0.1027320E+00  0.1114960E+00  0.2342204E+01  0.7772889E-01 -0.7993483E-01
 -0.7141780E+01 -0.7141780E+01 -0.1027320E+00  0.1272610E+00  0.2279091E+01  0.8278836E-01 -0.9665120E-01
 -0.6407370E+01 -0.7807410E+01 -0.1027320E+00  0.1416424E+00  0.2238795E+01  0.8773551E-01 -0.1111982E+00
 -0.5611260E+01 -0.8397850E+01 -0.1027320E+00  0.1549407E+00  0.2210580E+01  0.9250306E-01 -0.1242973E+00
 -0.4761110E+01 -0.8907410E+01 -0.1027320E+00  0.1667187E+00  0.2190730E+01  0.9686038E-01 -0.1356952E+00
 -0.3865100E+01 -0.9331190E+01 -0.1027320E+00  0.1767668E+00  0.2176394E+01  0.1006251E+00 -0.1453310E+00
 -0.2931870E+01 -0.9665100E+01 -0.1027320E+00  0.1841740E+00  0.2168282E+01  0.1036099E+00 -0.1522664E+00
 -0.1970410E+01 -0.9905930E+01 -0.1027320E+00  0.1897383E+00  0.2162788E+01  0.1058768E+00 -0.1574508E+00
 -0.9899710E+00 -0.1005140E+02 -0.1027320E+00  0.1932456E+00  0.2159383E+01  0.1072872E+00 -0.1607275E+00
  0.1204410E-06 -0.1010000E+02 -0.1027320E+00  0.1947313E+00  0.2157537E+01  0.1078129E+00 -0.1621624E+00
  0.9899760E+00 -0.1005140E+02 -0.1027320E+00  0.1932456E+00  0.2159382E+01  0.1072872E+00 -0.1607275E+00
  0.1970410E+01 -0.9905930E+01 -0.1027320E+00  0.1897384E+00  0.2162788E+01  0.1058768E+00 -0.1574508E+00
  0.2931880E+01 -0.9665100E+01 -0.1027320E+00  0.1841739E+00  0.2168282E+01  0.1036099E+00 -0.1522663E+00
  0.3865100E+01 -0.9331180E+01 -0.1027320E+00  0.1767672E+00  0.2176392E+01  0.1006250E+00 -0.1453315E+00
  0.4761110E+01 -0.8907410E+01 -0.1027320E+00  0.1667188E+00  0.2190729E+01  0.9686033E-01 -0.1356954E+00
  0.5611260E+01 -0.8397840E+01 -0.1027320E+00  0.1549409E+00  0.2210580E+01  0.9250311E-01 -0.1242975E+00
  0.6407370E+01 -0.7807410E+01 -0.1027320E+00  0.1416425E+00  0.2238794E+01  0.8773556E-01 -0.1111983E+00
  0.7141780E+01 -0.7141780E+01 -0.1027320E+00  0.1272611E+00  0.2279091E+01  0.8278841E-01 -0.9665129E-01
  0.7807410E+01 -0.6407370E+01 -0.1027320E+00  0.1114958E+00  0.2342205E+01  0.7772882E-01 -0.7993457E-01
  0.8397840E+01 -0.5611260E+01 -0.1027320E+00  0.9539638E-01  0.2436952E+01  0.7267720E-01 -0.6179398E-01
