 VARIABLES="X" "Y" "Z" "abs(eta) (m)" "angle(phi) (rad)" "PRE1" "PRE2"
ZONE N=   3200 ,E =    3136 ,F=FEPOINT,ET=QUADRILATERAL
  0.1100000E+02  0.0000000E+00  0.0000000E+00  0.3088674E+00  0.2678862E+01  0.2763859E+00 -0.1378764E+00
  0.1094700E+02  0.1078190E+01  0.0000000E+00  0.2753740E+00  0.2714421E+01  0.2506291E+00 -0.1140871E+00
  0.1078860E+02  0.2145990E+01  0.0000000E+00  0.2396376E+00  0.2770688E+01  0.2233422E+00 -0.8685884E-01
  0.1052630E+02  0.3193130E+01  0.0000000E+00  0.2028188E+00  0.2862895E+01  0.1949930E+00 -0.5579616E-01
  0.1016270E+02  0.4209520E+01  0.0000000E+00  0.1676483E+00  0.3013884E+01  0.1662831E+00 -0.2135207E-01
  0.9701130E+01  0.5185360E+01  0.0000000E+00  0.1389589E+00 -0.3030359E+01  0.1381002E+00  0.1542509E-01
  0.9146170E+01  0.6111270E+01  0.0000000E+00  0.1239421E+00 -0.2685566E+01  0.1112764E+00  0.5458209E-01
  0.8503110E+01  0.6978330E+01  0.0000000E+00  0.1291896E+00 -0.2302769E+01  0.8634236E-01  0.9609858E-01
  0.7778170E+01  0.7778170E+01  0.0000000E+00  0.1533082E+00 -0.1999310E+01  0.6370245E-01  0.1394467E+00
  0.6978330E+01  0.8503110E+01  0.0000000E+00  0.1887487E+00 -0.1804094E+01  0.4363629E-01  0.1836354E+00
  0.6111270E+01  0.9146170E+01  0.0000000E+00  0.2296031E+00 -0.1687570E+01  0.2675076E-01  0.2280394E+00
  0.5185360E+01  0.9701130E+01  0.0000000E+00  0.2725880E+00 -0.1619545E+01  0.1328290E-01  0.2722642E+00
  0.4209520E+01  0.1016270E+02  0.0000000E+00  0.3159415E+00 -0.1580808E+01  0.3162962E-02  0.3159257E+00
  0.3193130E+01  0.1052630E+02  0.0000000E+00  0.3584795E+00 -0.1559664E+01 -0.3990575E-02  0.3584573E+00
  0.2145990E+01  0.1078860E+02  0.0000000E+00  0.3989495E+00 -0.1550356E+01 -0.8154100E-02  0.3988662E+00
  0.1078190E+01  0.1094700E+02  0.0000000E+00  0.4367473E+00 -0.1549023E+01 -0.9508767E-02  0.4366438E+00
 -0.4808250E-06  0.1100000E+02  0.0000000E+00  0.4718803E+00 -0.1552896E+01 -0.8446420E-02  0.4718046E+00
 -0.1078190E+01  0.1094700E+02  0.0000000E+00  0.5044917E+00 -0.1559623E+01 -0.5636633E-02  0.5044603E+00
 -0.2145990E+01  0.1078860E+02  0.0000000E+00  0.5336001E+00 -0.1567873E+01 -0.1560050E-02  0.5335978E+00
 -0.3193130E+01  0.1052630E+02  0.0000000E+00  0.5588026E+00 -0.1576819E+01  0.3365549E-02  0.5587925E+00
 -0.4209520E+01  0.1016270E+02  0.0000000E+00  0.5804999E+00 -0.1585896E+01  0.8764768E-02  0.5804337E+00
 -0.5185370E+01  0.9701130E+01  0.0000000E+00  0.5993721E+00 -0.1594465E+01  0.1418483E-01  0.5992042E+00
 -0.6111270E+01  0.9146160E+01  0.0000000E+00  0.6144641E+00 -0.1601727E+01  0.1900290E-01  0.6141702E+00
 -0.6978330E+01  0.8503120E+01  0.0000000E+00  0.6253535E+00 -0.1607332E+01  0.2284251E-01  0.6249362E+00
 -0.7778170E+01  0.7778170E+01  0.0000000E+00  0.6325571E+00 -0.1611271E+01  0.2559523E-01  0.6320391E+00
 -0.8503120E+01  0.6978330E+01  0.0000000E+00  0.6369625E+00 -0.1613643E+01  0.2728345E-01  0.6363779E+00
 -0.9146170E+01  0.6111270E+01  0.0000000E+00  0.6376327E+00 -0.1613972E+01  0.2752142E-01  0.6370385E+00
 -0.9701130E+01  0.5185360E+01  0.0000000E+00  0.6340778E+00 -0.1612080E+01  0.2616936E-01  0.6335376E+00
 -0.1016270E+02  0.4209520E+01  0.0000000E+00  0.6267697E+00 -0.1608175E+01  0.2342206E-01  0.6263319E+00
 -0.1052630E+02  0.3193130E+01  0.0000000E+00  0.6166625E+00 -0.1602817E+01  0.1974239E-01  0.6163464E+00
 -0.1078860E+02  0.2145990E+01  0.0000000E+00  0.6028782E+00 -0.1596015E+01  0.1520213E-01  0.6026865E+00
 -0.1094700E+02  0.1078190E+01  0.0000000E+00  0.5849170E+00 -0.1587853E+01  0.9976120E-02  0.5848320E+00
 -0.1100000E+02 -0.9616510E-06  0.0000000E+00  0.5631894E+00 -0.1578729E+01  0.4467363E-02  0.5631717E+00
 -0.1094700E+02 -0.1078190E+01  0.0000000E+00  0.5386479E+00 -0.1569502E+01 -0.6972522E-03  0.5386474E+00
 -0.1078860E+02 -0.2146000E+01  0.0000000E+00  0.5106950E+00 -0.1561029E+01 -0.4988189E-02  0.5106707E+00
 -0.1052630E+02 -0.3193130E+01  0.0000000E+00  0.4789746E+00 -0.1554088E+01 -0.8002605E-02  0.4789077E+00
 -0.1016270E+02 -0.4209520E+01  0.0000000E+00  0.4439020E+00 -0.1549739E+01 -0.9346562E-02  0.4438036E+00
 -0.9701130E+01 -0.5185360E+01  0.0000000E+00  0.4064791E+00 -0.1549599E+01 -0.8615574E-02  0.4063878E+00
 -0.9146160E+01 -0.6111270E+01  0.0000000E+00  0.3667195E+00 -0.1556738E+01 -0.5155309E-02  0.3666833E+00
 -0.8503110E+01 -0.6978330E+01  0.0000000E+00  0.3247743E+00 -0.1575070E+01  0.1387887E-02  0.3247713E+00
 -0.7778170E+01 -0.7778180E+01  0.0000000E+00  0.2813733E+00 -0.1610317E+01  0.1111728E-01  0.2811536E+00
 -0.6978330E+01 -0.8503110E+01  0.0000000E+00  0.2379855E+00 -0.1671325E+01  0.2388416E-01  0.2367839E+00
 -0.6111270E+01 -0.9146170E+01  0.0000000E+00  0.1964502E+00 -0.1775626E+01  0.3995800E-01  0.1923435E+00
 -0.5185360E+01 -0.9701130E+01  0.0000000E+00  0.1596929E+00 -0.1951340E+01  0.5931392E-01  0.1482690E+00
 -0.4209510E+01 -0.1016270E+02  0.0000000E+00  0.1329211E+00 -0.2232128E+01  0.8163589E-01  0.1048981E+00
 -0.3193130E+01 -0.1052630E+02  0.0000000E+00  0.1233734E+00 -0.2608133E+01  0.1062310E+00  0.6273732E-01
 -0.2145990E+01 -0.1078860E+02  0.0000000E+00  0.1346267E+00 -0.2971309E+01  0.1326796E+00  0.2281409E-01
 -0.1078190E+01 -0.1094700E+02  0.0000000E+00  0.1611336E+00  0.3052450E+01  0.1604938E+00 -0.1434484E-01
  0.1311740E-06 -0.1100000E+02  0.0000000E+00  0.1953232E+00  0.2889009E+01  0.1891256E+00 -0.4881247E-01
  0.1078190E+01 -0.1094700E+02  0.0000000E+00  0.2322621E+00  0.2786397E+01  0.2177640E+00 -0.8077462E-01
  0.2145990E+01 -0.1078860E+02  0.0000000E+00  0.2686385E+00  0.2722978E+01  0.2454424E+00 -0.1092001E+00
  0.3193140E+01 -0.1052630E+02  0.0000000E+00  0.3025638E+00  0.2684041E+01  0.2714411E+00 -0.1336584E+00
  0.4209520E+01 -0.1016270E+02  0.0000000E+00  0.3333578E+00  0.2659356E+01  0.2953416E+00 -0.1545988E+00
  0.5185360E+01 -0.9701130E+01  0.0000000E+00  0.3607969E+00  0.2642239E+01  0.3167408E+00 -0.1727705E+00
  0.6111270E+01 -0.9146160E+01  0.0000000E+00  0.3833851E+00  0.2631401E+01  0.3345613E+00 -0.1872241E+00
  0.6978330E+01 -0.8503110E+01  0.0000000E+00  0.4003177E+00  0.2625477E+01  0.3481735E+00 -0.1975589E+00
  0.7778180E+01 -0.7778170E+01  0.0000000E+00  0.4118243E+00  0.2622367E+01  0.3575473E+00 -0.2043507E+00
  0.8503120E+01 -0.6978320E+01  0.0000000E+00  0.4185882E+00  0.2620045E+01  0.3629366E+00 -0.2085501E+00
  0.9146170E+01 -0.6111270E+01  0.0000000E+00  0.4194942E+00  0.2619474E+01  0.3636027E+00 -0.2092091E+00
  0.9701130E+01 -0.5185360E+01  0.0000000E+00  0.4140233E+00  0.2621307E+01  0.3592387E+00 -0.2058224E+00
  0.1016270E+02 -0.4209520E+01  0.0000000E+00  0.4027503E+00  0.2625167E+01  0.3502275E+00 -0.1988679E+00
  0.1052630E+02 -0.3193130E+01  0.0000000E+00  0.3868804E+00  0.2630327E+01  0.3374085E+00 -0.1892934E+00
  0.1078860E+02 -0.2145990E+01  0.0000000E+00  0.3658573E+00  0.2639242E+01  0.3206567E+00 -0.1761557E+00
  0.1094700E+02 -0.1078180E+01  0.0000000E+00  0.3395583E+00  0.2654660E+01  0.3000923E+00 -0.1588851E+00
  0.1100000E+02  0.0000000E+00 -0.2568960E-01  0.3084223E+00  0.2678749E+01  0.2759721E+00 -0.1377088E+00
  0.1094700E+02  0.1078190E+01 -0.2568960E-01  0.2749632E+00  0.2714356E+01  0.2502480E+00 -0.1139329E+00
  0.1078860E+02  0.2145990E+01 -0.2568960E-01  0.2392649E+00  0.2770699E+01  0.2229958E+00 -0.8672113E-01
  0.1052630E+02  0.3193130E+01 -0.2568960E-01  0.2025132E+00  0.2862806E+01  0.1946942E+00 -0.5572947E-01
  0.1016270E+02  0.4209520E+01 -0.2568960E-01  0.1673997E+00  0.3013651E+01  0.1660315E+00 -0.2135898E-01
  0.9701130E+01  0.5185360E+01 -0.2568960E-01  0.1387490E+00 -0.3030545E+01  0.1378944E+00  0.1537612E-01
  0.9146170E+01  0.6111270E+01 -0.2568960E-01  0.1237558E+00 -0.2685669E+01  0.1111148E+00  0.5448866E-01
  0.8503110E+01  0.6978330E+01 -0.2568960E-01  0.1289788E+00 -0.2302903E+01  0.8621433E-01  0.9593026E-01
  0.7778170E+01  0.7778170E+01 -0.2568960E-01  0.1530449E+00 -0.1999392E+01  0.6360458E-01  0.1392020E+00
  0.6978330E+01  0.8503110E+01 -0.2568960E-01  0.1884337E+00 -0.1804172E+01  0.4357775E-01  0.1833255E+00
  0.6111270E+01  0.9146170E+01 -0.2568960E-01  0.2292269E+00 -0.1687659E+01  0.2672714E-01  0.2276634E+00
  0.5185360E+01  0.9701130E+01 -0.2568960E-01  0.2721476E+00 -0.1619585E+01  0.1327235E-01  0.2718238E+00
  0.4209520E+01  0.1016270E+02 -0.2568960E-01  0.3154379E+00 -0.1580815E+01  0.3160318E-02  0.3154221E+00
  0.3193130E+01  0.1052630E+02 -0.2568960E-01  0.3578995E+00 -0.1559693E+01 -0.3973699E-02  0.3578775E+00
  0.2145990E+01  0.1078860E+02 -0.2568960E-01  0.3982943E+00 -0.1550403E+01 -0.8121973E-02  0.3982115E+00
  0.1078190E+01  0.1094700E+02 -0.2568960E-01  0.4360514E+00 -0.1549057E+01 -0.9478883E-02  0.4359484E+00
 -0.4808250E-06  0.1100000E+02 -0.2568960E-01  0.4711449E+00 -0.1552919E+01 -0.8422240E-02  0.4710697E+00
 -0.1078190E+01  0.1094700E+02 -0.2568960E-01  0.5036852E+00 -0.1559649E+01 -0.5614450E-02  0.5036539E+00
 -0.2145990E+01  0.1078860E+02 -0.2568960E-01  0.5327260E+00 -0.1567901E+01 -0.1542156E-02  0.5327238E+00
 -0.3193130E+01  0.1052630E+02 -0.2568960E-01  0.5579155E+00 -0.1576852E+01  0.3378402E-02  0.5579053E+00
 -0.4209520E+01  0.1016270E+02 -0.2568960E-01  0.5796014E+00 -0.1585931E+01  0.8771937E-02  0.5795350E+00
 -0.5185370E+01  0.9701130E+01 -0.2568960E-01  0.5984182E+00 -0.1594493E+01  0.1417935E-01  0.5982502E+00
 -0.6111270E+01  0.9146160E+01 -0.2568960E-01  0.6134570E+00 -0.1601748E+01  0.1898468E-01  0.6131631E+00
 -0.6978330E+01  0.8503120E+01 -0.2568960E-01  0.6243601E+00 -0.1607364E+01  0.2282627E-01  0.6239427E+00
 -0.7778170E+01  0.7778170E+01 -0.2568960E-01  0.6315798E+00 -0.1611312E+01  0.2558208E-01  0.6310615E+00
 -0.8503120E+01  0.6978330E+01 -0.2568960E-01  0.6359507E+00 -0.1613674E+01  0.2725976E-01  0.6353663E+00
 -0.9146170E+01  0.6111270E+01 -0.2568960E-01  0.6365889E+00 -0.1613991E+01  0.2748839E-01  0.6359951E+00
 -0.9701130E+01  0.5185360E+01 -0.2568960E-01  0.6330698E+00 -0.1612110E+01  0.2614682E-01  0.6325296E+00
 -0.1016270E+02  0.4209520E+01 -0.2568960E-01  0.6258017E+00 -0.1608215E+01  0.2341151E-01  0.6253636E+00
 -0.1052630E+02  0.3193130E+01 -0.2568960E-01  0.6156827E+00 -0.1602849E+01  0.1973092E-01  0.6153664E+00
 -0.1078860E+02  0.2145990E+01 -0.2568960E-01  0.6018913E+00 -0.1596037E+01  0.1519058E-01  0.6016995E+00
 -0.1094700E+02  0.1078190E+01 -0.2568960E-01  0.5839855E+00 -0.1587881E+01  0.9976765E-02  0.5839003E+00
 -0.1100000E+02 -0.9616510E-06 -0.2568960E-01  0.5623164E+00 -0.1578762E+01  0.4479390E-02  0.5622986E+00
 -0.1094700E+02 -0.1078190E+01 -0.2568960E-01  0.5377910E+00 -0.1569534E+01 -0.6786268E-03  0.5377906E+00
 -0.1078860E+02 -0.2146000E+01 -0.2568960E-01  0.5098574E+00 -0.1561060E+01 -0.4963930E-02  0.5098332E+00
 -0.1052630E+02 -0.3193130E+01 -0.2568960E-01  0.4782075E+00 -0.1554114E+01 -0.7977263E-02  0.4781410E+00
 -0.1016270E+02 -0.4209520E+01 -0.2568960E-01  0.4432089E+00 -0.1549760E+01 -0.9323024E-02  0.4431108E+00
 -0.9701130E+01 -0.5185360E+01 -0.2568960E-01  0.4058298E+00 -0.1549632E+01 -0.8588294E-02  0.4057389E+00
 -0.9146160E+01 -0.6111270E+01 -0.2568960E-01  0.3661179E+00 -0.1556790E+01 -0.5127826E-02  0.3660820E+00
 -0.8503110E+01 -0.6978330E+01 -0.2568960E-01  0.3242460E+00 -0.1575102E+01  0.1396032E-02  0.3242430E+00
 -0.7778170E+01 -0.7778180E+01 -0.2568960E-01  0.2809205E+00 -0.1610325E+01  0.1110152E-01  0.2807011E+00
 -0.6978330E+01 -0.8503110E+01 -0.2568960E-01  0.2375992E+00 -0.1671371E+01  0.2385632E-01  0.2363985E+00
 -0.6111270E+01 -0.9146170E+01 -0.2568960E-01  0.1961299E+00 -0.1775731E+01  0.3991303E-01  0.1920257E+00
 -0.5185360E+01 -0.9701130E+01 -0.2568960E-01  0.1594254E+00 -0.1951451E+01  0.5923104E-01  0.1480139E+00
 -0.4209510E+01 -0.1016270E+02 -0.2568960E-01  0.1326913E+00 -0.2232280E+01  0.8151068E-01  0.1047043E+00
 -0.3193130E+01 -0.1052630E+02 -0.2568960E-01  0.1231767E+00 -0.2608290E+01  0.1060715E+00  0.6262064E-01
 -0.2145990E+01 -0.1078860E+02 -0.2568960E-01  0.1344258E+00 -0.2971365E+01  0.1324828E+00  0.2277256E-01
 -0.1078190E+01 -0.1094700E+02 -0.2568960E-01  0.1608942E+00  0.3052301E+01  0.1602532E+00 -0.1434737E-01
  0.1311740E-06 -0.1100000E+02 -0.2568960E-01  0.1950383E+00  0.2888812E+01  0.1888402E+00 -0.4877850E-01
  0.1078190E+01 -0.1094700E+02 -0.2568960E-01  0.2319120E+00  0.2786322E+01  0.2174296E+00 -0.8066919E-01
  0.2145990E+01 -0.1078860E+02 -0.2568960E-01  0.2682178E+00  0.2722991E+01  0.2450595E+00 -0.1090260E+00
  0.3193140E+01 -0.1052630E+02 -0.2568960E-01  0.3021109E+00  0.2683986E+01  0.2710274E+00 -0.1334733E+00
  0.4209520E+01 -0.1016270E+02 -0.2568960E-01  0.3328769E+00  0.2659256E+01  0.2949000E+00 -0.1544053E+00
  0.5185360E+01 -0.9701130E+01 -0.2568960E-01  0.3602490E+00  0.2642197E+01  0.3162526E+00 -0.1725214E+00
  0.6111270E+01 -0.9146160E+01 -0.2568960E-01  0.3827747E+00  0.2631412E+01  0.3340307E+00 -0.1869223E+00
  0.6978330E+01 -0.8503110E+01 -0.2568960E-01  0.3997114E+00  0.2625442E+01  0.3476392E+00 -0.1972719E+00
  0.7778180E+01 -0.7778170E+01 -0.2568960E-01  0.4112276E+00  0.2622293E+01  0.3570142E+00 -0.2040808E+00
  0.8503120E+01 -0.6978320E+01 -0.2568960E-01  0.4179514E+00  0.2620012E+01  0.3623775E+00 -0.2082449E+00
  0.9146170E+01 -0.6111270E+01 -0.2568960E-01  0.4188239E+00  0.2619484E+01  0.3630238E+00 -0.2088712E+00
  0.9701130E+01 -0.5185360E+01 -0.2568960E-01  0.4133938E+00  0.2621273E+01  0.3586855E+00 -0.2055217E+00
  0.1016270E+02 -0.4209520E+01 -0.2568960E-01  0.4021670E+00  0.2625091E+01  0.3497051E+00 -0.1986067E+00
  0.1052630E+02 -0.3193130E+01 -0.2568960E-01  0.3862952E+00  0.2630290E+01  0.3368909E+00 -0.1890197E+00
  0.1078860E+02 -0.2145990E+01 -0.2568960E-01  0.3652758E+00  0.2639253E+01  0.3201491E+00 -0.1758720E+00
  0.1094700E+02 -0.1078180E+01 -0.2568960E-01  0.3390434E+00  0.2654615E+01  0.2996300E+00 -0.1586578E+00
  0.1100000E+02  0.0000000E+00 -0.1027320E+00  0.3070956E+00  0.2678358E+01  0.2747314E+00 -0.1372238E+00
  0.1094700E+02  0.1078190E+01 -0.1027320E+00  0.2737425E+00  0.2714069E+01  0.2491044E+00 -0.1134986E+00
  0.1078860E+02  0.2145990E+01 -0.1027320E+00  0.2381559E+00  0.2770586E+01  0.2219525E+00 -0.8634419E-01
  0.1052630E+02  0.3193130E+01 -0.1027320E+00  0.2015885E+00  0.2862420E+01  0.1937838E+00 -0.5554982E-01
  0.1016270E+02  0.4209520E+01 -0.1027320E+00  0.1666370E+00  0.3012875E+01  0.1652585E+00 -0.2138992E-01
  0.9701130E+01  0.5185360E+01 -0.1027320E+00  0.1380950E+00 -0.3031194E+01  0.1372543E+00  0.1521454E-01
  0.9146170E+01  0.6111270E+01 -0.1027320E+00  0.1231643E+00 -0.2685983E+01  0.1106007E+00  0.5419348E-01
  0.8503110E+01  0.6978330E+01 -0.1027320E+00  0.1283220E+00 -0.2303136E+01  0.8579751E-01  0.9542185E-01
  0.7778170E+01  0.7778170E+01 -0.1027320E+00  0.1522442E+00 -0.1999441E+01  0.6327850E-01  0.1384707E+00
  0.6978330E+01  0.8503110E+01 -0.1027320E+00  0.1874829E+00 -0.1804214E+01  0.4336552E-01  0.1823987E+00
  0.6111270E+01  0.9146170E+01 -0.1027320E+00  0.2281029E+00 -0.1687748E+01  0.2661627E-01  0.2265447E+00
  0.5185360E+01  0.9701130E+01 -0.1027320E+00  0.2708398E+00 -0.1619562E+01  0.1320244E-01  0.2705178E+00
  0.4209520E+01  0.1016270E+02 -0.1027320E+00  0.3139409E+00 -0.1580736E+01  0.3120353E-02  0.3139254E+00
  0.3193130E+01  0.1052630E+02 -0.1027320E+00  0.3561813E+00 -0.1559684E+01 -0.3957797E-02  0.3561593E+00
  0.2145990E+01  0.1078860E+02 -0.1027320E+00  0.3963644E+00 -0.1550457E+01 -0.8061096E-02  0.3962824E+00
  0.1078190E+01  0.1094700E+02 -0.1027320E+00  0.4339957E+00 -0.1549093E+01 -0.9418636E-02  0.4338934E+00
 -0.4808250E-06  0.1100000E+02 -0.1027320E+00  0.4689669E+00 -0.1552941E+01 -0.8373059E-02  0.4688922E+00
 -0.1078190E+01  0.1094700E+02 -0.1027320E+00  0.5013043E+00 -0.1559688E+01 -0.5568319E-02  0.5012734E+00
 -0.2145990E+01  0.1078860E+02 -0.1027320E+00  0.5301558E+00 -0.1567961E+01 -0.1503055E-02  0.5301537E+00
 -0.3193130E+01  0.1052630E+02 -0.1027320E+00  0.5552968E+00 -0.1576932E+01  0.3406927E-02  0.5552864E+00
 -0.4209520E+01  0.1016270E+02 -0.1027320E+00  0.5769426E+00 -0.1586025E+01  0.8785713E-02  0.5768757E+00
 -0.5185370E+01  0.9701130E+01 -0.1027320E+00  0.5956051E+00 -0.1594572E+01  0.1415943E-01  0.5954368E+00
 -0.6111270E+01  0.9146160E+01 -0.1027320E+00  0.6105030E+00 -0.1601814E+01  0.1893343E-01  0.6102093E+00
 -0.6978330E+01  0.8503120E+01 -0.1027320E+00  0.6214331E+00 -0.1607464E+01  0.2278150E-01  0.6210154E+00
 -0.7778170E+01  0.7778170E+01 -0.1027320E+00  0.6286868E+00 -0.1611440E+01  0.2554533E-01  0.6281676E+00
 -0.8503120E+01  0.6978330E+01 -0.1027320E+00  0.6329672E+00 -0.1613773E+01  0.2719477E-01  0.6323827E+00
 -0.9146170E+01  0.6111270E+01 -0.1027320E+00  0.6335243E+00 -0.1614058E+01  0.2739902E-01  0.6329315E+00
 -0.9701130E+01  0.5185360E+01 -0.1027320E+00  0.6300994E+00 -0.1612207E+01  0.2608532E-01  0.6295592E+00
 -0.1016270E+02  0.4209520E+01 -0.1027320E+00  0.6229351E+00 -0.1608340E+01  0.2338164E-01  0.6224961E+00
 -0.1052630E+02  0.3193130E+01 -0.1027320E+00  0.6127953E+00 -0.1602947E+01  0.1969855E-01  0.6124786E+00
 -0.1078860E+02  0.2145990E+01 -0.1027320E+00  0.5989913E+00 -0.1596102E+01  0.1515628E-01  0.5987995E+00
 -0.1094700E+02  0.1078190E+01 -0.1027320E+00  0.5812385E+00 -0.1587953E+01  0.9971549E-02  0.5811530E+00
 -0.1100000E+02 -0.9616510E-06 -0.1027320E+00  0.5597346E+00 -0.1578845E+01  0.4504915E-02  0.5597165E+00
 -0.1094700E+02 -0.1078190E+01 -0.1027320E+00  0.5352659E+00 -0.1569608E+01 -0.6361158E-03  0.5352655E+00
 -0.1078860E+02 -0.2146000E+01 -0.1027320E+00  0.5073966E+00 -0.1561118E+01 -0.4910415E-02  0.5073728E+00
 -0.1052630E+02 -0.3193130E+01 -0.1027320E+00  0.4759432E+00 -0.1554144E+01 -0.7925389E-02  0.4758773E+00
 -0.1016270E+02 -0.4209520E+01 -0.1027320E+00  0.4411542E+00 -0.1549763E+01 -0.9278370E-02  0.4410566E+00
 -0.9701130E+01 -0.5185360E+01 -0.1027320E+00  0.4039128E+00 -0.1549658E+01 -0.8537360E-02  0.4038225E+00
 -0.9146160E+01 -0.6111270E+01 -0.1027320E+00  0.3643408E+00 -0.1556846E+01 -0.5082618E-02  0.3643054E+00
 -0.8503110E+01 -0.6978330E+01 -0.1027320E+00  0.3226804E+00 -0.1575085E+01  0.1383851E-02  0.3226774E+00
 -0.7778170E+01 -0.7778180E+01 -0.1027320E+00  0.2795728E+00 -0.1610225E+01  0.1102025E-01  0.2793556E+00
 -0.6978330E+01 -0.8503110E+01 -0.1027320E+00  0.2364475E+00 -0.1671345E+01  0.2373438E-01  0.2352533E+00
 -0.6111270E+01 -0.9146170E+01 -0.1027320E+00  0.1951653E+00 -0.1775845E+01  0.3973855E-01  0.1910768E+00
 -0.5185360E+01 -0.9701130E+01 -0.1027320E+00  0.1586081E+00 -0.1951583E+01  0.5894682E-01  0.1472474E+00
 -0.4209510E+01 -0.1016270E+02 -0.1027320E+00  0.1319833E+00 -0.2232561E+01  0.8110507E-01  0.1041228E+00
 -0.3193130E+01 -0.1052630E+02 -0.1027320E+00  0.1225574E+00 -0.2608694E+01  0.1055634E+00  0.6226304E-01
 -0.2145990E+01 -0.1078860E+02 -0.1027320E+00  0.1337948E+00 -0.2971651E+01  0.1318674E+00  0.2262806E-01
 -0.1078190E+01 -0.1094700E+02 -0.1027320E+00  0.1601591E+00  0.3051732E+01  0.1595129E+00 -0.1437271E-01
  0.1311740E-06 -0.1100000E+02 -0.1027320E+00  0.1941729E+00  0.2888137E+01  0.1879694E+00 -0.4868890E-01
  0.1078190E+01 -0.1094700E+02 -0.1027320E+00  0.2308610E+00  0.2785988E+01  0.2164174E+00 -0.8037584E-01
  0.2145990E+01 -0.1078860E+02 -0.1027320E+00  0.2669730E+00  0.2722898E+01  0.2439119E+00 -0.1085428E+00
  0.3193140E+01 -0.1052630E+02 -0.1027320E+00  0.3007694E+00  0.2683736E+01  0.2697907E+00 -0.1329481E+00
  0.4209520E+01 -0.1016270E+02 -0.1027320E+00  0.3314471E+00  0.2658902E+01  0.2935791E+00 -0.1538457E+00
  0.5185360E+01 -0.9701130E+01 -0.1027320E+00  0.3586332E+00  0.2642006E+01  0.3148012E+00 -0.1718080E+00
  0.6111270E+01 -0.9146160E+01 -0.1027320E+00  0.3809894E+00  0.2631363E+01  0.3324636E+00 -0.1860668E+00
  0.6978330E+01 -0.8503110E+01 -0.1027320E+00  0.3979287E+00  0.2625282E+01  0.3460574E+00 -0.1964474E+00
  0.7778180E+01 -0.7778170E+01 -0.1027320E+00  0.4094642E+00  0.2622039E+01  0.3554316E+00 -0.2032961E+00
  0.8503120E+01 -0.6978320E+01 -0.1027320E+00  0.4160824E+00  0.2619863E+01  0.3607261E+00 -0.2073674E+00
  0.9146170E+01 -0.6111270E+01 -0.1027320E+00  0.4168682E+00  0.2619443E+01  0.3613202E+00 -0.2079107E+00
