 VARIABLES="X" "Y" "Z" "abs(eta) (m)" "angle(phi) (rad)" "PRE1" "PRE2"
ZONE N=   3200 ,E =    3136 ,F=FEPOINT,ET=QUADRILATERAL
  0.1010000E+02  0.0000000E+00  0.0000000E+00  0.3222632E+00  0.2450778E+01  0.2483770E+00 -0.2053349E+00
  0.1005140E+02  0.9899730E+00  0.0000000E+00  0.2976466E+00  0.2465632E+01  0.2321959E+00 -0.1862217E+00
  0.9905930E+01  0.1970410E+01  0.0000000E+00  0.2695737E+00  0.2487981E+01  0.2140127E+00 -0.1639163E+00
  0.9665100E+01  0.2931880E+01  0.0000000E+00  0.2387422E+00  0.2522807E+01  0.1944754E+00 -0.1384816E+00
  0.9331180E+01  0.3865100E+01  0.0000000E+00  0.2062860E+00  0.2577780E+01  0.1743579E+00 -0.1102418E+00
  0.8907400E+01  0.4761110E+01  0.0000000E+00  0.1725699E+00  0.2671533E+01  0.1538533E+00 -0.7816370E-01
  0.8397840E+01  0.5611260E+01  0.0000000E+00  0.1403007E+00  0.2827689E+01  0.1334450E+00 -0.4332123E-01
  0.7807410E+01  0.6407370E+01  0.0000000E+00  0.1140996E+00  0.3087829E+01  0.1139347E+00 -0.6131508E-02
  0.7141780E+01  0.7141780E+01  0.0000000E+00  0.1013594E+00 -0.2812508E+01  0.9592035E-01  0.3275703E-01
  0.6407370E+01  0.7807410E+01  0.0000000E+00  0.1086558E+00 -0.2395923E+01  0.7982225E-01  0.7371905E-01
  0.5611260E+01  0.8397840E+01  0.0000000E+00  0.1333771E+00 -0.2085987E+01  0.6571500E-01  0.1160647E+00
  0.4761110E+01  0.8907410E+01  0.0000000E+00  0.1680028E+00 -0.1898584E+01  0.5408845E-01  0.1590578E+00
  0.3865100E+01  0.9331180E+01  0.0000000E+00  0.2068192E+00 -0.1790256E+01  0.4502502E-01  0.2018587E+00
  0.2931870E+01  0.9665100E+01  0.0000000E+00  0.2472375E+00 -0.1728559E+01  0.3884328E-01  0.2441672E+00
  0.1970410E+01  0.9905930E+01  0.0000000E+00  0.2880619E+00 -0.1693466E+01  0.3524777E-01  0.2858973E+00
  0.9899730E+00  0.1005140E+02  0.0000000E+00  0.3280126E+00 -0.1675118E+01  0.3415690E-01  0.3262293E+00
 -0.4414850E-06  0.1010000E+02  0.0000000E+00  0.3662272E+00 -0.1666849E+01  0.3512296E-01  0.3645391E+00
 -0.9899740E+00  0.1005140E+02  0.0000000E+00  0.4018096E+00 -0.1665916E+01  0.3816234E-01  0.3999932E+00
 -0.1970410E+01  0.9905930E+01  0.0000000E+00  0.4353214E+00 -0.1669431E+01  0.4286835E-01  0.4332055E+00
 -0.2931880E+01  0.9665100E+01  0.0000000E+00  0.4661930E+00 -0.1675498E+01  0.4872194E-01  0.4636401E+00
 -0.3865100E+01  0.9331180E+01  0.0000000E+00  0.4941078E+00 -0.1682531E+01  0.5509429E-01  0.4910266E+00
 -0.4761110E+01  0.8907400E+01  0.0000000E+00  0.5178961E+00 -0.1690238E+01  0.6171167E-01  0.5142062E+00
 -0.5611260E+01  0.8397840E+01  0.0000000E+00  0.5387227E+00 -0.1698041E+01  0.6836493E-01  0.5343673E+00
 -0.6407370E+01  0.7807410E+01  0.0000000E+00  0.5562977E+00 -0.1705086E+01  0.7448082E-01  0.5512892E+00
 -0.7141780E+01  0.7141780E+01  0.0000000E+00  0.5705608E+00 -0.1710863E+01  0.7965544E-01  0.5649731E+00
 -0.7807410E+01  0.6407370E+01  0.0000000E+00  0.5800670E+00 -0.1715238E+01  0.8349469E-01  0.5740264E+00
 -0.8397840E+01  0.5611260E+01  0.0000000E+00  0.5862802E+00 -0.1718218E+01  0.8611745E-01  0.5799209E+00
 -0.8907410E+01  0.4761110E+01  0.0000000E+00  0.5890867E+00 -0.1719444E+01  0.8724399E-01  0.5825905E+00
 -0.9331180E+01  0.3865100E+01  0.0000000E+00  0.5885344E+00 -0.1718983E+01  0.8689428E-01  0.5820843E+00
 -0.9665100E+01  0.2931880E+01  0.0000000E+00  0.5831071E+00 -0.1716721E+01  0.8478787E-01  0.5769098E+00
 -0.9905930E+01  0.1970410E+01  0.0000000E+00  0.5743119E+00 -0.1712792E+01  0.8127630E-01  0.5685318E+00
 -0.1005140E+02  0.9899730E+00  0.0000000E+00  0.5621436E+00 -0.1707343E+01  0.7652050E-01  0.5569112E+00
 -0.1010000E+02 -0.8829700E-06  0.0000000E+00  0.5467752E+00 -0.1700920E+01  0.7094774E-01  0.5421526E+00
 -0.1005140E+02 -0.9899740E+00  0.0000000E+00  0.5268243E+00 -0.1693666E+01  0.6456815E-01  0.5228525E+00
 -0.9905930E+01 -0.1970410E+01  0.0000000E+00  0.5036515E+00 -0.1685725E+01  0.5775670E-01  0.5003289E+00
 -0.9665100E+01 -0.2931880E+01  0.0000000E+00  0.4773895E+00 -0.1677920E+01  0.5104206E-01  0.4746530E+00
 -0.9331180E+01 -0.3865100E+01  0.0000000E+00  0.4484305E+00 -0.1671377E+01  0.4502762E-01  0.4461641E+00
 -0.8907400E+01 -0.4761110E+01  0.0000000E+00  0.4158057E+00 -0.1667217E+01  0.4003029E-01  0.4138744E+00
 -0.8397840E+01 -0.5611260E+01  0.0000000E+00  0.3805526E+00 -0.1666122E+01  0.3622152E-01  0.3788249E+00
 -0.7807400E+01 -0.6407370E+01  0.0000000E+00  0.3431487E+00 -0.1670660E+01  0.3421134E-01  0.3414390E+00
 -0.7141780E+01 -0.7141780E+01  0.0000000E+00  0.3043269E+00 -0.1684014E+01  0.3438169E-01  0.3023785E+00
 -0.6407370E+01 -0.7807410E+01  0.0000000E+00  0.2639399E+00 -0.1711967E+01  0.3713691E-01  0.2613143E+00
 -0.5611260E+01 -0.8397850E+01  0.0000000E+00  0.2229517E+00 -0.1761805E+01  0.4232722E-01  0.2188970E+00
 -0.4761110E+01 -0.8907410E+01  0.0000000E+00  0.1828938E+00 -0.1848936E+01  0.5021666E-01  0.1758648E+00
 -0.3865100E+01 -0.9331190E+01  0.0000000E+00  0.1462315E+00 -0.1998468E+01  0.6064998E-01  0.1330610E+00
 -0.2931870E+01 -0.9665100E+01  0.0000000E+00  0.1170283E+00 -0.2253093E+01  0.7379539E-01  0.9082875E-01
 -0.1970410E+01 -0.9905930E+01  0.0000000E+00  0.1019256E+00 -0.2637753E+01  0.8925985E-01  0.4920883E-01
 -0.9899710E+00 -0.1005140E+02  0.0000000E+00  0.1071058E+00 -0.3057338E+01  0.1067259E+00  0.9013442E-02
  0.1204410E-06 -0.1010000E+02  0.0000000E+00  0.1288687E+00  0.2913520E+01  0.1255315E+00 -0.2913725E-01
  0.9899760E+00 -0.1005140E+02  0.0000000E+00  0.1590389E+00  0.2724875E+01  0.1454287E+00 -0.6437277E-01
  0.1970410E+01 -0.9905930E+01  0.0000000E+00  0.1924863E+00  0.2611317E+01  0.1660517E+00 -0.9735403E-01
  0.2931880E+01 -0.9665100E+01  0.0000000E+00  0.2261000E+00  0.2542158E+01  0.1866805E+00 -0.1275602E+00
  0.3865100E+01 -0.9331180E+01  0.0000000E+00  0.2580518E+00  0.2498592E+01  0.2065189E+00 -0.1547276E+00
  0.4761110E+01 -0.8907410E+01  0.0000000E+00  0.2866559E+00  0.2473120E+01  0.2249587E+00 -0.1776659E+00
  0.5611260E+01 -0.8397840E+01  0.0000000E+00  0.3124031E+00  0.2456767E+01  0.2419653E+00 -0.1976069E+00
  0.6407370E+01 -0.7807410E+01  0.0000000E+00  0.3345178E+00  0.2446102E+01  0.2568226E+00 -0.2143462E+00
  0.7141780E+01 -0.7141780E+01  0.0000000E+00  0.3525862E+00  0.2438818E+01  0.2690414E+00 -0.2278898E+00
  0.7807410E+01 -0.6407370E+01  0.0000000E+00  0.3650885E+00  0.2435802E+01  0.2778685E+00 -0.2368094E+00
  0.8397840E+01 -0.5611260E+01  0.0000000E+00  0.3732997E+00  0.2434095E+01  0.2837043E+00 -0.2426202E+00
  0.8907410E+01 -0.4761110E+01  0.0000000E+00  0.3769232E+00  0.2433087E+01  0.2862110E+00 -0.2452639E+00
  0.9331180E+01 -0.3865100E+01  0.0000000E+00  0.3760046E+00  0.2432667E+01  0.2854108E+00 -0.2447859E+00
  0.9665100E+01 -0.2931870E+01  0.0000000E+00  0.3690900E+00  0.2434909E+01  0.2807001E+00 -0.2396558E+00
  0.9905930E+01 -0.1970410E+01  0.0000000E+00  0.3576865E+00  0.2438125E+01  0.2727730E+00 -0.2313753E+00
  0.1005140E+02 -0.9899690E+00  0.0000000E+00  0.3419210E+00  0.2442998E+01  0.2618250E+00 -0.2199038E+00
  0.1010000E+02  0.0000000E+00 -0.2568960E-01  0.3219099E+00  0.2450673E+01  0.2480831E+00 -0.2051359E+00
  0.1005140E+02  0.9899730E+00 -0.2568960E-01  0.2973065E+00  0.2465540E+01  0.2319136E+00 -0.1860301E+00
  0.9905930E+01  0.1970410E+01 -0.2568960E-01  0.2691957E+00  0.2488078E+01  0.2137284E+00 -0.1636659E+00
  0.9665100E+01  0.2931880E+01 -0.2568960E-01  0.2384696E+00  0.2522679E+01  0.1942357E+00 -0.1383483E+00
  0.9331180E+01  0.3865100E+01 -0.2568960E-01  0.2060578E+00  0.2577571E+01  0.1741419E+00 -0.1101563E+00
  0.8907400E+01  0.4761110E+01 -0.2568960E-01  0.1723693E+00  0.2671335E+01  0.1536588E+00 -0.7810333E-01
  0.8397840E+01  0.5611260E+01 -0.2568960E-01  0.1401193E+00  0.2827837E+01  0.1332788E+00 -0.4324541E-01
  0.7807410E+01  0.6407370E+01 -0.2568960E-01  0.1139527E+00  0.3087532E+01  0.1137862E+00 -0.6157372E-02
  0.7141780E+01  0.7141780E+01 -0.2568960E-01  0.1012102E+00 -0.2812826E+01  0.9578954E-01  0.3267837E-01
  0.6407370E+01  0.7807410E+01 -0.2568960E-01  0.1084941E+00 -0.2396057E+01  0.7971333E-01  0.7359867E-01
  0.5611260E+01  0.8397840E+01 -0.2568960E-01  0.1332086E+00 -0.2086115E+01  0.6564683E-01  0.1159096E+00
  0.4761110E+01  0.8907410E+01 -0.2568960E-01  0.1677685E+00 -0.1898573E+01  0.5401114E-01  0.1588366E+00
  0.3865100E+01  0.9331180E+01 -0.2568960E-01  0.2065403E+00 -0.1790208E+01  0.4495459E-01  0.2015887E+00
  0.2931870E+01  0.9665100E+01 -0.2568960E-01  0.2469113E+00 -0.1728538E+01  0.3878681E-01  0.2438458E+00
  0.1970410E+01  0.9905930E+01 -0.2568960E-01  0.2876603E+00 -0.1693546E+01  0.3522151E-01  0.2854959E+00
  0.9899730E+00  0.1005140E+02 -0.2568960E-01  0.3275915E+00 -0.1675108E+01  0.3410968E-01  0.3258108E+00
 -0.4414850E-06  0.1010000E+02 -0.2568960E-01  0.3657697E+00 -0.1666835E+01  0.3507418E-01  0.3640841E+00
 -0.9899740E+00  0.1005140E+02 -0.2568960E-01  0.4013005E+00 -0.1665921E+01  0.3811591E-01  0.3994862E+00
 -0.1970410E+01  0.9905930E+01 -0.2568960E-01  0.4347052E+00 -0.1669476E+01  0.4282708E-01  0.4325904E+00
 -0.2931880E+01  0.9665100E+01 -0.2568960E-01  0.4656069E+00 -0.1675514E+01  0.4866834E-01  0.4630564E+00
 -0.3865100E+01  0.9331180E+01 -0.2568960E-01  0.4935023E+00 -0.1682551E+01  0.5503646E-01  0.4904238E+00
 -0.4761110E+01  0.8907400E+01 -0.2568960E-01  0.5172481E+00 -0.1690265E+01  0.6164826E-01  0.5135612E+00
 -0.5611260E+01  0.8397840E+01 -0.2568960E-01  0.5379573E+00 -0.1698070E+01  0.6828288E-01  0.5336061E+00
 -0.6407370E+01  0.7807410E+01 -0.2568960E-01  0.5556032E+00 -0.1705120E+01  0.7440624E-01  0.5505984E+00
 -0.7141780E+01  0.7141780E+01 -0.2568960E-01  0.5698662E+00 -0.1710901E+01  0.7958006E-01  0.5642823E+00
 -0.7807410E+01  0.6407370E+01 -0.2568960E-01  0.5793431E+00 -0.1715276E+01  0.8341249E-01  0.5733069E+00
 -0.8397840E+01  0.5611260E+01 -0.2568960E-01  0.5854462E+00 -0.1718239E+01  0.8600757E-01  0.5790941E+00
 -0.8907410E+01  0.4761110E+01 -0.2568960E-01  0.5883522E+00 -0.1719483E+01  0.8715821E-01  0.5818606E+00
 -0.9331180E+01  0.3865100E+01 -0.2568960E-01  0.5878192E+00 -0.1719026E+01  0.8681346E-01  0.5813732E+00
 -0.9665100E+01  0.2931880E+01 -0.2568960E-01  0.5823792E+00 -0.1716759E+01  0.8470418E-01  0.5761864E+00
 -0.9905930E+01  0.1970410E+01 -0.2568960E-01  0.5734957E+00 -0.1712816E+01  0.8117404E-01  0.5677219E+00
 -0.1005140E+02  0.9899730E+00 -0.2568960E-01  0.5614414E+00 -0.1707378E+01  0.7644437E-01  0.5562128E+00
 -0.1010000E+02 -0.8829700E-06 -0.2568960E-01  0.5461078E+00 -0.1700953E+01  0.7087886E-01  0.5414886E+00
 -0.1005140E+02 -0.9899740E+00 -0.2568960E-01  0.5261652E+00 -0.1693694E+01  0.6450194E-01  0.5221967E+00
 -0.9905930E+01 -0.1970410E+01 -0.2568960E-01  0.5029373E+00 -0.1685758E+01  0.5769133E-01  0.4996175E+00
 -0.9665100E+01 -0.2931880E+01 -0.2568960E-01  0.4767900E+00 -0.1677939E+01  0.5098702E-01  0.4740559E+00
 -0.9331180E+01 -0.3865100E+01 -0.2568960E-01  0.4478784E+00 -0.1671386E+01  0.4497586E-01  0.4456144E+00
 -0.8907400E+01 -0.4761110E+01 -0.2568960E-01  0.4152806E+00 -0.1667224E+01  0.3998249E-01  0.4133514E+00
 -0.8397840E+01 -0.5611260E+01 -0.2568960E-01  0.3800161E+00 -0.1666178E+01  0.3619151E-01  0.3782888E+00
 -0.7807400E+01 -0.6407370E+01 -0.2568960E-01  0.3427097E+00 -0.1670655E+01  0.3416558E-01  0.3410024E+00
 -0.7141780E+01 -0.7141780E+01 -0.2568960E-01  0.3039395E+00 -0.1683985E+01  0.3432911E-01  0.3019946E+00
 -0.6407370E+01 -0.7807410E+01 -0.2568960E-01  0.2635939E+00 -0.1711947E+01  0.3708293E-01  0.2609724E+00
 -0.5611260E+01 -0.8397850E+01 -0.2568960E-01  0.2226464E+00 -0.1761907E+01  0.4229164E-01  0.2185929E+00
 -0.4761110E+01 -0.8907410E+01 -0.2568960E-01  0.1826425E+00 -0.1848917E+01  0.5014431E-01  0.1756242E+00
 -0.3865100E+01 -0.9331190E+01 -0.2568960E-01  0.1460190E+00 -0.1998451E+01  0.6055962E-01  0.1328686E+00
 -0.2931870E+01 -0.9665100E+01 -0.2568960E-01  0.1168548E+00 -0.2253178E+01  0.7369365E-01  0.9068785E-01
 -0.1970410E+01 -0.9905930E+01 -0.2568960E-01  0.1018080E+00 -0.2637769E+01  0.8915766E-01  0.4915059E-01
 -0.9899710E+00 -0.1005140E+02 -0.2568960E-01  0.1069621E+00 -0.3057635E+01  0.1065853E+00  0.8969708E-02
  0.1204410E-06 -0.1010000E+02 -0.2568960E-01  0.1287113E+00  0.2913173E+01  0.1253680E+00 -0.2914520E-01
  0.9899760E+00 -0.1005140E+02 -0.2568960E-01  0.1588525E+00  0.2724656E+01  0.1452442E+00 -0.6432912E-01
  0.1970410E+01 -0.9905930E+01 -0.2568960E-01  0.1922239E+00  0.2611445E+01  0.1658378E+00 -0.9720001E-01
  0.2931880E+01 -0.9665100E+01 -0.2568960E-01  0.2258411E+00  0.2542017E+01  0.1864489E+00 -0.1274403E+00
  0.3865100E+01 -0.9331180E+01 -0.2568960E-01  0.2577688E+00  0.2498440E+01  0.2062690E+00 -0.1545895E+00
  0.4761110E+01 -0.8907410E+01 -0.2568960E-01  0.2863287E+00  0.2473024E+01  0.2246850E+00 -0.1774846E+00
  0.5611260E+01 -0.8397840E+01 -0.2568960E-01  0.3119619E+00  0.2456848E+01  0.2416397E+00 -0.1973081E+00
  0.6407370E+01 -0.7807410E+01 -0.2568960E-01  0.3341348E+00  0.2446029E+01  0.2565129E+00 -0.2141197E+00
  0.7141780E+01 -0.7141780E+01 -0.2568960E-01  0.3521991E+00  0.2438728E+01  0.2687257E+00 -0.2276636E+00
  0.7807410E+01 -0.6407370E+01 -0.2568960E-01  0.3646701E+00  0.2435742E+01  0.2775359E+00 -0.2365547E+00
  0.8397840E+01 -0.5611260E+01 -0.2568960E-01  0.3727693E+00  0.2434163E+01  0.2833176E+00 -0.2422562E+00
  0.8907410E+01 -0.4761110E+01 -0.2568960E-01  0.3764906E+00  0.2433031E+01  0.2858688E+00 -0.2449984E+00
  0.9331180E+01 -0.3865100E+01 -0.2568960E-01  0.3755913E+00  0.2432590E+01  0.2850781E+00 -0.2445390E+00
  0.9665100E+01 -0.2931870E+01 -0.2568960E-01  0.3686666E+00  0.2434850E+01  0.2803639E+00 -0.2393975E+00
  0.9905930E+01 -0.1970410E+01 -0.2568960E-01  0.3571786E+00  0.2438196E+01  0.2724021E+00 -0.2310274E+00
  0.1005140E+02 -0.9899690E+00 -0.2568960E-01  0.3415299E+00  0.2442929E+01  0.2615103E+00 -0.2196703E+00
  0.1010000E+02  0.0000000E+00 -0.1027320E+00  0.3207867E+00  0.2450462E+01  0.2471745E+00 -0.2044722E+00
  0.1005140E+02  0.9899730E+00 -0.1027320E+00  0.2962339E+00  0.2465370E+01  0.2310454E+00 -0.1853984E+00
  0.9905930E+01  0.1970410E+01 -0.1027320E+00  0.2680820E+00  0.2488292E+01  0.2128792E+00 -0.1629430E+00
  0.9665100E+01  0.2931880E+01 -0.1027320E+00  0.2376111E+00  0.2522434E+01  0.1935026E+00 -0.1378976E+00
  0.9331180E+01  0.3865100E+01 -0.1027320E+00  0.2053336E+00  0.2577139E+01  0.1734825E+00 -0.1098441E+00
  0.8907400E+01  0.4761110E+01 -0.1027320E+00  0.1717409E+00  0.2670938E+01  0.1530678E+00 -0.7787935E-01
  0.8397840E+01  0.5611260E+01 -0.1027320E+00  0.1395719E+00  0.2828152E+01  0.1327717E+00 -0.4303472E-01
  0.7807410E+01  0.6407370E+01 -0.1027320E+00  0.1135098E+00  0.3086920E+01  0.1133402E+00 -0.6202753E-02
  0.7141780E+01  0.7141780E+01 -0.1027320E+00  0.1007749E+00 -0.2813516E+01  0.9539998E-01  0.3247203E-01
  0.6407370E+01  0.7807410E+01 -0.1027320E+00  0.1080259E+00 -0.2396349E+01  0.7939064E-01  0.7325786E-01
  0.5611260E+01  0.8397840E+01 -0.1027320E+00  0.1326933E+00 -0.2086400E+01  0.6542577E-01  0.1154425E+00
  0.4761110E+01  0.8907410E+01 -0.1027320E+00  0.1670730E+00 -0.1898566E+01  0.5378624E-01  0.1581784E+00
  0.3865100E+01  0.9331180E+01 -0.1027320E+00  0.2057038E+00 -0.1790109E+01  0.4475269E-01  0.2007766E+00
  0.2931870E+01  0.9665100E+01 -0.1027320E+00  0.2459262E+00 -0.1728507E+01  0.3862449E-01  0.2428741E+00
  0.1970410E+01  0.9905930E+01 -0.1027320E+00  0.2864681E+00 -0.1693723E+01  0.3512591E-01  0.2843064E+00
  0.9899730E+00  0.1005140E+02 -0.1027320E+00  0.3263068E+00 -0.1675100E+01  0.3397320E-01  0.3245335E+00
 -0.4414850E-06  0.1010000E+02 -0.1027320E+00  0.3643658E+00 -0.1666815E+01  0.3493202E-01  0.3626874E+00
 -0.9899740E+00  0.1005140E+02 -0.1027320E+00  0.3997430E+00 -0.1665946E+01  0.3797821E-01  0.3979349E+00
 -0.1970410E+01  0.9905930E+01 -0.1027320E+00  0.4328857E+00 -0.1669582E+01  0.4269337E-01  0.4307753E+00
 -0.2931880E+01  0.9665100E+01 -0.1027320E+00  0.4638086E+00 -0.1675562E+01  0.4850214E-01  0.4612656E+00
 -0.3865100E+01  0.9331180E+01 -0.1027320E+00  0.4916353E+00 -0.1682607E+01  0.5485551E-01  0.4885654E+00
 -0.4761110E+01  0.8907400E+01 -0.1027320E+00  0.5152565E+00 -0.1690338E+01  0.6144805E-01  0.5115793E+00
 -0.5611260E+01  0.8397840E+01 -0.1027320E+00  0.5356994E+00 -0.1698145E+01  0.6803628E-01  0.5313614E+00
 -0.6407370E+01  0.7807410E+01 -0.1027320E+00  0.5534666E+00 -0.1705205E+01  0.7416717E-01  0.5484747E+00
 -0.7141780E+01  0.7141780E+01 -0.1027320E+00  0.5677187E+00 -0.1711001E+01  0.7933652E-01  0.5621479E+00
 -0.7807410E+01  0.6407370E+01 -0.1027320E+00  0.5771163E+00 -0.1715374E+01  0.8314773E-01  0.5710952E+00
 -0.8397840E+01  0.5611260E+01 -0.1027320E+00  0.5829873E+00 -0.1718303E+01  0.8568320E-01  0.5766564E+00
 -0.8907410E+01  0.4761110E+01 -0.1027320E+00  0.5860924E+00 -0.1719584E+01  0.8688184E-01  0.5796170E+00
 -0.9331180E+01  0.3865100E+01 -0.1027320E+00  0.5856051E+00 -0.1719136E+01  0.8655041E-01  0.5791739E+00
 -0.9665100E+01  0.2931880E+01 -0.1027320E+00  0.5801420E+00 -0.1716857E+01  0.8443493E-01  0.5739647E+00
 -0.9905930E+01  0.1970410E+01 -0.1027320E+00  0.5710871E+00 -0.1712883E+01  0.8087091E-01  0.5653321E+00
 -0.1005140E+02  0.9899730E+00 -0.1027320E+00  0.5592830E+00 -0.1707469E+01  0.7620066E-01  0.5540677E+00
 -0.1010000E+02 -0.8829700E-06 -0.1027320E+00  0.5440477E+00 -0.1701039E+01  0.7065810E-01  0.5394399E+00
 -0.1005140E+02 -0.9899740E+00 -0.1027320E+00  0.5241395E+00 -0.1693768E+01  0.6429174E-01  0.5201815E+00
 -0.9905930E+01 -0.1970410E+01 -0.1027320E+00  0.5008271E+00 -0.1685843E+01  0.5749155E-01  0.4975164E+00
 -0.9665100E+01 -0.2931880E+01 -0.1027320E+00  0.4749501E+00 -0.1677995E+01  0.5081679E-01  0.4722237E+00
 -0.9331180E+01 -0.3865100E+01 -0.1027320E+00  0.4461768E+00 -0.1671415E+01  0.4481787E-01  0.4439202E+00
 -0.8907400E+01 -0.4761110E+01 -0.1027320E+00  0.4136693E+00 -0.1667251E+01  0.3983831E-01  0.4117465E+00
 -0.8397840E+01 -0.5611260E+01 -0.1027320E+00  0.3784294E+00 -0.1666305E+01  0.3608837E-01  0.3767047E+00
 -0.7807400E+01 -0.6407370E+01 -0.1027320E+00  0.3413702E+00 -0.1670656E+01  0.3403249E-01  0.3396696E+00
 -0.7141780E+01 -0.7141780E+01 -0.1027320E+00  0.3027572E+00 -0.1683926E+01  0.3417788E-01  0.3008218E+00
 -0.6407370E+01 -0.7807410E+01 -0.1027320E+00  0.2625459E+00 -0.1711917E+01  0.3692790E-01  0.2599359E+00
 -0.5611260E+01 -0.8397850E+01 -0.1027320E+00  0.2217347E+00 -0.1762134E+01  0.4216786E-01  0.2176881E+00
 -0.4761110E+01 -0.8907410E+01 -0.1027320E+00  0.1818939E+00 -0.1848894E+01  0.4993470E-01  0.1749054E+00
 -0.3865100E+01 -0.9331190E+01 -0.1027320E+00  0.1453952E+00 -0.1998423E+01  0.6029716E-01  0.1323028E+00
 -0.2931870E+01 -0.9665100E+01 -0.1027320E+00  0.1163512E+00 -0.2253379E+01  0.7339431E-01  0.9028227E-01
 -0.1970410E+01 -0.9905930E+01 -0.1027320E+00  0.1014395E+00 -0.2637823E+01  0.8883756E-01  0.4896794E-01
 -0.9899710E+00 -0.1005140E+02 -0.1027320E+00  0.1065336E+00 -0.3058247E+01  0.1061638E+00  0.8868882E-02
  0.1204410E-06 -0.1010000E+02 -0.1027320E+00  0.1282277E+00  0.2912432E+01  0.1248755E+00 -0.2912816E-01
  0.9899760E+00 -0.1005140E+02 -0.1027320E+00  0.1582720E+00  0.2724220E+01  0.1446855E+00 -0.6415710E-01
  0.1970410E+01 -0.9905930E+01 -0.1027320E+00  0.1914444E+00  0.2611725E+01  0.1651924E+00 -0.9675965E-01
  0.2931880E+01 -0.9665100E+01 -0.1027320E+00  0.2250260E+00  0.2541746E+01  0.1857415E+00 -0.1270307E+00
  0.3865100E+01 -0.9331180E+01 -0.1027320E+00  0.2568690E+00  0.2498129E+01  0.2055009E+00 -0.1541138E+00
  0.4761110E+01 -0.8907410E+01 -0.1027320E+00  0.2852972E+00  0.2472845E+01  0.2238439E+00 -0.1768854E+00
  0.5611260E+01 -0.8397840E+01 -0.1027320E+00  0.3106643E+00  0.2457037E+01  0.2406717E+00 -0.1964420E+00
  0.6407370E+01 -0.7807410E+01 -0.1027320E+00  0.3329284E+00  0.2445895E+01  0.2555581E+00 -0.2133808E+00
  0.7141780E+01 -0.7141780E+01 -0.1027320E+00  0.3509692E+00  0.2438555E+01  0.2677481E+00 -0.2269149E+00
  0.7807410E+01 -0.6407370E+01 -0.1027320E+00  0.3633524E+00  0.2435637E+01  0.2765083E+00 -0.2357290E+00
  0.8397840E+01 -0.5611260E+01 -0.1027320E+00  0.3712119E+00  0.2434321E+01  0.2821721E+00 -0.2411995E+00
