 VARIABLES="X" "Y" "Z" "abs(eta) (m)" "angle(phi) (rad)" "PRE1" "PRE2"
ZONE N=   3200 ,E =    3136 ,F=FEPOINT,ET=QUADRILATERAL
  0.1010000E+02  0.0000000E+00  0.0000000E+00  0.1792939E+00  0.2647671E+01  0.1578648E+00 -0.8500001E-01
  0.1005140E+02  0.9899730E+00  0.0000000E+00  0.2125441E+00  0.2565807E+01  0.1782746E+00 -0.1157289E+00
  0.9905930E+01  0.1970410E+01  0.0000000E+00  0.2451484E+00  0.2514770E+01  0.1985445E+00 -0.1437979E+00
  0.9665100E+01  0.2931880E+01  0.0000000E+00  0.2756543E+00  0.2482427E+01  0.2179057E+00 -0.1688265E+00
  0.9331180E+01  0.3865100E+01  0.0000000E+00  0.3031243E+00  0.2461263E+01  0.2356383E+00 -0.1906802E+00
  0.8907400E+01  0.4761110E+01  0.0000000E+00  0.3260629E+00  0.2449531E+01  0.2510463E+00 -0.2080692E+00
  0.8397840E+01  0.5611260E+01  0.0000000E+00  0.3453816E+00  0.2442075E+01  0.2642698E+00 -0.2223733E+00
  0.7807410E+01  0.6407370E+01  0.0000000E+00  0.3605233E+00  0.2437167E+01  0.2747130E+00 -0.2334734E+00
  0.7141780E+01  0.7141780E+01  0.0000000E+00  0.3712770E+00  0.2433722E+01  0.2820770E+00 -0.2414108E+00
  0.6407370E+01  0.7807410E+01  0.0000000E+00  0.3761145E+00  0.2433237E+01  0.2856337E+00 -0.2446947E+00
  0.5611260E+01  0.8397840E+01  0.0000000E+00  0.3764530E+00  0.2433403E+01  0.2859313E+00 -0.2448677E+00
  0.4761110E+01  0.8907410E+01  0.0000000E+00  0.3721585E+00  0.2434093E+01  0.2828366E+00 -0.2418789E+00
  0.3865100E+01  0.9331180E+01  0.0000000E+00  0.3634428E+00  0.2435674E+01  0.2765857E+00 -0.2357774E+00
  0.2931870E+01  0.9665100E+01  0.0000000E+00  0.3489621E+00  0.2440723E+01  0.2667054E+00 -0.2250395E+00
  0.1970410E+01  0.9905930E+01  0.0000000E+00  0.3302297E+00  0.2448019E+01  0.2539354E+00 -0.2111124E+00
  0.9899730E+00  0.1005140E+02  0.0000000E+00  0.3075661E+00  0.2459142E+01  0.2386804E+00 -0.1939809E+00
 -0.4414850E-06  0.1010000E+02  0.0000000E+00  0.2816255E+00  0.2476497E+01  0.2215993E+00 -0.1738008E+00
 -0.9899740E+00  0.1005140E+02  0.0000000E+00  0.2516715E+00  0.2506766E+01  0.2026395E+00 -0.1492507E+00
 -0.1970410E+01  0.9905930E+01  0.0000000E+00  0.2192640E+00  0.2553793E+01  0.1824633E+00 -0.1215888E+00
 -0.2931880E+01  0.9665100E+01  0.0000000E+00  0.1856534E+00  0.2629386E+01  0.1618276E+00 -0.9098909E-01
 -0.3865100E+01  0.9331180E+01  0.0000000E+00  0.1528868E+00  0.2753088E+01  0.1414931E+00 -0.5791434E-01
 -0.4761110E+01  0.8907400E+01  0.0000000E+00  0.1236743E+00  0.2966267E+01  0.1217784E+00 -0.2157235E-01
 -0.5611260E+01  0.8397840E+01  0.0000000E+00  0.1044234E+00 -0.2977094E+01  0.1030138E+00  0.1710014E-01
 -0.6407370E+01  0.7807410E+01  0.0000000E+00  0.1034097E+00 -0.2551623E+01  0.8592910E-01  0.5753056E-01
 -0.7141780E+01  0.7141780E+01  0.0000000E+00  0.1217671E+00 -0.2192732E+01  0.7094263E-01  0.9896646E-01
 -0.7807410E+01  0.6407370E+01  0.0000000E+00  0.1531029E+00 -0.1962663E+01  0.5847220E-01  0.1414974E+00
 -0.8397840E+01  0.5611260E+01  0.0000000E+00  0.1908929E+00 -0.1827274E+01  0.4842472E-01  0.1846487E+00
 -0.8907410E+01  0.4761110E+01  0.0000000E+00  0.2312912E+00 -0.1749323E+01  0.4107261E-01  0.2276151E+00
 -0.9331180E+01  0.3865100E+01  0.0000000E+00  0.2720208E+00 -0.1704502E+01  0.3626249E-01  0.2695930E+00
 -0.9665100E+01  0.2931880E+01  0.0000000E+00  0.3119286E+00 -0.1680673E+01  0.3420482E-01  0.3100475E+00
 -0.9905930E+01  0.1970410E+01  0.0000000E+00  0.3508758E+00 -0.1669339E+01  0.3452025E-01  0.3491735E+00
 -0.1005140E+02  0.9899730E+00  0.0000000E+00  0.3879896E+00 -0.1666080E+01  0.3691325E-01  0.3862296E+00
 -0.1010000E+02 -0.8829700E-06  0.0000000E+00  0.4227127E+00 -0.1667498E+01  0.4081343E-01  0.4207377E+00
 -0.1005140E+02 -0.9899740E+00  0.0000000E+00  0.4540583E+00 -0.1672515E+01  0.4610657E-01  0.4517114E+00
 -0.9905930E+01 -0.1970410E+01  0.0000000E+00  0.4828794E+00 -0.1679600E+01  0.5243545E-01  0.4800240E+00
 -0.9665100E+01 -0.2931880E+01  0.0000000E+00  0.5087370E+00 -0.1687446E+01  0.5920969E-01  0.5052797E+00
 -0.9331180E+01 -0.3865100E+01  0.0000000E+00  0.5314323E+00 -0.1695023E+01  0.6584839E-01  0.5273370E+00
 -0.8907400E+01 -0.4761110E+01  0.0000000E+00  0.5496746E+00 -0.1702171E+01  0.7200579E-01  0.5449379E+00
 -0.8397840E+01 -0.5611260E+01  0.0000000E+00  0.5647755E+00 -0.1708633E+01  0.7760061E-01  0.5594189E+00
 -0.7807400E+01 -0.6407370E+01  0.0000000E+00  0.5765312E+00 -0.1713767E+01  0.8214658E-01  0.5706488E+00
 -0.7141780E+01 -0.7141780E+01  0.0000000E+00  0.5849326E+00 -0.1717315E+01  0.8539726E-01  0.5786653E+00
 -0.6407370E+01 -0.7807410E+01  0.0000000E+00  0.5884768E+00 -0.1719140E+01  0.8697718E-01  0.5820137E+00
 -0.5611260E+01 -0.8397850E+01  0.0000000E+00  0.5886797E+00 -0.1719332E+01  0.8711893E-01  0.5821976E+00
 -0.4761110E+01 -0.8907410E+01  0.0000000E+00  0.5854679E+00 -0.1717726E+01  0.8571321E-01  0.5791596E+00
 -0.3865100E+01 -0.9331190E+01  0.0000000E+00  0.5789338E+00 -0.1714583E+01  0.8295669E-01  0.5729595E+00
 -0.2931870E+01 -0.9665100E+01  0.0000000E+00  0.5675885E+00 -0.1709851E+01  0.7867164E-01  0.5621098E+00
 -0.1970410E+01 -0.9905930E+01  0.0000000E+00  0.5528979E+00 -0.1703661E+01  0.7324456E-01  0.5480249E+00
 -0.9899710E+00 -0.1005140E+02  0.0000000E+00  0.5349066E+00 -0.1696395E+01  0.6700720E-01  0.5306930E+00
  0.1204410E-06 -0.1010000E+02  0.0000000E+00  0.5138575E+00 -0.1688798E+01  0.6049551E-01  0.5102841E+00
  0.9899760E+00 -0.1005140E+02  0.0000000E+00  0.4884968E+00 -0.1681265E+01  0.5385408E-01  0.4855191E+00
  0.1970410E+01 -0.9905930E+01  0.0000000E+00  0.4600744E+00 -0.1674006E+01  0.4739975E-01  0.4576262E+00
  0.2931880E+01 -0.9665100E+01  0.0000000E+00  0.4288225E+00 -0.1668288E+01  0.4174032E-01  0.4267862E+00
  0.3865100E+01 -0.9331180E+01  0.0000000E+00  0.3952551E+00 -0.1665668E+01  0.3744247E-01  0.3934776E+00
  0.4761110E+01 -0.8907410E+01  0.0000000E+00  0.3586554E+00 -0.1668242E+01  0.3489410E-01  0.3569539E+00
  0.5611260E+01 -0.8397840E+01  0.0000000E+00  0.3199437E+00 -0.1677720E+01  0.3414448E-01  0.3181165E+00
  0.6407370E+01 -0.7807410E+01  0.0000000E+00  0.2798322E+00 -0.1698767E+01  0.3571278E-01  0.2775440E+00
  0.7141780E+01 -0.7141780E+01  0.0000000E+00  0.2393282E+00 -0.1737827E+01  0.3978961E-01  0.2359974E+00
  0.7807410E+01 -0.6407370E+01  0.0000000E+00  0.1989956E+00 -0.1807793E+01  0.4672099E-01  0.1934332E+00
  0.8397840E+01 -0.5611260E+01  0.0000000E+00  0.1604609E+00 -0.1928866E+01  0.5623624E-01  0.1502836E+00
  0.8907410E+01 -0.4761110E+01  0.0000000E+00  0.1272785E+00 -0.2137930E+01  0.6837612E-01  0.1073524E+00
  0.9331180E+01 -0.3865100E+01  0.0000000E+00  0.1055023E+00 -0.2472460E+01  0.8275174E-01  0.6544373E-01
  0.9665100E+01 -0.2931870E+01  0.0000000E+00  0.1025037E+00 -0.2893893E+01  0.9937514E-01  0.2513128E-01
  0.9905930E+01 -0.1970410E+01  0.0000000E+00  0.1186331E+00  0.3024809E+01  0.1178250E+00 -0.1382295E-01
  0.1005140E+02 -0.9899690E+00  0.0000000E+00  0.1466187E+00  0.2788577E+01  0.1375773E+00 -0.5069035E-01
  0.1010000E+02  0.0000000E+00 -0.2568960E-01  0.1790925E+00  0.2647425E+01  0.1576666E+00 -0.8494348E-01
  0.1005140E+02  0.9899730E+00 -0.2568960E-01  0.2123004E+00  0.2565657E+01  0.1780527E+00 -0.1156230E+00
  0.9905930E+01  0.1970410E+01 -0.2568960E-01  0.2448069E+00  0.2514876E+01  0.1982832E+00 -0.1435764E+00
  0.9665100E+01  0.2931880E+01 -0.2568960E-01  0.2753395E+00  0.2482326E+01  0.2176398E+00 -0.1686558E+00
  0.9331180E+01  0.3865100E+01 -0.2568960E-01  0.3027924E+00  0.2461145E+01  0.2353580E+00 -0.1904990E+00
  0.8907400E+01  0.4761110E+01 -0.2568960E-01  0.3256904E+00  0.2449455E+01  0.2507437E+00 -0.2078505E+00
  0.8397840E+01  0.5611260E+01 -0.2568960E-01  0.3448924E+00  0.2442150E+01  0.2639120E+00 -0.2220388E+00
  0.7807410E+01  0.6407370E+01 -0.2568960E-01  0.3601095E+00  0.2437105E+01  0.2743830E+00 -0.2332227E+00
  0.7141780E+01  0.7141780E+01 -0.2568960E-01  0.3708688E+00  0.2433642E+01  0.2817476E+00 -0.2411678E+00
  0.6407370E+01  0.7807410E+01 -0.2568960E-01  0.3756832E+00  0.2433180E+01  0.2852922E+00 -0.2444304E+00
  0.5611260E+01  0.8397840E+01 -0.2568960E-01  0.3759176E+00  0.2433469E+01  0.2855409E+00 -0.2445004E+00
  0.4761110E+01  0.8907410E+01 -0.2568960E-01  0.3717316E+00  0.2434036E+01  0.2824983E+00 -0.2416176E+00
  0.3865100E+01  0.9331180E+01 -0.2568960E-01  0.3630439E+00  0.2435590E+01  0.2762624E+00 -0.2355419E+00
  0.2931870E+01  0.9665100E+01 -0.2568960E-01  0.3485615E+00  0.2440656E+01  0.2663840E+00 -0.2247992E+00
  0.1970410E+01  0.9905930E+01 -0.2568960E-01  0.3297626E+00  0.2448096E+01  0.2535925E+00 -0.2107943E+00
  0.9899730E+00  0.1005140E+02 -0.2568960E-01  0.3072147E+00  0.2459057E+01  0.2383912E+00 -0.1937795E+00
 -0.4414850E-06  0.1010000E+02 -0.2568960E-01  0.2813172E+00  0.2476364E+01  0.2213336E+00 -0.1736399E+00
 -0.9899740E+00  0.1005140E+02 -0.2568960E-01  0.2513837E+00  0.2506647E+01  0.2023900E+00 -0.1491042E+00
 -0.1970410E+01  0.9905930E+01 -0.2568960E-01  0.2189611E+00  0.2553908E+01  0.1822252E+00 -0.1213998E+00
 -0.2931880E+01  0.9665100E+01 -0.2568960E-01  0.1854391E+00  0.2629205E+01  0.1616243E+00 -0.9091331E-01
 -0.3865100E+01  0.9331180E+01 -0.2568960E-01  0.1527102E+00  0.2752793E+01  0.1413127E+00 -0.5788904E-01
 -0.4761110E+01  0.8907400E+01 -0.2568960E-01  0.1235203E+00  0.2965986E+01  0.1216207E+00 -0.2157970E-01
 -0.5611260E+01  0.8397840E+01 -0.2568960E-01  0.1043010E+00 -0.2977013E+01  0.1028916E+00  0.1708844E-01
 -0.6407370E+01  0.7807410E+01 -0.2568960E-01  0.1032570E+00 -0.2551814E+01  0.8581316E-01  0.5742916E-01
 -0.7141780E+01  0.7141780E+01 -0.2568960E-01  0.1215825E+00 -0.2192784E+01  0.7084020E-01  0.9881276E-01
 -0.7807410E+01  0.6407370E+01 -0.2568960E-01  0.1528862E+00 -0.1962663E+01  0.5838940E-01  0.1412971E+00
 -0.8397840E+01  0.5611260E+01 -0.2568960E-01  0.1906354E+00 -0.1827390E+01  0.4838088E-01  0.1843940E+00
 -0.8907410E+01  0.4761110E+01 -0.2568960E-01  0.2309832E+00 -0.1749299E+01  0.4101259E-01  0.2273130E+00
 -0.9331180E+01  0.3865100E+01 -0.2568960E-01  0.2716696E+00 -0.1704464E+01  0.3620536E-01  0.2692462E+00
 -0.9665100E+01  0.2931880E+01 -0.2568960E-01  0.3115267E+00 -0.1680661E+01  0.3415708E-01  0.3096484E+00
 -0.9905930E+01  0.1970410E+01 -0.2568960E-01  0.3503826E+00 -0.1669401E+01  0.3449355E-01  0.3486806E+00
 -0.1005140E+02  0.9899730E+00 -0.2568960E-01  0.3874967E+00 -0.1666082E+01  0.3686710E-01  0.3857389E+00
 -0.1010000E+02 -0.8829700E-06 -0.2568960E-01  0.4221904E+00 -0.1667500E+01  0.4076370E-01  0.4202179E+00
 -0.1005140E+02 -0.9899740E+00 -0.2568960E-01  0.4534874E+00 -0.1672531E+01  0.4605570E-01  0.4511426E+00
 -0.9905930E+01 -0.1970410E+01 -0.2568960E-01  0.4821948E+00 -0.1679637E+01  0.5237870E-01  0.4793415E+00
 -0.9665100E+01 -0.2931880E+01 -0.2568960E-01  0.5081000E+00 -0.1687471E+01  0.5914782E-01  0.5046455E+00
 -0.9331180E+01 -0.3865100E+01 -0.2568960E-01  0.5307837E+00 -0.1695053E+01  0.6578368E-01  0.5266914E+00
 -0.8907400E+01 -0.4761110E+01 -0.2568960E-01  0.5489875E+00 -0.1702204E+01  0.7193381E-01  0.5442544E+00
 -0.8397840E+01 -0.5611260E+01 -0.2568960E-01  0.5639728E+00 -0.1708658E+01  0.7750444E-01  0.5586218E+00
 -0.7807400E+01 -0.6407370E+01 -0.2568960E-01  0.5758117E+00 -0.1713805E+01  0.8206550E-01  0.5699337E+00
 -0.7141780E+01 -0.7141780E+01 -0.2568960E-01  0.5842212E+00 -0.1717357E+01  0.8531766E-01  0.5779579E+00
 -0.6407370E+01 -0.7807410E+01 -0.2568960E-01  0.5877420E+00 -0.1719179E+01  0.8689131E-01  0.5812835E+00
 -0.5611260E+01 -0.8397850E+01 -0.2568960E-01  0.5878422E+00 -0.1719354E+01  0.8700746E-01  0.5813675E+00
 -0.4761110E+01 -0.8907410E+01 -0.2568960E-01  0.5847375E+00 -0.1717764E+01  0.8562876E-01  0.5784338E+00
 -0.3865100E+01 -0.9331190E+01 -0.2568960E-01  0.5782293E+00 -0.1714623E+01  0.8287853E-01  0.5722589E+00
 -0.2931870E+01 -0.9665100E+01 -0.2568960E-01  0.5668796E+00 -0.1709886E+01  0.7859322E-01  0.5614051E+00
 -0.1970410E+01 -0.9905930E+01 -0.2568960E-01  0.5521120E+00 -0.1703687E+01  0.7315475E-01  0.5472441E+00
 -0.9899710E+00 -0.1005140E+02 -0.2568960E-01  0.5342373E+00 -0.1696426E+01  0.6693959E-01  0.5300269E+00
  0.1204410E-06 -0.1010000E+02 -0.2568960E-01  0.5132288E+00 -0.1688823E+01  0.6043417E-01  0.5096582E+00
  0.9899760E+00 -0.1005140E+02 -0.2568960E-01  0.4878842E+00 -0.1681286E+01  0.5379647E-01  0.4849092E+00
  0.1970410E+01 -0.9905930E+01 -0.2568960E-01  0.4594232E+00 -0.1674046E+01  0.4735123E-01  0.4569766E+00
  0.2931880E+01 -0.9665100E+01 -0.2568960E-01  0.4282819E+00 -0.1668298E+01  0.4169198E-01  0.4262478E+00
  0.3865100E+01 -0.9331180E+01 -0.2568960E-01  0.3947638E+00 -0.1665663E+01  0.3739387E-01  0.3929888E+00
  0.4761110E+01 -0.8907410E+01 -0.2568960E-01  0.3581981E+00 -0.1668239E+01  0.3484843E-01  0.3564989E+00
  0.5611260E+01 -0.8397840E+01 -0.2568960E-01  0.3194961E+00 -0.1677791E+01  0.3411912E-01  0.3176691E+00
  0.6407370E+01 -0.7807410E+01 -0.2568960E-01  0.2794675E+00 -0.1698751E+01  0.3566181E-01  0.2771828E+00
  0.7141780E+01 -0.7141780E+01 -0.2568960E-01  0.2390135E+00 -0.1737783E+01  0.3972680E-01  0.2356889E+00
  0.7807410E+01 -0.6407370E+01 -0.2568960E-01  0.1987251E+00 -0.1807772E+01  0.4665341E-01  0.1931712E+00
  0.8397840E+01 -0.5611260E+01 -0.2568960E-01  0.1602499E+00 -0.1928994E+01  0.5618146E-01  0.1500789E+00
  0.8907410E+01 -0.4761110E+01 -0.2568960E-01  0.1270923E+00 -0.2137976E+01  0.6828107E-01  0.1071921E+00
  0.9331180E+01 -0.3865100E+01 -0.2568960E-01  0.1053396E+00 -0.2472639E+01  0.8263587E-01  0.6532794E-01
  0.9665100E+01 -0.2931870E+01 -0.2568960E-01  0.1023606E+00 -0.2894175E+01  0.9924354E-01  0.2506821E-01
  0.9905930E+01 -0.1970410E+01 -0.2568960E-01  0.1184862E+00  0.3024944E+01  0.1176810E+00 -0.1378994E-01
  0.1005140E+02 -0.9899690E+00 -0.2568960E-01  0.1464443E+00  0.2788336E+01  0.1374015E+00 -0.5066322E-01
  0.1010000E+02  0.0000000E+00 -0.1027320E+00  0.1784566E+00  0.2646905E+01  0.1570627E+00 -0.8472356E-01
  0.1005140E+02  0.9899730E+00 -0.1027320E+00  0.2115353E+00  0.2565364E+01  0.1773773E+00 -0.1152583E+00
  0.9905930E+01  0.1970410E+01 -0.1027320E+00  0.2437984E+00  0.2515107E+01  0.1974994E+00 -0.1429393E+00
  0.9665100E+01  0.2931880E+01 -0.1027320E+00  0.2743467E+00  0.2482126E+01  0.2168214E+00 -0.1680909E+00
  0.9331180E+01  0.3865100E+01 -0.1027320E+00  0.3017363E+00  0.2460908E+01  0.2344920E+00 -0.1898901E+00
  0.8907400E+01  0.4761110E+01 -0.1027320E+00  0.3245156E+00  0.2449318E+01  0.2498109E+00 -0.2071350E+00
  0.8397840E+01  0.5611260E+01 -0.1027320E+00  0.3434542E+00  0.2442322E+01  0.2628495E+00 -0.2210676E+00
  0.7807410E+01  0.6407370E+01 -0.1027320E+00  0.3588082E+00  0.2436992E+01  0.2733653E+00 -0.2324107E+00
  0.7141780E+01  0.7141780E+01 -0.1027320E+00  0.3695726E+00  0.2433488E+01  0.2807258E+00 -0.2403682E+00
  0.6407370E+01  0.7807410E+01 -0.1027320E+00  0.3743250E+00  0.2433083E+01  0.2842372E+00 -0.2435742E+00
  0.5611260E+01  0.8397840E+01 -0.1027320E+00  0.3743471E+00  0.2433626E+01  0.2843862E+00 -0.2434343E+00
  0.4761110E+01  0.8907410E+01 -0.1027320E+00  0.3703876E+00  0.2433935E+01  0.2814527E+00 -0.2407725E+00
  0.3865100E+01  0.9331180E+01 -0.1027320E+00  0.3617755E+00  0.2435429E+01  0.2752594E+00 -0.2347632E+00
  0.2931870E+01  0.9665100E+01 -0.1027320E+00  0.3473027E+00  0.2440535E+01  0.2653949E+00 -0.2240195E+00
  0.1970410E+01  0.9905930E+01 -0.1027320E+00  0.3283890E+00  0.2448276E+01  0.2525739E+00 -0.2098708E+00
  0.9899730E+00  0.1005140E+02 -0.1027320E+00  0.3061070E+00  0.2458902E+01  0.2375016E+00 -0.1931177E+00
 -0.4414850E-06  0.1010000E+02 -0.1027320E+00  0.2803359E+00  0.2476096E+01  0.2205150E+00 -0.1730934E+00
 -0.9899740E+00  0.1005140E+02 -0.1027320E+00  0.2504773E+00  0.2506417E+01  0.2016260E+00 -0.1486129E+00
 -0.1970410E+01  0.9905930E+01 -0.1027320E+00  0.2180650E+00  0.2554164E+01  0.1815105E+00 -0.1208565E+00
 -0.2931880E+01  0.9665100E+01 -0.1027320E+00  0.1847678E+00  0.2628849E+01  0.1610070E+00 -0.9064150E-01
 -0.3865100E+01  0.9331180E+01 -0.1027320E+00  0.1521575E+00  0.2752166E+01  0.1407649E+00 -0.5776788E-01
 -0.4761110E+01  0.8907400E+01 -0.1027320E+00  0.1230495E+00  0.2965414E+01  0.1211448E+00 -0.2156672E-01
 -0.5611260E+01  0.8397840E+01 -0.1027320E+00  0.1039203E+00 -0.2976855E+01  0.1025133E+00  0.1704227E-01
 -0.6407370E+01  0.7807410E+01 -0.1027320E+00  0.1028142E+00 -0.2552233E+01  0.8546910E-01  0.5714704E-01
 -0.7141780E+01  0.7141780E+01 -0.1027320E+00  0.1210466E+00 -0.2192903E+01  0.7053977E-01  0.9836885E-01
 -0.7807410E+01  0.6407370E+01 -0.1027320E+00  0.1522469E+00 -0.1962677E+01  0.5814723E-01  0.1407054E+00
 -0.8397840E+01  0.5611260E+01 -0.1027320E+00  0.1898638E+00 -0.1827646E+01  0.4823210E-01  0.1836353E+00
 -0.8907410E+01  0.4761110E+01 -0.1027320E+00  0.2300554E+00 -0.1749264E+01  0.4083992E-01  0.2264013E+00
 -0.9331180E+01  0.3865100E+01 -0.1027320E+00  0.2706024E+00 -0.1704387E+01  0.3604255E-01  0.2681913E+00
 -0.9665100E+01  0.2931880E+01 -0.1027320E+00  0.3103029E+00 -0.1680650E+01  0.3401954E-01  0.3084324E+00
 -0.9905930E+01  0.1970410E+01 -0.1027320E+00  0.3489218E+00 -0.1669543E+01  0.3439887E-01  0.3472220E+00
 -0.1005140E+02  0.9899730E+00 -0.1027320E+00  0.3859899E+00 -0.1666097E+01  0.3672950E-01  0.3842384E+00
 -0.1010000E+02 -0.8829700E-06 -0.1027320E+00  0.4205822E+00 -0.1667514E+01  0.4061417E-01  0.4186167E+00
 -0.1005140E+02 -0.9899740E+00 -0.1027320E+00  0.4517339E+00 -0.1672577E+01  0.4589859E-01  0.4493961E+00
 -0.9905930E+01 -0.1970410E+01 -0.1027320E+00  0.4801732E+00 -0.1679727E+01  0.5220235E-01  0.4773272E+00
 -0.9665100E+01 -0.2931880E+01 -0.1027320E+00  0.5061425E+00 -0.1687536E+01  0.5895275E-01  0.5026975E+00
 -0.9331180E+01 -0.3865100E+01 -0.1027320E+00  0.5287796E+00 -0.1695130E+01  0.6557588E-01  0.5246977E+00
 -0.8907400E+01 -0.4761110E+01 -0.1027320E+00  0.5468758E+00 -0.1702289E+01  0.7170328E-01  0.5421548E+00
 -0.8397840E+01 -0.5611260E+01 -0.1027320E+00  0.5616045E+00 -0.1708727E+01  0.7721708E-01  0.5562707E+00
 -0.7807400E+01 -0.6407370E+01 -0.1027320E+00  0.5735990E+00 -0.1713899E+01  0.8180370E-01  0.5677359E+00
 -0.7141780E+01 -0.7141780E+01 -0.1027320E+00  0.5820205E+00 -0.1717465E+01  0.8505866E-01  0.5757716E+00
 -0.6407370E+01 -0.7807410E+01 -0.1027320E+00  0.5854849E+00 -0.1719280E+01  0.8661611E-01  0.5790425E+00
 -0.5611260E+01 -0.8397850E+01 -0.1027320E+00  0.5853727E+00 -0.1719417E+01  0.8667882E-01  0.5789196E+00
 -0.4761110E+01 -0.8907410E+01 -0.1027320E+00  0.5824919E+00 -0.1717864E+01  0.8535748E-01  0.5762039E+00
 -0.3865100E+01 -0.9331190E+01 -0.1027320E+00  0.5760508E+00 -0.1714728E+01  0.8262627E-01  0.5700942E+00
 -0.2931870E+01 -0.9665100E+01 -0.1027320E+00  0.5647011E+00 -0.1709977E+01  0.7834200E-01  0.5592405E+00
 -0.1970410E+01 -0.9905930E+01 -0.1027320E+00  0.5497943E+00 -0.1703759E+01  0.7288683E-01  0.5449415E+00
 -0.9899710E+00 -0.1005140E+02 -0.1027320E+00  0.5321818E+00 -0.1696505E+01  0.6672403E-01  0.5279824E+00
  0.1204410E-06 -0.1010000E+02 -0.1027320E+00  0.5112889E+00 -0.1688891E+01  0.6024022E-01  0.5077277E+00
  0.9899760E+00 -0.1005140E+02 -0.1027320E+00  0.4860022E+00 -0.1681342E+01  0.5361598E-01  0.4830357E+00
  0.1970410E+01 -0.9905930E+01 -0.1027320E+00  0.4574986E+00 -0.1674143E+01  0.4719697E-01  0.4550576E+00
  0.2931880E+01 -0.9665100E+01 -0.1027320E+00  0.4266235E+00 -0.1668334E+01  0.4154579E-01  0.4245957E+00
  0.3865100E+01 -0.9331180E+01 -0.1027320E+00  0.3932558E+00 -0.1665660E+01  0.3724988E-01  0.3914876E+00
  0.4761110E+01 -0.8907410E+01 -0.1027320E+00  0.3568000E+00 -0.1668241E+01  0.3471323E-01  0.3551073E+00
  0.5611260E+01 -0.8397840E+01 -0.1027320E+00  0.3181675E+00 -0.1677948E+01  0.3402710E-01  0.3163427E+00
  0.6407370E+01 -0.7807410E+01 -0.1027320E+00  0.2783625E+00 -0.1698730E+01  0.3551473E-01  0.2760876E+00
  0.7141780E+01 -0.7141780E+01 -0.1027320E+00  0.2380622E+00 -0.1737690E+01  0.3954699E-01  0.2347544E+00
  0.7807410E+01 -0.6407370E+01 -0.1027320E+00  0.1979159E+00 -0.1807741E+01  0.4645757E-01  0.1923861E+00
  0.8397840E+01 -0.5611260E+01 -0.1027320E+00  0.1596127E+00 -0.1929274E+01  0.5600004E-01  0.1494664E+00
