 VARIABLES="X" "Y" "Z" "abs(eta) (m)" "angle(phi) (rad)" "PRE1" "PRE2"
ZONE N=   3200 ,E =    3136 ,F=FEPOINT,ET=QUADRILATERAL
  0.1010000E+02  0.0000000E+00  0.0000000E+00  0.1511505E+00 -0.1951454E+01  0.5615719E-01  0.1403312E+00
  0.1005140E+02  0.9899730E+00  0.0000000E+00  0.1258630E+00 -0.2044837E+01  0.5745465E-01  0.1119842E+00
  0.9905930E+01  0.1970410E+01  0.0000000E+00  0.1023154E+00 -0.2197152E+01  0.5997687E-01  0.8289276E-01
  0.9665100E+01  0.2931880E+01  0.0000000E+00  0.8343928E-01 -0.2439193E+01  0.6368873E-01  0.5390601E-01
  0.9331180E+01  0.3865100E+01  0.0000000E+00  0.7320573E-01 -0.2779590E+01  0.6846122E-01  0.2592568E-01
  0.8907400E+01  0.4761110E+01  0.0000000E+00  0.7429924E-01  0.3125699E+01  0.7428985E-01 -0.1180867E-02
  0.8397840E+01  0.5611260E+01  0.0000000E+00  0.8574621E-01  0.2812190E+01  0.8113613E-01 -0.2773700E-01
  0.7807410E+01  0.6407370E+01  0.0000000E+00  0.1033833E+00  0.2601282E+01  0.8865621E-01 -0.5318057E-01
  0.7141780E+01  0.7141780E+01  0.0000000E+00  0.1231413E+00  0.2470364E+01  0.9642673E-01 -0.7658755E-01
  0.6407370E+01  0.7807410E+01  0.0000000E+00  0.1431386E+00  0.2388270E+01  0.1044081E+00 -0.9791633E-01
  0.5611260E+01  0.8397840E+01  0.0000000E+00  0.1628044E+00  0.2334233E+01  0.1125643E+00 -0.1176203E+00
  0.4761110E+01  0.8907410E+01  0.0000000E+00  0.1813592E+00  0.2297180E+01  0.1204534E+00 -0.1355807E+00
  0.3865100E+01  0.9331180E+01  0.0000000E+00  0.1976491E+00  0.2272464E+01  0.1275810E+00 -0.1509578E+00
  0.2931870E+01  0.9665100E+01  0.0000000E+00  0.2113683E+00  0.2256810E+01  0.1338930E+00 -0.1635519E+00
  0.1970410E+01  0.9905930E+01  0.0000000E+00  0.2228447E+00  0.2246548E+01  0.1393858E+00 -0.1738717E+00
  0.9899730E+00  0.1005140E+02  0.0000000E+00  0.2320852E+00  0.2238903E+01  0.1437769E+00 -0.1821860E+00
 -0.4414850E-06  0.1010000E+02  0.0000000E+00  0.2383558E+00  0.2234103E+01  0.1467617E+00 -0.1878150E+00
 -0.9899740E+00  0.1005140E+02  0.0000000E+00  0.2413193E+00  0.2232534E+01  0.1482879E+00 -0.1903830E+00
 -0.1970410E+01  0.9905930E+01  0.0000000E+00  0.2413658E+00  0.2232919E+01  0.1483898E+00 -0.1903626E+00
 -0.2931880E+01  0.9665100E+01  0.0000000E+00  0.2389471E+00  0.2234021E+01  0.1471104E+00 -0.1882929E+00
 -0.3865100E+01  0.9331180E+01  0.0000000E+00  0.2336873E+00  0.2237303E+01  0.1444758E+00 -0.1836749E+00
 -0.4761110E+01  0.8907400E+01  0.0000000E+00  0.2252009E+00  0.2244278E+01  0.1404604E+00 -0.1760293E+00
 -0.5611260E+01  0.8397840E+01  0.0000000E+00  0.2137968E+00  0.2254906E+01  0.1351160E+00 -0.1656887E+00
 -0.6407370E+01  0.7807410E+01  0.0000000E+00  0.2002868E+00  0.2269339E+01  0.1288049E+00 -0.1533757E+00
 -0.7141780E+01  0.7141780E+01  0.0000000E+00  0.1847665E+00  0.2290974E+01  0.1218570E+00 -0.1388868E+00
 -0.7807410E+01  0.6407370E+01  0.0000000E+00  0.1669568E+00  0.2324726E+01  0.1142834E+00 -0.1217123E+00
 -0.8397840E+01  0.5611260E+01  0.0000000E+00  0.1472265E+00  0.2375938E+01  0.1061399E+00 -0.1020293E+00
 -0.8907410E+01  0.4761110E+01  0.0000000E+00  0.1268850E+00  0.2452395E+01  0.9792436E-01 -0.8068842E-01
 -0.9331180E+01  0.3865100E+01  0.0000000E+00  0.1070918E+00  0.2570283E+01  0.9008487E-01 -0.5790820E-01
 -0.9665100E+01  0.2931880E+01  0.0000000E+00  0.8909705E-01  0.2759076E+01  0.8265783E-01 -0.3325607E-01
 -0.9905930E+01  0.1970410E+01  0.0000000E+00  0.7597606E-01  0.3052898E+01  0.7567741E-01 -0.6729831E-02
 -0.1005140E+02  0.9899730E+00  0.0000000E+00  0.7254723E-01 -0.2851921E+01  0.6952474E-01  0.2072221E-01
 -0.1010000E+02 -0.8829700E-06  0.0000000E+00  0.8067715E-01 -0.2497040E+01  0.6449077E-01  0.4847415E-01
 -0.1005140E+02 -0.9899740E+00  0.0000000E+00  0.9785099E-01 -0.2238832E+01  0.6061329E-01  0.7681696E-01
 -0.9905930E+01 -0.1970410E+01  0.0000000E+00  0.1206967E+00 -0.2071008E+01  0.5788752E-01  0.1059091E+00
 -0.9665100E+01 -0.2931880E+01  0.0000000E+00  0.1462025E+00 -0.1966607E+01  0.5636928E-01  0.1348987E+00
 -0.9331180E+01 -0.3865100E+01  0.0000000E+00  0.1722522E+00 -0.1902072E+01  0.5602496E-01  0.1628866E+00
 -0.8907400E+01 -0.4761110E+01  0.0000000E+00  0.1983329E+00 -0.1861595E+01  0.5686552E-01  0.1900059E+00
 -0.8397840E+01 -0.5611260E+01  0.0000000E+00  0.2244327E+00 -0.1836126E+01  0.5885237E-01  0.2165789E+00
 -0.7807400E+01 -0.6407370E+01  0.0000000E+00  0.2497835E+00 -0.1820433E+01  0.6170952E-01  0.2420408E+00
 -0.7141780E+01 -0.7141780E+01  0.0000000E+00  0.2733363E+00 -0.1811328E+01  0.6511378E-01  0.2654674E+00
 -0.6407370E+01 -0.7807410E+01  0.0000000E+00  0.2950136E+00 -0.1807056E+01  0.6905332E-01  0.2868182E+00
 -0.5611260E+01 -0.8397850E+01  0.0000000E+00  0.3152299E+00 -0.1806054E+01  0.7347821E-01  0.3065466E+00
 -0.4761110E+01 -0.8907410E+01  0.0000000E+00  0.3337659E+00 -0.1806613E+01  0.7798018E-01  0.3245285E+00
 -0.3865100E+01 -0.9331190E+01  0.0000000E+00  0.3497133E+00 -0.1807941E+01  0.8215740E-01  0.3399258E+00
 -0.2931870E+01 -0.9665100E+01  0.0000000E+00  0.3628750E+00 -0.1810040E+01  0.8598965E-01  0.3525394E+00
 -0.1970410E+01 -0.9905930E+01  0.0000000E+00  0.3737382E+00 -0.1812474E+01  0.8944748E-01  0.3628765E+00
 -0.9899710E+00 -0.1005140E+02  0.0000000E+00  0.3824923E+00 -0.1814362E+01  0.9224367E-01  0.3712028E+00
  0.1204410E-06 -0.1010000E+02  0.0000000E+00  0.3884217E+00 -0.1815607E+01  0.9414298E-01  0.3768402E+00
  0.9899760E+00 -0.1005140E+02  0.0000000E+00  0.3911569E+00 -0.1816459E+01  0.9512908E-01  0.3794130E+00
  0.1970410E+01 -0.9905930E+01  0.0000000E+00  0.3911571E+00 -0.1816653E+01  0.9520257E-01  0.3793947E+00
  0.2931880E+01 -0.9665100E+01  0.0000000E+00  0.3889407E+00 -0.1815858E+01  0.9436341E-01  0.3773200E+00
  0.3865100E+01 -0.9331180E+01  0.0000000E+00  0.3840428E+00 -0.1814512E+01  0.9267324E-01  0.3726936E+00
  0.4761110E+01 -0.8907410E+01  0.0000000E+00  0.3760006E+00 -0.1812886E+01  0.9013941E-01  0.3650361E+00
  0.5611260E+01 -0.8397840E+01  0.0000000E+00  0.3651419E+00 -0.1810746E+01  0.8677749E-01  0.3546805E+00
  0.6407370E+01 -0.7807410E+01  0.0000000E+00  0.3522357E+00 -0.1808304E+01  0.8287422E-01  0.3423476E+00
  0.7141780E+01 -0.7141780E+01  0.0000000E+00  0.3371653E+00 -0.1806561E+01  0.7875716E-01  0.3278379E+00
  0.7807410E+01 -0.6407370E+01  0.0000000E+00  0.3194416E+00 -0.1806060E+01  0.7446156E-01  0.3106419E+00
  0.8397840E+01 -0.5611260E+01  0.0000000E+00  0.2992417E+00 -0.1806939E+01  0.7000882E-01  0.2909370E+00
  0.8907410E+01 -0.4761110E+01  0.0000000E+00  0.2774876E+00 -0.1810215E+01  0.6580278E-01  0.2695726E+00
  0.9331180E+01 -0.3865100E+01  0.0000000E+00  0.2545015E+00 -0.1817896E+01  0.6224931E-01  0.2467712E+00
  0.9665100E+01 -0.2931870E+01  0.0000000E+00  0.2299057E+00 -0.1832116E+01  0.5939738E-01  0.2221003E+00
  0.9905930E+01 -0.1970410E+01  0.0000000E+00  0.2037681E+00 -0.1855613E+01  0.5725507E-01  0.1955589E+00
  0.1005140E+02 -0.9899690E+00  0.0000000E+00  0.1772078E+00 -0.1892929E+01  0.5610225E-01  0.1680926E+00
  0.1010000E+02  0.0000000E+00 -0.2568960E-01  0.1510124E+00 -0.1951432E+01  0.5610274E-01  0.1402042E+00
  0.1005140E+02  0.9899730E+00 -0.2568960E-01  0.1257419E+00 -0.2044762E+01  0.5739085E-01  0.1118808E+00
  0.9905930E+01  0.1970410E+01 -0.2568960E-01  0.1022192E+00 -0.2197153E+01  0.5992056E-01  0.8281477E-01
  0.9665100E+01  0.2931880E+01 -0.2568960E-01  0.8334938E-01 -0.2439183E+01  0.6361958E-01  0.5384858E-01
  0.9331180E+01  0.3865100E+01 -0.2568960E-01  0.7313410E-01 -0.2779661E+01  0.6839609E-01  0.2589539E-01
  0.8907400E+01  0.4761110E+01 -0.2568960E-01  0.7422500E-01  0.3125343E+01  0.7421520E-01 -0.1206109E-02
  0.8397840E+01  0.5611260E+01 -0.2568960E-01  0.8567011E-01  0.2812115E+01  0.8106203E-01 -0.2771847E-01
  0.7807410E+01  0.6407370E+01 -0.2568960E-01  0.1033021E+00  0.2600991E+01  0.8857115E-01 -0.5316468E-01
  0.7141780E+01  0.7141780E+01 -0.2568960E-01  0.1230373E+00  0.2470286E+01  0.9633936E-01 -0.7653037E-01
  0.6407370E+01  0.7807410E+01 -0.2568960E-01  0.1430424E+00  0.2388047E+01  0.1043162E+00 -0.9787367E-01
  0.5611260E+01  0.8397840E+01 -0.2568960E-01  0.1626642E+00  0.2334195E+01  0.1124629E+00 -0.1175233E+00
  0.4761110E+01  0.8907410E+01 -0.2568960E-01  0.1812355E+00  0.2297019E+01  0.1203494E+00 -0.1355076E+00
  0.3865100E+01  0.9331180E+01 -0.2568960E-01  0.1974847E+00  0.2272420E+01  0.1274682E+00 -0.1508378E+00
  0.2931870E+01  0.9665100E+01 -0.2568960E-01  0.2112294E+00  0.2256681E+01  0.1337838E+00 -0.1634618E+00
  0.1970410E+01  0.9905930E+01 -0.2568960E-01  0.2226528E+00  0.2246527E+01  0.1392621E+00 -0.1737249E+00
  0.9899730E+00  0.1005140E+02 -0.2568960E-01  0.2319303E+00  0.2238791E+01  0.1436606E+00 -0.1820804E+00
 -0.4414850E-06  0.1010000E+02 -0.2568960E-01  0.2381572E+00  0.2234073E+01  0.1466339E+00 -0.1876629E+00
 -0.9899740E+00  0.1005140E+02 -0.2568960E-01  0.2411592E+00  0.2232432E+01  0.1481701E+00 -0.1902719E+00
 -0.1970410E+01  0.9905930E+01 -0.2568960E-01  0.2411583E+00  0.2232899E+01  0.1482586E+00 -0.1902018E+00
 -0.2931880E+01  0.9665100E+01 -0.2568960E-01  0.2387889E+00  0.2233916E+01  0.1469932E+00 -0.1881838E+00
 -0.3865100E+01  0.9331180E+01 -0.2568960E-01  0.2334928E+00  0.2237271E+01  0.1443496E+00 -0.1835268E+00
 -0.4761110E+01  0.8907400E+01 -0.2568960E-01  0.2250505E+00  0.2244160E+01  0.1403459E+00 -0.1759283E+00
 -0.5611260E+01  0.8397840E+01 -0.2568960E-01  0.2136126E+00  0.2254883E+01  0.1349958E+00 -0.1655490E+00
 -0.6407370E+01  0.7807410E+01 -0.2568960E-01  0.2001548E+00  0.2269198E+01  0.1286984E+00 -0.1532927E+00
 -0.7141780E+01  0.7141780E+01 -0.2568960E-01  0.1846122E+00  0.2290927E+01  0.1217487E+00 -0.1387766E+00
 -0.7807410E+01  0.6407370E+01 -0.2568960E-01  0.1668422E+00  0.2324548E+01  0.1141833E+00 -0.1216491E+00
 -0.8397840E+01  0.5611260E+01 -0.2568960E-01  0.1470994E+00  0.2375897E+01  0.1060440E+00 -0.1019456E+00
 -0.8907410E+01  0.4761110E+01 -0.2568960E-01  0.1267971E+00  0.2452139E+01  0.9783588E-01 -0.8065759E-01
 -0.9331180E+01  0.3865100E+01 -0.2568960E-01  0.1070002E+00  0.2570185E+01  0.9000217E-01 -0.5786750E-01
 -0.9665100E+01  0.2931880E+01 -0.2568960E-01  0.8902062E-01  0.2758757E+01  0.8257632E-01 -0.3325389E-01
 -0.9905930E+01  0.1970410E+01 -0.2568960E-01  0.7590663E-01  0.3052819E+01  0.7560772E-01 -0.6729635E-02
 -0.1005140E+02  0.9899730E+00 -0.2568960E-01  0.7246680E-01 -0.2852173E+01  0.6945289E-01  0.2068172E-01
 -0.1010000E+02 -0.8829700E-06 -0.2568960E-01  0.8059838E-01 -0.2497069E+01  0.6442921E-01  0.4842496E-01
 -0.1005140E+02 -0.9899740E+00 -0.2568960E-01  0.9775229E-01 -0.2238760E+01  0.6054661E-01  0.7674385E-01
 -0.9905930E+01 -0.1970410E+01 -0.2568960E-01  0.1205846E+00 -0.2071003E+01  0.5783316E-01  0.1058110E+00
 -0.9665100E+01 -0.2931880E+01 -0.2568960E-01  0.1460684E+00 -0.1966526E+01  0.5630665E-01  0.1347796E+00
 -0.9331180E+01 -0.3865100E+01 -0.2568960E-01  0.1720967E+00 -0.1902051E+01  0.5597100E-01  0.1627406E+00
 -0.8907400E+01 -0.4761110E+01 -0.2568960E-01  0.1981709E+00 -0.1861522E+01  0.5680522E-01  0.1898549E+00
 -0.8397840E+01 -0.5611260E+01 -0.2568960E-01  0.2242305E+00 -0.1836119E+01  0.5879787E-01  0.2163843E+00
 -0.7807400E+01 -0.6407370E+01 -0.2568960E-01  0.2495811E+00 -0.1820379E+01  0.6164653E-01  0.2418479E+00
 -0.7141780E+01 -0.7141780E+01 -0.2568960E-01  0.2730954E+00 -0.1811318E+01  0.6505385E-01  0.2652341E+00
 -0.6407370E+01 -0.7807410E+01 -0.2568960E-01  0.2947856E+00 -0.1807022E+01  0.6899014E-01  0.2865988E+00
 -0.5611260E+01 -0.8397850E+01 -0.2568960E-01  0.3149486E+00 -0.1806053E+01  0.7341213E-01  0.3062732E+00
 -0.4761110E+01 -0.8907410E+01 -0.2568960E-01  0.3335071E+00 -0.1806588E+01  0.7791163E-01  0.3242788E+00
 -0.3865100E+01 -0.9331190E+01 -0.2568960E-01  0.3494082E+00 -0.1807939E+01  0.8208504E-01  0.3396294E+00
 -0.2931870E+01 -0.9665100E+01 -0.2568960E-01  0.3625990E+00 -0.1810027E+01  0.8591980E-01  0.3522723E+00
 -0.1970410E+01 -0.9905930E+01 -0.2568960E-01  0.3734052E+00 -0.1812476E+01  0.8936843E-01  0.3625531E+00
 -0.9899710E+00 -0.1005140E+02 -0.2568960E-01  0.3822009E+00 -0.1814354E+01  0.9217029E-01  0.3709207E+00
  0.1204410E-06 -0.1010000E+02 -0.2568960E-01  0.3880836E+00 -0.1815609E+01  0.9406164E-01  0.3765120E+00
  0.9899760E+00 -0.1005140E+02 -0.2568960E-01  0.3908605E+00 -0.1816453E+01  0.9505482E-01  0.3791260E+00
  0.1970410E+01 -0.9905930E+01 -0.2568960E-01  0.3908090E+00 -0.1816656E+01  0.9511900E-01  0.3790568E+00
  0.2931880E+01 -0.9665100E+01 -0.2568960E-01  0.3886457E+00 -0.1815853E+01  0.9428968E-01  0.3770344E+00
  0.3865100E+01 -0.9331180E+01 -0.2568960E-01  0.3837081E+00 -0.1814513E+01  0.9259306E-01  0.3723687E+00
  0.4761110E+01 -0.8907410E+01 -0.2568960E-01  0.3757134E+00 -0.1812875E+01  0.9006630E-01  0.3647583E+00
  0.5611260E+01 -0.8397840E+01 -0.2568960E-01  0.3648167E+00 -0.1810747E+01  0.8670042E-01  0.3543645E+00
  0.6407370E+01 -0.7807410E+01 -0.2568960E-01  0.3519679E+00 -0.1808287E+01  0.8280546E-01  0.3420886E+00
  0.7141780E+01 -0.7141780E+01 -0.2568960E-01  0.3368704E+00 -0.1806558E+01  0.7868734E-01  0.3275515E+00
  0.7807410E+01 -0.6407370E+01 -0.2568960E-01  0.3191923E+00 -0.1806031E+01  0.7439442E-01  0.3104017E+00
  0.8397840E+01 -0.5611260E+01 -0.2568960E-01  0.2989740E+00 -0.1806938E+01  0.6994576E-01  0.2906769E+00
  0.8907410E+01 -0.4761110E+01 -0.2568960E-01  0.2772715E+00 -0.1810175E+01  0.6574070E-01  0.2693653E+00
  0.9331180E+01 -0.3865100E+01 -0.2568960E-01  0.2542767E+00 -0.1817885E+01  0.6219159E-01  0.2465539E+00
  0.9665100E+01 -0.2931870E+01 -0.2568960E-01  0.2297166E+00 -0.1832055E+01  0.5933503E-01  0.2219213E+00
  0.9905930E+01 -0.1970410E+01 -0.2568960E-01  0.2035837E+00 -0.1855605E+01  0.5720169E-01  0.1953824E+00
  0.1005140E+02 -0.9899690E+00 -0.2568960E-01  0.1770594E+00 -0.1892845E+01  0.5604122E-01  0.1679565E+00
  0.1010000E+02  0.0000000E+00 -0.1027320E+00  0.1505926E+00 -0.1951367E+01  0.5593763E-01  0.1398182E+00
  0.1005140E+02  0.9899730E+00 -0.1027320E+00  0.1253775E+00 -0.2044678E+01  0.5721523E-01  0.1115614E+00
  0.9905930E+01  0.1970410E+01 -0.1027320E+00  0.1019299E+00 -0.2197120E+01  0.5974825E-01  0.8258241E-01
  0.9665100E+01  0.2931880E+01 -0.1027320E+00  0.8310474E-01 -0.2439063E+01  0.6342635E-01  0.5369820E-01
  0.9331180E+01  0.3865100E+01 -0.1027320E+00  0.7292072E-01 -0.2779747E+01  0.6819876E-01  0.2581398E-01
  0.8907400E+01  0.4761110E+01 -0.1027320E+00  0.7401244E-01  0.3124861E+01  0.7400209E-01 -0.1238317E-02
  0.8397840E+01  0.5611260E+01 -0.1027320E+00  0.8543325E-01  0.2812030E+01  0.8083556E-01 -0.2764873E-01
  0.7807410E+01  0.6407370E+01 -0.1027320E+00  0.1030247E+00  0.2600726E+01  0.8831925E-01 -0.5304527E-01
  0.7141780E+01  0.7141780E+01 -0.1027320E+00  0.1227108E+00  0.2470171E+01  0.9607495E-01 -0.7633834E-01
  0.6407370E+01  0.7807410E+01 -0.1027320E+00  0.1426912E+00  0.2387822E+01  0.1040381E+00 -0.9765678E-01
  0.5611260E+01  0.8397840E+01 -0.1027320E+00  0.1622261E+00  0.2334190E+01  0.1121594E+00 -0.1172074E+00
  0.4761110E+01  0.8907410E+01 -0.1027320E+00  0.1807780E+00  0.2296892E+01  0.1200284E+00 -0.1351808E+00
  0.3865100E+01  0.9331180E+01 -0.1027320E+00  0.1969679E+00  0.2272399E+01  0.1271314E+00 -0.1504458E+00
  0.2931870E+01  0.9665100E+01 -0.1027320E+00  0.2107116E+00  0.2256593E+01  0.1334415E+00 -0.1630729E+00
  0.1970410E+01  0.9905930E+01 -0.1027320E+00  0.2220546E+00  0.2246556E+01  0.1388930E+00 -0.1732541E+00
  0.9899730E+00  0.1005140E+02 -0.1027320E+00  0.2313536E+00  0.2238727E+01  0.1432918E+00 -0.1816368E+00
 -0.4414850E-06  0.1010000E+02 -0.1027320E+00  0.2375347E+00  0.2234083E+01  0.1462524E+00 -0.1871709E+00
 -0.9899740E+00  0.1005140E+02 -0.1027320E+00  0.2405638E+00  0.2232378E+01  0.1477941E+00 -0.1898099E+00
 -0.1970410E+01  0.9905930E+01 -0.1027320E+00  0.2405097E+00  0.2232939E+01  0.1478674E+00 -0.1896844E+00
 -0.2931880E+01  0.9665100E+01 -0.1027320E+00  0.2382001E+00  0.2233862E+01  0.1466207E+00 -0.1877275E+00
 -0.3865100E+01  0.9331180E+01 -0.1027320E+00  0.2328826E+00  0.2237278E+01  0.1439738E+00 -0.1830460E+00
 -0.4761110E+01  0.8907400E+01 -0.1027320E+00  0.2244897E+00  0.2244089E+01  0.1399837E+00 -0.1754999E+00
 -0.5611260E+01  0.8397840E+01 -0.1027320E+00  0.2130385E+00  0.2254909E+01  0.1346372E+00 -0.1651006E+00
 -0.6407370E+01  0.7807410E+01 -0.1027320E+00  0.1996651E+00  0.2269094E+01  0.1283676E+00 -0.1529311E+00
 -0.7141780E+01  0.7141780E+01 -0.1027320E+00  0.1841284E+00  0.2290893E+01  0.1214248E+00 -0.1384171E+00
 -0.7807410E+01  0.6407370E+01 -0.1027320E+00  0.1664185E+00  0.2324401E+01  0.1138755E+00 -0.1213568E+00
 -0.8397840E+01  0.5611260E+01 -0.1027320E+00  0.1467024E+00  0.2375880E+01  0.1057561E+00 -0.1016723E+00
 -0.8907410E+01  0.4761110E+01 -0.1027320E+00  0.1264842E+00  0.2451861E+01  0.9757198E-01 -0.8048571E-01
 -0.9331180E+01  0.3865100E+01 -0.1027320E+00  0.1067136E+00  0.2570043E+01  0.8975288E-01 -0.5772525E-01
 -0.9665100E+01  0.2931880E+01 -0.1027320E+00  0.8877347E-01  0.2758478E+01  0.8233781E-01 -0.3318454E-01
 -0.9905930E+01  0.1970410E+01 -0.1027320E+00  0.7569389E-01  0.3052733E+01  0.7539525E-01 -0.6717278E-02
 -0.1005140E+02  0.9899730E+00 -0.1027320E+00  0.7224724E-01 -0.2852540E+01  0.6925001E-01  0.2059367E-01
 -0.1010000E+02 -0.8829700E-06 -0.1027320E+00  0.8036331E-01 -0.2497075E+01  0.6424158E-01  0.4828334E-01
 -0.1005140E+02 -0.9899740E+00 -0.1027320E+00  0.9747413E-01 -0.2238593E+01  0.6036156E-01  0.7653554E-01
 -0.9905930E+01 -0.1970410E+01 -0.1027320E+00  0.1202456E+00 -0.2070964E+01  0.5766653E-01  0.1055157E+00
 -0.9665100E+01 -0.2931880E+01 -0.1027320E+00  0.1456537E+00 -0.1966430E+01  0.5613390E-01  0.1344023E+00
 -0.9331180E+01 -0.3865100E+01 -0.1027320E+00  0.1716218E+00 -0.1901994E+01  0.5580730E-01  0.1622947E+00
 -0.8907400E+01 -0.4761110E+01 -0.1027320E+00  0.1976480E+00 -0.1861428E+01  0.5663748E-01  0.1893593E+00
 -0.8397840E+01 -0.5611260E+01 -0.1027320E+00  0.2236110E+00 -0.1836109E+01  0.5863317E-01  0.2157869E+00
 -0.7807400E+01 -0.6407370E+01 -0.1027320E+00  0.2489096E+00 -0.1820323E+01  0.6146702E-01  0.2412007E+00
 -0.7141780E+01 -0.7141780E+01 -0.1027320E+00  0.2723536E+00 -0.1811309E+01  0.6487471E-01  0.2645142E+00
 -0.6407370E+01 -0.7807410E+01 -0.1027320E+00  0.2940183E+00 -0.1807004E+01  0.6880534E-01  0.2858542E+00
 -0.5611260E+01 -0.8397850E+01 -0.1027320E+00  0.3140817E+00 -0.1806072E+01  0.7321578E-01  0.3054288E+00
 -0.4761110E+01 -0.8907410E+01 -0.1027320E+00  0.3326269E+00 -0.1806582E+01  0.7770412E-01  0.3234235E+00
 -0.3865100E+01 -0.9331190E+01 -0.1027320E+00  0.3484633E+00 -0.1807963E+01  0.8187134E-01  0.3387090E+00
 -0.2931870E+01 -0.9665100E+01 -0.1027320E+00  0.3616570E+00 -0.1810050E+01  0.8570471E-01  0.3513552E+00
 -0.1970410E+01 -0.9905930E+01 -0.1027320E+00  0.3723801E+00 -0.1812513E+01  0.8913672E-01  0.3615544E+00
 -0.9899710E+00 -0.1005140E+02 -0.1027320E+00  0.3812019E+00 -0.1814378E+01  0.9193844E-01  0.3699489E+00
  0.1204410E-06 -0.1010000E+02 -0.1027320E+00  0.3870361E+00 -0.1815651E+01  0.9382353E-01  0.3754918E+00
  0.9899760E+00 -0.1005140E+02 -0.1027320E+00  0.3898428E+00 -0.1816488E+01  0.9482037E-01  0.3781355E+00
  0.1970410E+01 -0.9905930E+01 -0.1027320E+00  0.3897367E+00 -0.1816698E+01  0.9487396E-01  0.3780127E+00
  0.2931880E+01 -0.9665100E+01 -0.1027320E+00  0.3876347E+00 -0.1815887E+01  0.9405735E-01  0.3760504E+00
  0.3865100E+01 -0.9331180E+01 -0.1027320E+00  0.3826727E+00 -0.1814553E+01  0.9235796E-01  0.3713602E+00
  0.4761110E+01 -0.8907410E+01 -0.1027320E+00  0.3747297E+00 -0.1812896E+01  0.8983819E-01  0.3638014E+00
  0.5611260E+01 -0.8397840E+01 -0.1027320E+00  0.3638147E+00 -0.1810782E+01  0.8647461E-01  0.3533883E+00
  0.6407370E+01 -0.7807410E+01 -0.1027320E+00  0.3510533E+00 -0.1808305E+01  0.8259643E-01  0.3411983E+00
  0.7141780E+01 -0.7141780E+01 -0.1027320E+00  0.3359590E+00 -0.1806577E+01  0.7848091E-01  0.3266638E+00
  0.7807410E+01 -0.6407370E+01 -0.1027320E+00  0.3183480E+00 -0.1806016E+01  0.7419316E-01  0.3095817E+00
  0.8397840E+01 -0.5611260E+01 -0.1027320E+00  0.2981511E+00 -0.1806951E+01  0.6975708E-01  0.2898759E+00
