 VARIABLES="X" "Y" "Z" "abs(eta) (m)" "angle(phi) (rad)" "PRE1" "PRE2"
ZONE N=   3200 ,E =    3136 ,F=FEPOINT,ET=QUADRILATERAL
  0.1010000E+02  0.0000000E+00  0.0000000E+00  0.5563661E+00 -0.1595307E+01  0.1363567E-01  0.5561990E+00
  0.1005140E+02  0.9899730E+00  0.0000000E+00  0.5860147E+00 -0.1606660E+01  0.2101218E-01  0.5856379E+00
  0.9905930E+01  0.1970410E+01  0.0000000E+00  0.6119010E+00 -0.1618503E+01  0.2918052E-01  0.6112049E+00
  0.9665100E+01  0.2931880E+01  0.0000000E+00  0.6338517E+00 -0.1629519E+01  0.3719995E-01  0.6327592E+00
  0.9331180E+01  0.3865100E+01  0.0000000E+00  0.6513813E+00 -0.1638664E+01  0.4417400E-01  0.6498817E+00
  0.8907400E+01  0.4761110E+01  0.0000000E+00  0.6654577E+00 -0.1646273E+01  0.5017868E-01  0.6635631E+00
  0.8397840E+01  0.5611260E+01  0.0000000E+00  0.6754233E+00 -0.1652072E+01  0.5483489E-01  0.6731937E+00
  0.7807410E+01  0.6407370E+01  0.0000000E+00  0.6813937E+00 -0.1655710E+01  0.5779014E-01  0.6789386E+00
  0.7141780E+01  0.7141780E+01  0.0000000E+00  0.6831064E+00 -0.1656786E+01  0.5866785E-01  0.6805825E+00
  0.6407370E+01  0.7807410E+01  0.0000000E+00  0.6813945E+00 -0.1655710E+01  0.5779027E-01  0.6789395E+00
  0.5611260E+01  0.8397840E+01  0.0000000E+00  0.6754233E+00 -0.1652072E+01  0.5483507E-01  0.6731937E+00
  0.4761110E+01  0.8907410E+01  0.0000000E+00  0.6654577E+00 -0.1646272E+01  0.5017846E-01  0.6635631E+00
  0.3865100E+01  0.9331180E+01  0.0000000E+00  0.6513814E+00 -0.1638664E+01  0.4417399E-01  0.6498818E+00
  0.2931870E+01  0.9665100E+01  0.0000000E+00  0.6338522E+00 -0.1629519E+01  0.3720004E-01  0.6327597E+00
  0.1970410E+01  0.9905930E+01  0.0000000E+00  0.6119013E+00 -0.1618503E+01  0.2918050E-01  0.6112052E+00
  0.9899730E+00  0.1005140E+02  0.0000000E+00  0.5860148E+00 -0.1606660E+01  0.2101208E-01  0.5856380E+00
 -0.4414850E-06  0.1010000E+02  0.0000000E+00  0.5563663E+00 -0.1595307E+01  0.1363554E-01  0.5561992E+00
 -0.9899740E+00  0.1005140E+02  0.0000000E+00  0.5234033E+00 -0.1584714E+01  0.7284473E-02  0.5233526E+00
 -0.1970410E+01  0.9905930E+01  0.0000000E+00  0.4862275E+00 -0.1575374E+01  0.2225707E-02  0.4862224E+00
 -0.2931880E+01  0.9665100E+01  0.0000000E+00  0.4457117E+00 -0.1569310E+01 -0.6625897E-03  0.4457112E+00
 -0.3865100E+01  0.9331180E+01  0.0000000E+00  0.4026306E+00 -0.1569811E+01 -0.3967610E-03  0.4026304E+00
 -0.4761110E+01  0.8907400E+01  0.0000000E+00  0.3573107E+00 -0.1579036E+01  0.2943993E-02  0.3572986E+00
 -0.5611260E+01  0.8397840E+01  0.0000000E+00  0.3093966E+00 -0.1602491E+01  0.9804626E-02  0.3092412E+00
 -0.6407370E+01  0.7807410E+01  0.0000000E+00  0.2606801E+00 -0.1649068E+01  0.2038291E-01  0.2598820E+00
 -0.7141780E+01  0.7141780E+01  0.0000000E+00  0.2134651E+00 -0.1735351E+01  0.3496833E-01  0.2105815E+00
 -0.7807410E+01  0.6407370E+01  0.0000000E+00  0.1698686E+00 -0.1889135E+01  0.5316698E-01  0.1613339E+00
 -0.8397840E+01  0.5611260E+01  0.0000000E+00  0.1350785E+00 -0.2161619E+01  0.7524472E-01  0.1121804E+00
 -0.8907410E+01  0.4761110E+01  0.0000000E+00  0.1193307E+00 -0.2570759E+01  0.1004110E+00  0.6447838E-01
 -0.9331180E+01  0.3865100E+01  0.0000000E+00  0.1294361E+00 -0.2989371E+01  0.1279393E+00  0.1962698E-01
 -0.9665100E+01  0.2931880E+01  0.0000000E+00  0.1590360E+00  0.2997038E+01  0.1573773E+00 -0.2290943E-01
 -0.9905930E+01  0.1970410E+01  0.0000000E+00  0.1987566E+00  0.2820244E+01  0.1885823E+00 -0.6277651E-01
 -0.1005140E+02  0.9899730E+00  0.0000000E+00  0.2414708E+00  0.2718270E+01  0.2201559E+00 -0.9919427E-01
 -0.1010000E+02 -0.8829700E-06  0.0000000E+00  0.2830583E+00  0.2659243E+01  0.2507634E+00 -0.1313000E+00
 -0.1005140E+02 -0.9899740E+00  0.0000000E+00  0.3227138E+00  0.2622737E+01  0.2802406E+00 -0.1600295E+00
 -0.9905930E+01 -0.1970410E+01  0.0000000E+00  0.3592982E+00  0.2601042E+01  0.3080715E+00 -0.1848977E+00
 -0.9665100E+01 -0.2931880E+01  0.0000000E+00  0.3915137E+00  0.2588125E+01  0.3330634E+00 -0.2057955E+00
 -0.9331180E+01 -0.3865100E+01  0.0000000E+00  0.4180218E+00  0.2580764E+01  0.3539870E+00 -0.2223408E+00
 -0.8907400E+01 -0.4761110E+01  0.0000000E+00  0.4395804E+00  0.2576012E+01  0.3711279E+00 -0.2355738E+00
 -0.8397840E+01 -0.5611260E+01  0.0000000E+00  0.4552614E+00  0.2573706E+01  0.3838034E+00 -0.2448631E+00
 -0.7807400E+01 -0.6407370E+01  0.0000000E+00  0.4648083E+00  0.2572711E+01  0.3916027E+00 -0.2503879E+00
 -0.7141780E+01 -0.7141780E+01  0.0000000E+00  0.4676710E+00  0.2572667E+01  0.3940035E+00 -0.2519473E+00
 -0.6407370E+01 -0.7807410E+01  0.0000000E+00  0.4648082E+00  0.2572711E+01  0.3916029E+00 -0.2503874E+00
 -0.5611260E+01 -0.8397850E+01  0.0000000E+00  0.4552608E+00  0.2573706E+01  0.3838030E+00 -0.2448626E+00
 -0.4761110E+01 -0.8907410E+01  0.0000000E+00  0.4395798E+00  0.2576012E+01  0.3711274E+00 -0.2355734E+00
 -0.3865100E+01 -0.9331190E+01  0.0000000E+00  0.4180207E+00  0.2580764E+01  0.3539860E+00 -0.2223402E+00
 -0.2931870E+01 -0.9665100E+01  0.0000000E+00  0.3915137E+00  0.2588125E+01  0.3330634E+00 -0.2057953E+00
 -0.1970410E+01 -0.9905930E+01  0.0000000E+00  0.3592983E+00  0.2601042E+01  0.3080714E+00 -0.1848980E+00
 -0.9899710E+00 -0.1005140E+02  0.0000000E+00  0.3227140E+00  0.2622737E+01  0.2802406E+00 -0.1600297E+00
  0.1204410E-06 -0.1010000E+02  0.0000000E+00  0.2830584E+00  0.2659242E+01  0.2507634E+00 -0.1313004E+00
  0.9899760E+00 -0.1005140E+02  0.0000000E+00  0.2414710E+00  0.2718271E+01  0.2201561E+00 -0.9919425E-01
  0.1970410E+01 -0.9905930E+01  0.0000000E+00  0.1987566E+00  0.2820245E+01  0.1885824E+00 -0.6277650E-01
  0.2931880E+01 -0.9665100E+01  0.0000000E+00  0.1590359E+00  0.2997037E+01  0.1573772E+00 -0.2290952E-01
  0.3865100E+01 -0.9331180E+01  0.0000000E+00  0.1294362E+00 -0.2989372E+01  0.1279394E+00  0.1962686E-01
  0.4761110E+01 -0.8907410E+01  0.0000000E+00  0.1193308E+00 -0.2570760E+01  0.1004111E+00  0.6447830E-01
  0.5611260E+01 -0.8397840E+01  0.0000000E+00  0.1350786E+00 -0.2161618E+01  0.7524462E-01  0.1121806E+00
  0.6407370E+01 -0.7807410E+01  0.0000000E+00  0.1698688E+00 -0.1889136E+01  0.5316721E-01  0.1613340E+00
  0.7141780E+01 -0.7141780E+01  0.0000000E+00  0.2134648E+00 -0.1735352E+01  0.3496843E-01  0.2105812E+00
  0.7807410E+01 -0.6407370E+01  0.0000000E+00  0.2606801E+00 -0.1649069E+01  0.2038323E-01  0.2598819E+00
  0.8397840E+01 -0.5611260E+01  0.0000000E+00  0.3093968E+00 -0.1602492E+01  0.9804904E-02  0.3092414E+00
  0.8907410E+01 -0.4761110E+01  0.0000000E+00  0.3573110E+00 -0.1579037E+01  0.2944324E-02  0.3572989E+00
  0.9331180E+01 -0.3865100E+01  0.0000000E+00  0.4026308E+00 -0.1569810E+01 -0.3969712E-03  0.4026306E+00
  0.9665100E+01 -0.2931870E+01  0.0000000E+00  0.4457127E+00 -0.1569310E+01 -0.6623032E-03  0.4457122E+00
  0.9905930E+01 -0.1970410E+01  0.0000000E+00  0.4862274E+00 -0.1575374E+01  0.2225808E-02  0.4862223E+00
  0.1005140E+02 -0.9899690E+00  0.0000000E+00  0.5234033E+00 -0.1584714E+01  0.7284280E-02  0.5233527E+00
  0.1010000E+02  0.0000000E+00 -0.2568960E-01  0.5555040E+00 -0.1595330E+01  0.1362744E-01  0.5553368E+00
  0.1005140E+02  0.9899730E+00 -0.2568960E-01  0.5851231E+00 -0.1606688E+01  0.2099641E-01  0.5847462E+00
  0.9905930E+01  0.1970410E+01 -0.2568960E-01  0.6108968E+00 -0.1618526E+01  0.2914688E-01  0.6102011E+00
  0.9665100E+01  0.2931880E+01 -0.2568960E-01  0.6328883E+00 -0.1629555E+01  0.3716632E-01  0.6317961E+00
  0.9331180E+01  0.3865100E+01 -0.2568960E-01  0.6503761E+00 -0.1638699E+01  0.4412836E-01  0.6488773E+00
  0.8907400E+01  0.4761110E+01 -0.2568960E-01  0.6644481E+00 -0.1646316E+01  0.5013094E-01  0.6625543E+00
  0.8397840E+01  0.5611260E+01 -0.2568960E-01  0.6743146E+00 -0.1652092E+01  0.5475815E-01  0.6720876E+00
  0.7807410E+01  0.6407370E+01 -0.2568960E-01  0.6803606E+00 -0.1655755E+01  0.5773332E-01  0.6779066E+00
  0.7141780E+01  0.7141780E+01 -0.2568960E-01  0.6820533E+00 -0.1656825E+01  0.5860372E-01  0.6795310E+00
  0.6407370E+01  0.7807410E+01 -0.2568960E-01  0.6803600E+00 -0.1655756E+01  0.5773333E-01  0.6779060E+00
  0.5611260E+01  0.8397840E+01 -0.2568960E-01  0.6743146E+00 -0.1652092E+01  0.5475825E-01  0.6720876E+00
  0.4761110E+01  0.8907410E+01 -0.2568960E-01  0.6644486E+00 -0.1646315E+01  0.5013075E-01  0.6625548E+00
  0.3865100E+01  0.9331180E+01 -0.2568960E-01  0.6503762E+00 -0.1638699E+01  0.4412830E-01  0.6488774E+00
  0.2931870E+01  0.9665100E+01 -0.2568960E-01  0.6328887E+00 -0.1629555E+01  0.3716620E-01  0.6317965E+00
  0.1970410E+01  0.9905930E+01 -0.2568960E-01  0.6108968E+00 -0.1618526E+01  0.2914678E-01  0.6102011E+00
  0.9899730E+00  0.1005140E+02 -0.2568960E-01  0.5851228E+00 -0.1606688E+01  0.2099641E-01  0.5847460E+00
 -0.4414850E-06  0.1010000E+02 -0.2568960E-01  0.5555038E+00 -0.1595330E+01  0.1362720E-01  0.5553367E+00
 -0.9899740E+00  0.1005140E+02 -0.2568960E-01  0.5226022E+00 -0.1584729E+01  0.7280774E-02  0.5225515E+00
 -0.1970410E+01  0.9905930E+01 -0.2568960E-01  0.4854276E+00 -0.1575406E+01  0.2237782E-02  0.4854225E+00
 -0.2931880E+01  0.9665100E+01 -0.2568960E-01  0.4450258E+00 -0.1569311E+01 -0.6611674E-03  0.4450254E+00
 -0.3865100E+01  0.9331180E+01 -0.2568960E-01  0.4019976E+00 -0.1569815E+01 -0.3946705E-03  0.4019974E+00
 -0.4761110E+01  0.8907400E+01 -0.2568960E-01  0.3567497E+00 -0.1579018E+01  0.2933083E-02  0.3567377E+00
 -0.5611260E+01  0.8397840E+01 -0.2568960E-01  0.3088886E+00 -0.1602547E+01  0.9805880E-02  0.3087329E+00
 -0.6407370E+01  0.7807410E+01 -0.2568960E-01  0.2602586E+00 -0.1649037E+01  0.2034198E-01  0.2594624E+00
 -0.7141780E+01  0.7141780E+01 -0.2568960E-01  0.2131115E+00 -0.1735351E+01  0.3491042E-01  0.2102327E+00
 -0.7807410E+01  0.6407370E+01 -0.2568960E-01  0.1695742E+00 -0.1889137E+01  0.5307516E-01  0.1610542E+00
 -0.8397840E+01  0.5611260E+01 -0.2568960E-01  0.1348653E+00 -0.2161737E+01  0.7513914E-01  0.1119944E+00
 -0.8907410E+01  0.4761110E+01 -0.2568960E-01  0.1191192E+00 -0.2571012E+01  0.1002492E+00  0.6433878E-01
 -0.9331180E+01  0.3865100E+01 -0.2568960E-01  0.1292299E+00 -0.2989649E+01  0.1277410E+00  0.1956015E-01
 -0.9665100E+01  0.2931880E+01 -0.2568960E-01  0.1587980E+00  0.2996727E+01  0.1571346E+00 -0.2292408E-01
 -0.9905930E+01  0.1970410E+01 -0.2568960E-01  0.1984485E+00  0.2820262E+01  0.1882911E+00 -0.6267578E-01
 -0.1005140E+02  0.9899730E+00 -0.2568960E-01  0.2411278E+00  0.2718072E+01  0.2198236E+00 -0.9909689E-01
 -0.1010000E+02 -0.8829700E-06 -0.2568960E-01  0.2826492E+00  0.2659117E+01  0.2503845E+00 -0.1311418E+00
 -0.1005140E+02 -0.9899740E+00 -0.2568960E-01  0.3222600E+00  0.2622598E+01  0.2798243E+00 -0.1598433E+00
 -0.9905930E+01 -0.1970410E+01 -0.2568960E-01  0.3587250E+00  0.2601062E+01  0.3075837E+00 -0.1845967E+00
 -0.9665100E+01 -0.2931880E+01 -0.2568960E-01  0.3909614E+00  0.2588020E+01  0.3325719E+00 -0.2055402E+00
 -0.9331180E+01 -0.3865100E+01 -0.2568960E-01  0.4174152E+00  0.2580691E+01  0.3534570E+00 -0.2220440E+00
 -0.8907400E+01 -0.4761110E+01 -0.2568960E-01  0.4389610E+00  0.2575926E+01  0.3705847E+00 -0.2352737E+00
 -0.8397840E+01 -0.5611260E+01 -0.2568960E-01  0.4545301E+00  0.2573724E+01  0.3831911E+00 -0.2444630E+00
 -0.7807400E+01 -0.6407370E+01 -0.2568960E-01  0.4641522E+00  0.2572633E+01  0.3910305E+00 -0.2500649E+00
 -0.7141780E+01 -0.7141780E+01 -0.2568960E-01  0.4669909E+00  0.2572607E+01  0.3934154E+00 -0.2516045E+00
 -0.6407370E+01 -0.7807410E+01 -0.2568960E-01  0.4641517E+00  0.2572633E+01  0.3910300E+00 -0.2500646E+00
 -0.5611260E+01 -0.8397850E+01 -0.2568960E-01  0.4545299E+00  0.2573724E+01  0.3831911E+00 -0.2444626E+00
 -0.4761110E+01 -0.8907410E+01 -0.2568960E-01  0.4389608E+00  0.2575926E+01  0.3705846E+00 -0.2352735E+00
 -0.3865100E+01 -0.9331190E+01 -0.2568960E-01  0.4174147E+00  0.2580692E+01  0.3534568E+00 -0.2220435E+00
 -0.2931870E+01 -0.9665100E+01 -0.2568960E-01  0.3909616E+00  0.2588020E+01  0.3325721E+00 -0.2055402E+00
 -0.1970410E+01 -0.9905930E+01 -0.2568960E-01  0.3587253E+00  0.2601062E+01  0.3075840E+00 -0.1845967E+00
 -0.9899710E+00 -0.1005140E+02 -0.2568960E-01  0.3222602E+00  0.2622598E+01  0.2798244E+00 -0.1598434E+00
  0.1204410E-06 -0.1010000E+02 -0.2568960E-01  0.2826491E+00  0.2659117E+01  0.2503845E+00 -0.1311416E+00
  0.9899760E+00 -0.1005140E+02 -0.2568960E-01  0.2411281E+00  0.2718073E+01  0.2198239E+00 -0.9909687E-01
  0.1970410E+01 -0.9905930E+01 -0.2568960E-01  0.1984487E+00  0.2820262E+01  0.1882913E+00 -0.6267583E-01
  0.2931880E+01 -0.9665100E+01 -0.2568960E-01  0.1587983E+00  0.2996725E+01  0.1571349E+00 -0.2292429E-01
  0.3865100E+01 -0.9331180E+01 -0.2568960E-01  0.1292301E+00 -0.2989650E+01  0.1277413E+00  0.1956007E-01
  0.4761110E+01 -0.8907410E+01 -0.2568960E-01  0.1191192E+00 -0.2571013E+01  0.1002493E+00  0.6433867E-01
  0.5611260E+01 -0.8397840E+01 -0.2568960E-01  0.1348654E+00 -0.2161740E+01  0.7513952E-01  0.1119943E+00
  0.6407370E+01 -0.7807410E+01 -0.2568960E-01  0.1695742E+00 -0.1889139E+01  0.5307545E-01  0.1610540E+00
  0.7141780E+01 -0.7141780E+01 -0.2568960E-01  0.2131111E+00 -0.1735352E+01  0.3491057E-01  0.2102323E+00
  0.7807410E+01 -0.6407370E+01 -0.2568960E-01  0.2602586E+00 -0.1649037E+01  0.2034198E-01  0.2594624E+00
  0.8397840E+01 -0.5611260E+01 -0.2568960E-01  0.3088888E+00 -0.1602548E+01  0.9806065E-02  0.3087331E+00
  0.8907410E+01 -0.4761110E+01 -0.2568960E-01  0.3567501E+00 -0.1579019E+01  0.2933490E-02  0.3567381E+00
  0.9331180E+01 -0.3865100E+01 -0.2568960E-01  0.4019972E+00 -0.1569815E+01 -0.3945843E-03  0.4019970E+00
  0.9665100E+01 -0.2931870E+01 -0.2568960E-01  0.4450260E+00 -0.1569311E+01 -0.6607752E-03  0.4450255E+00
  0.9905930E+01 -0.1970410E+01 -0.2568960E-01  0.4854276E+00 -0.1575407E+01  0.2238164E-02  0.4854224E+00
  0.1005140E+02 -0.9899690E+00 -0.2568960E-01  0.5226024E+00 -0.1584729E+01  0.7280824E-02  0.5225517E+00
  0.1010000E+02  0.0000000E+00 -0.1027320E+00  0.5529736E+00 -0.1595363E+01  0.1358327E-01  0.5528067E+00
  0.1005140E+02  0.9899730E+00 -0.1027320E+00  0.5824021E+00 -0.1606743E+01  0.2093061E-01  0.5820259E+00
  0.9905930E+01  0.1970410E+01 -0.1027320E+00  0.6080069E+00 -0.1618583E+01  0.2904370E-01  0.6073128E+00
  0.9665100E+01  0.2931880E+01 -0.1027320E+00  0.6299472E+00 -0.1629622E+01  0.3703550E-01  0.6288576E+00
  0.9331180E+01  0.3865100E+01 -0.1027320E+00  0.6474294E+00 -0.1638794E+01  0.4398968E-01  0.6459332E+00
  0.8907400E+01  0.4761110E+01 -0.1027320E+00  0.6613659E+00 -0.1646402E+01  0.4995555E-01  0.6594766E+00
  0.8397840E+01  0.5611260E+01 -0.1027320E+00  0.6711301E+00 -0.1652167E+01  0.5455039E-01  0.6689094E+00
  0.7807410E+01  0.6407370E+01 -0.1027320E+00  0.6772051E+00 -0.1655846E+01  0.5752657E-01  0.6747574E+00
  0.7141780E+01  0.7141780E+01 -0.1027320E+00  0.6789675E+00 -0.1656941E+01  0.5841680E-01  0.6764498E+00
  0.6407370E+01  0.7807410E+01 -0.1027320E+00  0.6772050E+00 -0.1655846E+01  0.5752664E-01  0.6747572E+00
  0.5611260E+01  0.8397840E+01 -0.1027320E+00  0.6711298E+00 -0.1652168E+01  0.5455049E-01  0.6689092E+00
  0.4761110E+01  0.8907410E+01 -0.1027320E+00  0.6613654E+00 -0.1646402E+01  0.4995548E-01  0.6594760E+00
  0.3865100E+01  0.9331180E+01 -0.1027320E+00  0.6474296E+00 -0.1638794E+01  0.4398964E-01  0.6459334E+00
  0.2931870E+01  0.9665100E+01 -0.1027320E+00  0.6299475E+00 -0.1629622E+01  0.3703541E-01  0.6288579E+00
  0.1970410E+01  0.9905930E+01 -0.1027320E+00  0.6080072E+00 -0.1618583E+01  0.2904361E-01  0.6073131E+00
  0.9899730E+00  0.1005140E+02 -0.1027320E+00  0.5824022E+00 -0.1606742E+01  0.2093049E-01  0.5820259E+00
 -0.4414850E-06  0.1010000E+02 -0.1027320E+00  0.5529734E+00 -0.1595362E+01  0.1358304E-01  0.5528066E+00
 -0.9899740E+00  0.1005140E+02 -0.1027320E+00  0.5201575E+00 -0.1584746E+01  0.7255540E-02  0.5201069E+00
 -0.1970410E+01  0.9905930E+01 -0.1027320E+00  0.4831212E+00 -0.1575427E+01  0.2237062E-02  0.4831161E+00
 -0.2931880E+01  0.9665100E+01 -0.1027320E+00  0.4429391E+00 -0.1569305E+01 -0.6606908E-03  0.4429386E+00
 -0.3865100E+01  0.9331180E+01 -0.1027320E+00  0.4001334E+00 -0.1569740E+01 -0.4225630E-03  0.4001332E+00
 -0.4761110E+01  0.8907400E+01 -0.1027320E+00  0.3550513E+00 -0.1578963E+01  0.2899704E-02  0.3550394E+00
 -0.5611260E+01  0.8397840E+01 -0.1027320E+00  0.3073975E+00 -0.1602521E+01  0.9750476E-02  0.3072429E+00
 -0.6407370E+01  0.7807410E+01 -0.1027320E+00  0.2590004E+00 -0.1648948E+01  0.2022082E-01  0.2582098E+00
 -0.7141780E+01  0.7141780E+01 -0.1027320E+00  0.2120511E+00 -0.1735170E+01  0.3469890E-01  0.2091928E+00
 -0.7807410E+01  0.6407370E+01 -0.1027320E+00  0.1687071E+00 -0.1889126E+01  0.5280206E-01  0.1602311E+00
 -0.8397840E+01  0.5611260E+01 -0.1027320E+00  0.1341774E+00 -0.2161894E+01  0.7477343E-01  0.1114115E+00
 -0.8907410E+01  0.4761110E+01 -0.1027320E+00  0.1185005E+00 -0.2571466E+01  0.9975760E-01  0.6395927E-01
 -0.9331180E+01  0.3865100E+01 -0.1027320E+00  0.1285840E+00 -0.2990614E+01  0.1271213E+00  0.1933973E-01
 -0.9665100E+01  0.2931880E+01 -0.1027320E+00  0.1580662E+00  0.2996073E+01  0.1563955E+00 -0.2292057E-01
 -0.9905930E+01  0.1970410E+01 -0.1027320E+00  0.1975381E+00  0.2819926E+01  0.1874063E+00 -0.6245140E-01
 -0.1005140E+02  0.9899730E+00 -0.1027320E+00  0.2400486E+00  0.2717665E+01  0.2187996E+00 -0.9874237E-01
 -0.1010000E+02 -0.8829700E-06 -0.1027320E+00  0.2814395E+00  0.2658608E+01  0.2492464E+00 -0.1307072E+00
 -0.1005140E+02 -0.9899740E+00 -0.1027320E+00  0.3208384E+00  0.2622311E+01  0.2785441E+00 -0.1592183E+00
 -0.9905930E+01 -0.1970410E+01 -0.1027320E+00  0.3570945E+00  0.2600908E+01  0.3061573E+00 -0.1838047E+00
 -0.9665100E+01 -0.2931880E+01 -0.1027320E+00  0.3892299E+00  0.2587799E+01  0.3310539E+00 -0.2047028E+00
 -0.9331180E+01 -0.3865100E+01 -0.1027320E+00  0.4156424E+00  0.2580389E+01  0.3518890E+00 -0.2212073E+00
 -0.8907400E+01 -0.4761110E+01 -0.1027320E+00  0.4370219E+00  0.2575743E+01  0.3689047E+00 -0.2343021E+00
 -0.8397840E+01 -0.5611260E+01 -0.1027320E+00  0.4524616E+00  0.2573622E+01  0.3814227E+00 -0.2433891E+00
 -0.7807400E+01 -0.6407370E+01 -0.1027320E+00  0.4620987E+00  0.2572464E+01  0.3892584E+00 -0.2490244E+00
 -0.7141780E+01 -0.7141780E+01 -0.1027320E+00  0.4650084E+00  0.2572354E+01  0.3916820E+00 -0.2506351E+00
 -0.6407370E+01 -0.7807410E+01 -0.1027320E+00  0.4620976E+00  0.2572464E+01  0.3892575E+00 -0.2490238E+00
 -0.5611260E+01 -0.8397850E+01 -0.1027320E+00  0.4524612E+00  0.2573622E+01  0.3814223E+00 -0.2433889E+00
 -0.4761110E+01 -0.8907410E+01 -0.1027320E+00  0.4370216E+00  0.2575743E+01  0.3689044E+00 -0.2343018E+00
 -0.3865100E+01 -0.9331190E+01 -0.1027320E+00  0.4156418E+00  0.2580389E+01  0.3518886E+00 -0.2212069E+00
 -0.2931870E+01 -0.9665100E+01 -0.1027320E+00  0.3892299E+00  0.2587799E+01  0.3310538E+00 -0.2047029E+00
 -0.1970410E+01 -0.9905930E+01 -0.1027320E+00  0.3570946E+00  0.2600909E+01  0.3061575E+00 -0.1838045E+00
 -0.9899710E+00 -0.1005140E+02 -0.1027320E+00  0.3208382E+00  0.2622310E+01  0.2785439E+00 -0.1592182E+00
  0.1204410E-06 -0.1010000E+02 -0.1027320E+00  0.2814394E+00  0.2658608E+01  0.2492463E+00 -0.1307073E+00
  0.9899760E+00 -0.1005140E+02 -0.1027320E+00  0.2400486E+00  0.2717666E+01  0.2187997E+00 -0.9874225E-01
  0.1970410E+01 -0.9905930E+01 -0.1027320E+00  0.1975382E+00  0.2819925E+01  0.1874063E+00 -0.6245155E-01
  0.2931880E+01 -0.9665100E+01 -0.1027320E+00  0.1580661E+00  0.2996073E+01  0.1563954E+00 -0.2292063E-01
  0.3865100E+01 -0.9331180E+01 -0.1027320E+00  0.1285841E+00 -0.2990615E+01  0.1271214E+00  0.1933962E-01
  0.4761110E+01 -0.8907410E+01 -0.1027320E+00  0.1185006E+00 -0.2571468E+01  0.9975779E-01  0.6395920E-01
  0.5611260E+01 -0.8397840E+01 -0.1027320E+00  0.1341776E+00 -0.2161896E+01  0.7477370E-01  0.1114114E+00
  0.6407370E+01 -0.7807410E+01 -0.1027320E+00  0.1687071E+00 -0.1889126E+01  0.5280203E-01  0.1602311E+00
  0.7141780E+01 -0.7141780E+01 -0.1027320E+00  0.2120506E+00 -0.1735172E+01  0.3469917E-01  0.2091923E+00
  0.7807410E+01 -0.6407370E+01 -0.1027320E+00  0.2590001E+00 -0.1648949E+01  0.2022091E-01  0.2582096E+00
  0.8397840E+01 -0.5611260E+01 -0.1027320E+00  0.3073974E+00 -0.1602522E+01  0.9750759E-02  0.3072427E+00
