 VARIABLES="X" "Y" "Z" "abs(eta) (m)" "angle(phi) (rad)" "PRE1" "PRE2"
ZONE N=   3200 ,E =    3136 ,F=FEPOINT,ET=QUADRILATERAL
  0.1100000E+02  0.0000000E+00  0.0000000E+00  0.5308611E+00 -0.1681865E+01  0.5884059E-01  0.5275900E+00
  0.1094700E+02  0.1078190E+01  0.0000000E+00  0.5396413E+00 -0.1685423E+01  0.6172199E-01  0.5360999E+00
  0.1078860E+02  0.2145990E+01  0.0000000E+00  0.5453768E+00 -0.1687830E+01  0.6368164E-01  0.5416461E+00
  0.1052630E+02  0.3193130E+01  0.0000000E+00  0.5478236E+00 -0.1688833E+01  0.6451310E-01  0.5440117E+00
  0.1016270E+02  0.4209520E+01  0.0000000E+00  0.5471649E+00 -0.1688446E+01  0.6422535E-01  0.5433825E+00
  0.9701130E+01  0.5185360E+01  0.0000000E+00  0.5423924E+00 -0.1686597E+01  0.6266909E-01  0.5387598E+00
  0.9146170E+01  0.6111270E+01  0.0000000E+00  0.5345119E+00 -0.1683421E+01  0.6007186E-01  0.5311255E+00
  0.8503110E+01  0.6978330E+01  0.0000000E+00  0.5233846E+00 -0.1679072E+01  0.5655945E-01  0.5203196E+00
  0.7778170E+01  0.7778170E+01  0.0000000E+00  0.5092981E+00 -0.1673962E+01  0.5244886E-01  0.5065902E+00
  0.6978330E+01  0.8503110E+01  0.0000000E+00  0.4913460E+00 -0.1668302E+01  0.4783330E-01  0.4890121E+00
  0.6111270E+01  0.9146170E+01  0.0000000E+00  0.4704435E+00 -0.1662394E+01  0.4303129E-01  0.4684713E+00
  0.5185360E+01  0.9701130E+01  0.0000000E+00  0.4466182E+00 -0.1656962E+01  0.3843573E-01  0.4449612E+00
  0.4209520E+01  0.1016270E+02  0.0000000E+00  0.4202938E+00 -0.1652958E+01  0.3449311E-01  0.4188760E+00
  0.3193130E+01  0.1052630E+02  0.0000000E+00  0.3908853E+00 -0.1651465E+01  0.3149786E-01  0.3896142E+00
  0.2145990E+01  0.1078860E+02  0.0000000E+00  0.3591465E+00 -0.1653501E+01  0.2966924E-01  0.3579189E+00
  0.1078190E+01  0.1094700E+02  0.0000000E+00  0.3254237E+00 -0.1661360E+01  0.2943118E-01  0.3240902E+00
 -0.4808250E-06  0.1100000E+02  0.0000000E+00  0.2903856E+00 -0.1678005E+01  0.3107222E-01  0.2887184E+00
 -0.1078190E+01  0.1094700E+02  0.0000000E+00  0.2540957E+00 -0.1708485E+01  0.3487556E-01  0.2516909E+00
 -0.2145990E+01  0.1078860E+02  0.0000000E+00  0.2174044E+00 -0.1759648E+01  0.4081354E-01  0.2135390E+00
 -0.3193130E+01  0.1052630E+02  0.0000000E+00  0.1815906E+00 -0.1844186E+01  0.4902895E-01  0.1748465E+00
 -0.4209520E+01  0.1016270E+02  0.0000000E+00  0.1486656E+00 -0.1981949E+01  0.5941661E-01  0.1362759E+00
 -0.5185370E+01  0.9701130E+01  0.0000000E+00  0.1217540E+00 -0.2203606E+01  0.7200688E-01  0.9817868E-01
 -0.6111270E+01  0.9146160E+01  0.0000000E+00  0.1056909E+00 -0.2529768E+01  0.8651876E-01  0.6070483E-01
 -0.6978330E+01  0.8503120E+01  0.0000000E+00  0.1055451E+00 -0.2907143E+01  0.1026576E+00  0.2451894E-01
 -0.7778170E+01  0.7778170E+01  0.0000000E+00  0.1203506E+00  0.3059169E+01  0.1199420E+00 -0.9908555E-02
 -0.8503120E+01  0.6978330E+01  0.0000000E+00  0.1442802E+00  0.2846825E+01  0.1380573E+00 -0.4191588E-01
 -0.9146170E+01  0.6111270E+01  0.0000000E+00  0.1723538E+00  0.2711503E+01  0.1566573E+00 -0.7186332E-01
 -0.9701130E+01  0.5185360E+01  0.0000000E+00  0.2013054E+00  0.2626102E+01  0.1751460E+00 -0.9923580E-01
 -0.1016270E+02  0.4209520E+01  0.0000000E+00  0.2292863E+00  0.2570797E+01  0.1929379E+00 -0.1238837E+00
 -0.1052630E+02  0.3193130E+01  0.0000000E+00  0.2547661E+00  0.2536208E+01  0.2094899E+00 -0.1449819E+00
 -0.1078860E+02  0.2145990E+01  0.0000000E+00  0.2777424E+00  0.2512944E+01  0.2246445E+00 -0.1633271E+00
 -0.1094700E+02  0.1078190E+01  0.0000000E+00  0.2974134E+00  0.2497457E+01  0.2378175E+00 -0.1785989E+00
 -0.1100000E+02 -0.9616510E-06  0.0000000E+00  0.3134787E+00  0.2486834E+01  0.2486496E+00 -0.1908986E+00
 -0.1094700E+02 -0.1078190E+01  0.0000000E+00  0.3248745E+00  0.2481251E+01  0.2565803E+00 -0.1992737E+00
 -0.1078860E+02 -0.2146000E+01  0.0000000E+00  0.3323390E+00  0.2477871E+01  0.2617852E+00 -0.2047383E+00
 -0.1052630E+02 -0.3193130E+01  0.0000000E+00  0.3355020E+00  0.2476409E+01  0.2639740E+00 -0.2070732E+00
 -0.1016270E+02 -0.4209520E+01  0.0000000E+00  0.3345098E+00  0.2476379E+01  0.2631873E+00 -0.2064684E+00
 -0.9701130E+01 -0.5185360E+01  0.0000000E+00  0.3284467E+00  0.2479583E+01  0.2590650E+00 -0.2018973E+00
 -0.9146160E+01 -0.6111270E+01  0.0000000E+00  0.3183039E+00  0.2484730E+01  0.2520686E+00 -0.1943676E+00
 -0.8503110E+01 -0.6978330E+01  0.0000000E+00  0.3040923E+00  0.2492923E+01  0.2423276E+00 -0.1837103E+00
 -0.7778170E+01 -0.7778180E+01  0.0000000E+00  0.2863297E+00  0.2505164E+01  0.2302731E+00 -0.1701734E+00
 -0.6978330E+01 -0.8503110E+01  0.0000000E+00  0.2644714E+00  0.2525635E+01  0.2158670E+00 -0.1527959E+00
 -0.6111270E+01 -0.9146170E+01  0.0000000E+00  0.2396431E+00  0.2555825E+01  0.1996917E+00 -0.1324840E+00
 -0.5185360E+01 -0.9701130E+01  0.0000000E+00  0.2124525E+00  0.2601657E+01  0.1822294E+00 -0.1092177E+00
 -0.4209510E+01 -0.1016270E+02  0.0000000E+00  0.1840786E+00  0.2671468E+01  0.1641082E+00 -0.8338712E-01
 -0.3193130E+01 -0.1052630E+02  0.0000000E+00  0.1554026E+00  0.2784292E+01  0.1455880E+00 -0.5435152E-01
 -0.2145990E+01 -0.1078860E+02  0.0000000E+00  0.1291837E+00  0.2963580E+01  0.1271423E+00 -0.2287504E-01
 -0.1078190E+01 -0.1094700E+02  0.0000000E+00  0.1098871E+00 -0.3043537E+01  0.1093593E+00  0.1075775E-01
  0.1311740E-06 -0.1100000E+02  0.0000000E+00  0.1035068E+00 -0.2681546E+01  0.9274545E-01  0.4595596E-01
  0.1078190E+01 -0.1094700E+02  0.0000000E+00  0.1135670E+00 -0.2323702E+01  0.7765273E-01  0.8287042E-01
  0.2145990E+01 -0.1078860E+02  0.0000000E+00  0.1369556E+00 -0.2059193E+01  0.6426106E-01  0.1209436E+00
  0.3193140E+01 -0.1052630E+02  0.0000000E+00  0.1681474E+00 -0.1890980E+01  0.5292281E-01  0.1596018E+00
  0.4209520E+01 -0.1016270E+02  0.0000000E+00  0.2029489E+00 -0.1788115E+01  0.4375816E-01  0.1981754E+00
  0.5185360E+01 -0.9701130E+01  0.0000000E+00  0.2392173E+00 -0.1725915E+01  0.3695855E-01  0.2363451E+00
  0.6111270E+01 -0.9146160E+01  0.0000000E+00  0.2758335E+00 -0.1688421E+01  0.3237005E-01  0.2739275E+00
  0.6978330E+01 -0.8503110E+01  0.0000000E+00  0.3116999E+00 -0.1666950E+01  0.2992496E-01  0.3102601E+00
  0.7778180E+01 -0.7778170E+01  0.0000000E+00  0.3461045E+00 -0.1655659E+01  0.2933602E-01  0.3448590E+00
  0.8503120E+01 -0.6978320E+01  0.0000000E+00  0.3783217E+00 -0.1651554E+01  0.3051931E-01  0.3770887E+00
  0.9146170E+01 -0.6111270E+01  0.0000000E+00  0.4086156E+00 -0.1652029E+01  0.3315642E-01  0.4072682E+00
  0.9701130E+01 -0.5185360E+01  0.0000000E+00  0.4364403E+00 -0.1655351E+01  0.3685904E-01  0.4348811E+00
  0.1016270E+02 -0.4209520E+01  0.0000000E+00  0.4616027E+00 -0.1660123E+01  0.4117847E-01  0.4597623E+00
  0.1052630E+02 -0.3193130E+01  0.0000000E+00  0.4832865E+00 -0.1665777E+01  0.4583402E-01  0.4811082E+00
  0.1078860E+02 -0.2145990E+01  0.0000000E+00  0.5022291E+00 -0.1671704E+01  0.5059295E-01  0.4996743E+00
  0.1094700E+02 -0.1078180E+01  0.0000000E+00  0.5180700E+00 -0.1677219E+01  0.5503015E-01  0.5151390E+00
  0.1100000E+02  0.0000000E+00 -0.2568960E-01  0.5301380E+00 -0.1681891E+01  0.5877433E-01  0.5268698E+00
  0.1094700E+02  0.1078190E+01 -0.2568960E-01  0.5389345E+00 -0.1685457E+01  0.6165900E-01  0.5353957E+00
  0.1078860E+02  0.2145990E+01 -0.2568960E-01  0.5446675E+00 -0.1687864E+01  0.6361739E-01  0.5409395E+00
  0.1052630E+02  0.3193130E+01 -0.2568960E-01  0.5471068E+00 -0.1688865E+01  0.6444634E-01  0.5432978E+00
  0.1016270E+02  0.4209520E+01 -0.2568960E-01  0.5464193E+00 -0.1688472E+01  0.6415210E-01  0.5426403E+00
  0.9701130E+01  0.5185360E+01 -0.2568960E-01  0.5416833E+00 -0.1686628E+01  0.6260373E-01  0.5380535E+00
  0.9146170E+01  0.6111270E+01 -0.2568960E-01  0.5338178E+00 -0.1683453E+01  0.6001124E-01  0.5304338E+00
  0.8503110E+01  0.6978330E+01 -0.2568960E-01  0.5227008E+00 -0.1679106E+01  0.5650280E-01  0.5196379E+00
  0.7778170E+01  0.7778170E+01 -0.2568960E-01  0.5086039E+00 -0.1673989E+01  0.5239108E-01  0.5058984E+00
  0.6978330E+01  0.8503110E+01 -0.2568960E-01  0.4907013E+00 -0.1668328E+01  0.4778285E-01  0.4883693E+00
  0.6111270E+01  0.9146170E+01 -0.2568960E-01  0.4698307E+00 -0.1662421E+01  0.4298774E-01  0.4678600E+00
  0.5185360E+01  0.9701130E+01 -0.2568960E-01  0.4460347E+00 -0.1656991E+01  0.3839828E-01  0.4443788E+00
  0.4209520E+01  0.1016270E+02 -0.2568960E-01  0.4197220E+00 -0.1652989E+01  0.3445916E-01  0.4183051E+00
  0.3193130E+01  0.1052630E+02 -0.2568960E-01  0.3903684E+00 -0.1651482E+01  0.3146291E-01  0.3890984E+00
  0.2145990E+01  0.1078860E+02 -0.2568960E-01  0.3586763E+00 -0.1653517E+01  0.2963605E-01  0.3574498E+00
  0.1078190E+01  0.1094700E+02 -0.2568960E-01  0.3249968E+00 -0.1661380E+01  0.2939916E-01  0.3236644E+00
 -0.4808250E-06  0.1100000E+02 -0.2568960E-01  0.2899905E+00 -0.1678047E+01  0.3104199E-01  0.2883243E+00
 -0.1078190E+01  0.1094700E+02 -0.2568960E-01  0.2537522E+00 -0.1708501E+01  0.3483263E-01  0.2513501E+00
 -0.2145990E+01  0.1078860E+02 -0.2568960E-01  0.2171117E+00 -0.1759660E+01  0.4076126E-01  0.2132510E+00
 -0.3193130E+01  0.1052630E+02 -0.2568960E-01  0.1813468E+00 -0.1844207E+01  0.4896679E-01  0.1746108E+00
 -0.4209520E+01  0.1016270E+02 -0.2568960E-01  0.1484660E+00 -0.1982027E+01  0.5934747E-01  0.1360883E+00
 -0.5185370E+01  0.9701130E+01 -0.2568960E-01  0.1215826E+00 -0.2203713E+01  0.7191603E-01  0.9803270E-01
 -0.6111270E+01  0.9146160E+01 -0.2568960E-01  0.1055441E+00 -0.2529907E+01  0.8640696E-01  0.6060849E-01
 -0.6978330E+01  0.8503120E+01 -0.2568960E-01  0.1054054E+00 -0.2907265E+01  0.1025247E+00  0.2447399E-01
 -0.7778170E+01  0.7778170E+01 -0.2568960E-01  0.1201994E+00  0.3059156E+01  0.1197912E+00 -0.9897650E-02
 -0.8503120E+01  0.6978330E+01 -0.2568960E-01  0.1441048E+00  0.2846698E+01  0.1378842E+00 -0.4188247E-01
 -0.9146170E+01  0.6111270E+01 -0.2568960E-01  0.1721435E+00  0.2711398E+01  0.1564586E+00 -0.7179202E-01
 -0.9701130E+01  0.5185360E+01 -0.2568960E-01  0.2010546E+00  0.2626039E+01  0.1749215E+00 -0.9912329E-01
 -0.1016270E+02  0.4209520E+01 -0.2568960E-01  0.2289867E+00  0.2570821E+01  0.1926887E+00 -0.1237174E+00
 -0.1052630E+02  0.3193130E+01 -0.2568960E-01  0.2544549E+00  0.2536162E+01  0.2092275E+00 -0.1448143E+00
 -0.1078860E+02  0.2145990E+01 -0.2568960E-01  0.2774037E+00  0.2512898E+01  0.2243629E+00 -0.1631382E+00
 -0.1094700E+02  0.1078190E+01 -0.2568960E-01  0.2970441E+00  0.2497426E+01  0.2375165E+00 -0.1783846E+00
 -0.1100000E+02 -0.9616510E-06 -0.2568960E-01  0.3130636E+00  0.2486857E+01  0.2483249E+00 -0.1906400E+00
 -0.1094700E+02 -0.1078190E+01 -0.2568960E-01  0.3244733E+00  0.2481229E+01  0.2562589E+00 -0.1990334E+00
 -0.1078860E+02 -0.2146000E+01 -0.2568960E-01  0.3319325E+00  0.2477841E+01  0.2614586E+00 -0.2044958E+00
 -0.1052630E+02 -0.3193130E+01 -0.2568960E-01  0.3350855E+00  0.2476386E+01  0.2636417E+00 -0.2068219E+00
 -0.1016270E+02 -0.4209520E+01 -0.2568960E-01  0.3340659E+00  0.2476402E+01  0.2628427E+00 -0.2061886E+00
 -0.9701130E+01 -0.5185360E+01 -0.2568960E-01  0.3280385E+00  0.2479558E+01  0.2587381E+00 -0.2016527E+00
 -0.9146160E+01 -0.6111270E+01 -0.2568960E-01  0.3179148E+00  0.2484695E+01  0.2517537E+00 -0.1941388E+00
 -0.8503110E+01 -0.6978330E+01 -0.2568960E-01  0.3037179E+00  0.2492894E+01  0.2420238E+00 -0.1834912E+00
 -0.7778170E+01 -0.7778180E+01 -0.2568960E-01  0.2859520E+00  0.2505188E+01  0.2299733E+00 -0.1699436E+00
 -0.6978330E+01 -0.8503110E+01 -0.2568960E-01  0.2641426E+00  0.2525596E+01  0.2155926E+00 -0.1526143E+00
 -0.6111270E+01 -0.9146170E+01 -0.2568960E-01  0.2393513E+00  0.2555763E+01  0.1994404E+00 -0.1323351E+00
 -0.5185360E+01 -0.9701130E+01 -0.2568960E-01  0.2121947E+00  0.2601593E+01  0.1820012E+00 -0.1090969E+00
 -0.4209510E+01 -0.1016270E+02 -0.2568960E-01  0.1838404E+00  0.2671486E+01  0.1638974E+00 -0.8327623E-01
 -0.3193130E+01 -0.1052630E+02 -0.2568960E-01  0.1552080E+00  0.2784205E+01  0.1454010E+00 -0.5429615E-01
 -0.2145990E+01 -0.1078860E+02 -0.2568960E-01  0.1290226E+00  0.2963427E+01  0.1269803E+00 -0.2286604E-01
 -0.1078190E+01 -0.1094700E+02 -0.2568960E-01  0.1097466E+00 -0.3043727E+01  0.1092215E+00  0.1072327E-01
  0.1311740E-06 -0.1100000E+02 -0.2568960E-01  0.1033752E+00 -0.2681619E+01  0.9263080E-01  0.4589075E-01
  0.1078190E+01 -0.1094700E+02 -0.2568960E-01  0.1134114E+00 -0.2323770E+01  0.7755204E-01  0.8275163E-01
  0.2145990E+01 -0.1078860E+02 -0.2568960E-01  0.1367646E+00 -0.2059245E+01  0.6417768E-01  0.1207716E+00
  0.3193140E+01 -0.1052630E+02 -0.2568960E-01  0.1679135E+00 -0.1891022E+01  0.5285592E-01  0.1593775E+00
  0.4209520E+01 -0.1016270E+02 -0.2568960E-01  0.2026738E+00 -0.1788171E+01  0.4371010E-01  0.1979042E+00
  0.5185360E+01 -0.9701130E+01 -0.2568960E-01  0.2389004E+00 -0.1725932E+01  0.3691346E-01  0.2360314E+00
  0.6111270E+01 -0.9146160E+01 -0.2568960E-01  0.2754675E+00 -0.1688432E+01  0.3233021E-01  0.2735637E+00
  0.6978330E+01 -0.8503110E+01 -0.2568960E-01  0.3112831E+00 -0.1666965E+01  0.2988960E-01  0.3098448E+00
  0.7778180E+01 -0.7778170E+01 -0.2568960E-01  0.3456335E+00 -0.1655694E+01  0.2930833E-01  0.3443886E+00
  0.8503120E+01 -0.6978320E+01 -0.2568960E-01  0.3778265E+00 -0.1651579E+01  0.3048846E-01  0.3765944E+00
  0.9146170E+01 -0.6111270E+01 -0.2568960E-01  0.4080821E+00 -0.1652049E+01  0.3312145E-01  0.4067358E+00
  0.9701130E+01 -0.5185360E+01 -0.2568960E-01  0.4358651E+00 -0.1655371E+01  0.3681937E-01  0.4343072E+00
  0.1016270E+02 -0.4209520E+01 -0.2568960E-01  0.4609743E+00 -0.1660152E+01  0.4113567E-01  0.4591352E+00
  0.1052630E+02 -0.3193130E+01 -0.2568960E-01  0.4826548E+00 -0.1665808E+01  0.4578883E-01  0.4804780E+00
  0.1078860E+02 -0.2145990E+01 -0.2568960E-01  0.5015758E+00 -0.1671734E+01  0.5054206E-01  0.4990228E+00
  0.1094700E+02 -0.1078180E+01 -0.2568960E-01  0.5173912E+00 -0.1677247E+01  0.5497243E-01  0.5144625E+00
  0.1100000E+02  0.0000000E+00 -0.1027320E+00  0.5279979E+00 -0.1681970E+01  0.5857868E-01  0.5247383E+00
  0.1094700E+02  0.1078190E+01 -0.1027320E+00  0.5368516E+00 -0.1685557E+01  0.6147444E-01  0.5333203E+00
  0.1078860E+02  0.2145990E+01 -0.1027320E+00  0.5425850E+00 -0.1687969E+01  0.6343053E-01  0.5388646E+00
  0.1052630E+02  0.3193130E+01 -0.1027320E+00  0.5449908E+00 -0.1688966E+01  0.6425158E-01  0.5411901E+00
  0.1016270E+02  0.4209520E+01 -0.1027320E+00  0.5442143E+00 -0.1688554E+01  0.6393725E-01  0.5404454E+00
  0.9701130E+01  0.5185360E+01 -0.1027320E+00  0.5395856E+00 -0.1686724E+01  0.6241272E-01  0.5359640E+00
  0.9146170E+01  0.6111270E+01 -0.1027320E+00  0.5317751E+00 -0.1683553E+01  0.5983413E-01  0.5283982E+00
  0.8503110E+01  0.6978330E+01 -0.1027320E+00  0.5206805E+00 -0.1679201E+01  0.5633388E-01  0.5176241E+00
  0.7778170E+01  0.7778170E+01 -0.1027320E+00  0.5065508E+00 -0.1674066E+01  0.5221829E-01  0.5038522E+00
  0.6978330E+01  0.8503110E+01 -0.1027320E+00  0.4887940E+00 -0.1668395E+01  0.4762972E-01  0.4864679E+00
  0.6111270E+01  0.9146170E+01 -0.1027320E+00  0.4680285E+00 -0.1662485E+01  0.4285278E-01  0.4660625E+00
  0.5185360E+01  0.9701130E+01 -0.1027320E+00  0.4443086E+00 -0.1657055E+01  0.3827813E-01  0.4426567E+00
  0.4209520E+01  0.1016270E+02 -0.1027320E+00  0.4180264E+00 -0.1653056E+01  0.3434795E-01  0.4166129E+00
  0.3193130E+01  0.1052630E+02 -0.1027320E+00  0.3888378E+00 -0.1651502E+01  0.3134732E-01  0.3875721E+00
  0.2145990E+01  0.1078860E+02 -0.1027320E+00  0.3572852E+00 -0.1653521E+01  0.2952249E-01  0.3560634E+00
  0.1078190E+01  0.1094700E+02 -0.1027320E+00  0.3237299E+00 -0.1661389E+01  0.2928730E-01  0.3224024E+00
 -0.4808250E-06  0.1100000E+02 -0.1027320E+00  0.2888162E+00 -0.1678110E+01  0.3093452E-01  0.2871547E+00
 -0.1078190E+01  0.1094700E+02 -0.1027320E+00  0.2527302E+00 -0.1708477E+01  0.3468615E-01  0.2503386E+00
 -0.2145990E+01  0.1078860E+02 -0.1027320E+00  0.2162381E+00 -0.1759602E+01  0.4058490E-01  0.2123953E+00
 -0.3193130E+01  0.1052630E+02 -0.1027320E+00  0.1806139E+00 -0.1844164E+01  0.4876142E-01  0.1739072E+00
 -0.4209520E+01  0.1016270E+02 -0.1027320E+00  0.1478613E+00 -0.1982149E+01  0.5912223E-01  0.1355269E+00
 -0.5185370E+01  0.9701130E+01 -0.1027320E+00  0.1210567E+00 -0.2203929E+01  0.7162604E-01  0.9759320E-01
 -0.6111270E+01  0.9146160E+01 -0.1027320E+00  0.1050870E+00 -0.2530303E+01  0.8605663E-01  0.6031192E-01
 -0.6978330E+01  0.8503120E+01 -0.1027320E+00  0.1049720E+00 -0.2907689E+01  0.1021135E+00  0.2433008E-01
 -0.7778170E+01  0.7778170E+01 -0.1027320E+00  0.1197347E+00  0.3059026E+01  0.1193268E+00 -0.9874891E-02
 -0.8503120E+01  0.6978330E+01 -0.1027320E+00  0.1435730E+00  0.2846213E+01  0.1373551E+00 -0.4179459E-01
 -0.9146170E+01  0.6111270E+01 -0.1027320E+00  0.1715180E+00  0.2710960E+01  0.1558587E+00 -0.7159943E-01
 -0.9701130E+01  0.5185360E+01 -0.1027320E+00  0.2003108E+00  0.2625766E+01  0.1742474E+00 -0.9880414E-01
 -0.1016270E+02  0.4209520E+01 -0.1027320E+00  0.2280971E+00  0.2570823E+01  0.1919404E+00 -0.1232363E+00
 -0.1052630E+02  0.3193130E+01 -0.1027320E+00  0.2535359E+00  0.2535968E+01  0.2084437E+00 -0.1443318E+00
 -0.1078860E+02  0.2145990E+01 -0.1027320E+00  0.2764119E+00  0.2512686E+01  0.2235263E+00 -0.1626023E+00
 -0.1094700E+02  0.1078190E+01 -0.1027320E+00  0.2959568E+00  0.2497284E+01  0.2366220E+00 -0.1777652E+00
 -0.1100000E+02 -0.9616510E-06 -0.1027320E+00  0.3118401E+00  0.2486888E+01  0.2473603E+00 -0.1898872E+00
 -0.1094700E+02 -0.1078190E+01 -0.1027320E+00  0.3232934E+00  0.2481115E+01  0.2553045E+00 -0.1983387E+00
 -0.1078860E+02 -0.2146000E+01 -0.1027320E+00  0.3307455E+00  0.2477695E+01  0.2604941E+00 -0.2038025E+00
 -0.1052630E+02 -0.3193130E+01 -0.1027320E+00  0.3338642E+00  0.2476283E+01  0.2626594E+00 -0.2060954E+00
 -0.1016270E+02 -0.4209520E+01 -0.1027320E+00  0.3327586E+00  0.2476439E+01  0.2618218E+00 -0.2053719E+00
 -0.9701130E+01 -0.5185360E+01 -0.1027320E+00  0.3268409E+00  0.2479447E+01  0.2577713E+00 -0.2009452E+00
 -0.9146160E+01 -0.6111270E+01 -0.1027320E+00  0.3167782E+00  0.2484535E+01  0.2508228E+00 -0.1934848E+00
 -0.8503110E+01 -0.6978330E+01 -0.1027320E+00  0.3026164E+00  0.2492760E+01  0.2411216E+00 -0.1828579E+00
 -0.7778170E+01 -0.7778180E+01 -0.1027320E+00  0.2848363E+00  0.2505212E+01  0.2290801E+00 -0.1692750E+00
 -0.6978330E+01 -0.8503110E+01 -0.1027320E+00  0.2631738E+00  0.2525416E+01  0.2147747E+00 -0.1520931E+00
 -0.6111270E+01 -0.9146170E+01 -0.1027320E+00  0.2384949E+00  0.2555490E+01  0.1986908E+00 -0.1319158E+00
 -0.5185360E+01 -0.9701130E+01 -0.1027320E+00  0.2114288E+00  0.2601322E+01  0.1813148E+00 -0.1087522E+00
 -0.4209510E+01 -0.1016270E+02 -0.1027320E+00  0.1831290E+00  0.2671460E+01  0.1632610E+00 -0.8295828E-01
 -0.3193130E+01 -0.1052630E+02 -0.1027320E+00  0.1546225E+00  0.2783831E+01  0.1448323E+00 -0.5414544E-01
 -0.2145990E+01 -0.1078860E+02 -0.1027320E+00  0.1285323E+00  0.2962827E+01  0.1264840E+00 -0.2285499E-01
 -0.1078190E+01 -0.1094700E+02 -0.1027320E+00  0.1093123E+00 -0.3044361E+01  0.1087960E+00  0.1061185E-01
  0.1311740E-06 -0.1100000E+02 -0.1027320E+00  0.1029661E+00 -0.2681826E+01  0.9227375E-01  0.4569005E-01
  0.1078190E+01 -0.1094700E+02 -0.1027320E+00  0.1129308E+00 -0.2323905E+01  0.7723450E-01  0.8239046E-01
  0.2145990E+01 -0.1078860E+02 -0.1027320E+00  0.1361820E+00 -0.2059287E+01  0.6390930E-01  0.1202545E+00
  0.3193140E+01 -0.1052630E+02 -0.1027320E+00  0.1672100E+00 -0.1891042E+01  0.5263761E-01  0.1587088E+00
  0.4209520E+01 -0.1016270E+02 -0.1027320E+00  0.2018495E+00 -0.1788255E+01  0.4354874E-01  0.1970957E+00
  0.5185360E+01 -0.9701130E+01 -0.1027320E+00  0.2379547E+00 -0.1725900E+01  0.3675979E-01  0.2350982E+00
  0.6111270E+01 -0.9146160E+01 -0.1027320E+00  0.2743817E+00 -0.1688392E+01  0.3219190E-01  0.2724867E+00
  0.6978330E+01 -0.8503110E+01 -0.1027320E+00  0.3100473E+00 -0.1666954E+01  0.2976740E-01  0.3086150E+00
  0.7778180E+01 -0.7778170E+01 -0.1027320E+00  0.3442359E+00 -0.1655757E+01  0.2921144E-01  0.3429942E+00
  0.8503120E+01 -0.6978320E+01 -0.1027320E+00  0.3763601E+00 -0.1651612E+01  0.3038262E-01  0.3751317E+00
  0.9146170E+01 -0.6111270E+01 -0.1027320E+00  0.4065087E+00 -0.1652080E+01  0.3300603E-01  0.4051665E+00
