 VARIABLES="X" "Y" "Z" "abs(eta) (m)" "angle(phi) (rad)" "PRE1" "PRE2"
ZONE N=   3200 ,E =    3136 ,F=FEPOINT,ET=QUADRILATERAL
  0.1010000E+02  0.0000000E+00  0.0000000E+00  0.4581848E-07 -0.4686173E+00 -0.4087896E-07  0.2069406E-07
  0.1005140E+02  0.9899730E+00  0.0000000E+00  0.9241275E-01 -0.1201958E+01 -0.3331777E-01  0.8619770E-01
  0.9905930E+01  0.1970410E+01  0.0000000E+00  0.1848413E+00 -0.1202744E+01 -0.6650569E-01  0.1724625E+00
  0.9665100E+01  0.2931880E+01  0.0000000E+00  0.2754959E+00 -0.1203008E+01 -0.9905519E-01  0.2570722E+00
  0.9331180E+01  0.3865100E+01  0.0000000E+00  0.3624506E+00 -0.1202687E+01 -0.1304286E+00  0.3381698E+00
  0.8907400E+01  0.4761110E+01  0.0000000E+00  0.4462554E+00 -0.1202608E+01 -0.1606189E+00  0.4163477E+00
  0.8397840E+01  0.5611260E+01  0.0000000E+00  0.5264077E+00 -0.1202752E+01 -0.1893968E+00  0.4911557E+00
  0.7807410E+01  0.6407370E+01  0.0000000E+00  0.6014610E+00 -0.1202846E+01 -0.2163476E+00  0.5612032E+00
  0.7141780E+01  0.7141780E+01  0.0000000E+00  0.6697247E+00 -0.1202687E+01 -0.2410017E+00  0.6248595E+00
  0.6407370E+01  0.7807410E+01  0.0000000E+00  0.7321588E+00 -0.1202689E+01 -0.2634677E+00  0.6831115E+00
  0.5611260E+01  0.8397840E+01  0.0000000E+00  0.7878175E+00 -0.1202750E+01 -0.2834517E+00  0.7350588E+00
  0.4761110E+01  0.8907410E+01  0.0000000E+00  0.8358667E+00 -0.1202796E+01 -0.3007033E+00  0.7799042E+00
  0.3865100E+01  0.9331180E+01  0.0000000E+00  0.8750354E+00 -0.1202687E+01 -0.3148836E+00  0.8164161E+00
  0.2931870E+01  0.9665100E+01  0.0000000E+00  0.9065962E+00 -0.1202729E+01 -0.3262046E+00  0.8458766E+00
  0.1970410E+01  0.9905930E+01  0.0000000E+00  0.9292995E+00 -0.1202750E+01 -0.3343558E+00  0.8670661E+00
  0.9899730E+00  0.1005140E+02  0.0000000E+00  0.9430097E+00 -0.1202760E+01 -0.3392799E+00  0.8798615E+00
 -0.4414850E-06  0.1010000E+02  0.0000000E+00  0.9471328E+00 -0.1202686E+01 -0.3408287E+00  0.8836833E+00
 -0.9899740E+00  0.1005140E+02  0.0000000E+00  0.9430103E+00 -0.1202760E+01 -0.3392799E+00  0.8798622E+00
 -0.1970410E+01  0.9905930E+01  0.0000000E+00  0.9292994E+00 -0.1202750E+01 -0.3343560E+00  0.8670660E+00
 -0.2931880E+01  0.9665100E+01  0.0000000E+00  0.9065955E+00 -0.1202730E+01 -0.3262041E+00  0.8458760E+00
 -0.3865100E+01  0.9331180E+01  0.0000000E+00  0.8750351E+00 -0.1202686E+01 -0.3148839E+00  0.8164157E+00
 -0.4761110E+01  0.8907400E+01  0.0000000E+00  0.8358665E+00 -0.1202795E+01 -0.3007042E+00  0.7799037E+00
 -0.5611260E+01  0.8397840E+01  0.0000000E+00  0.7878177E+00 -0.1202748E+01 -0.2834527E+00  0.7350587E+00
 -0.6407370E+01  0.7807410E+01  0.0000000E+00  0.7321587E+00 -0.1202689E+01 -0.2634671E+00  0.6831115E+00
 -0.7141780E+01  0.7141780E+01  0.0000000E+00  0.6697243E+00 -0.1202687E+01 -0.2410017E+00  0.6248590E+00
 -0.7807410E+01  0.6407370E+01  0.0000000E+00  0.6014607E+00 -0.1202848E+01 -0.2163467E+00  0.5612032E+00
 -0.8397840E+01  0.5611260E+01  0.0000000E+00  0.5264076E+00 -0.1202751E+01 -0.1893973E+00  0.4911554E+00
 -0.8907410E+01  0.4761110E+01  0.0000000E+00  0.4462539E+00 -0.1202608E+01 -0.1606184E+00  0.4163464E+00
 -0.9331180E+01  0.3865100E+01  0.0000000E+00  0.3624507E+00 -0.1202684E+01 -0.1304297E+00  0.3381695E+00
 -0.9665100E+01  0.2931880E+01  0.0000000E+00  0.2754956E+00 -0.1203008E+01 -0.9905507E-01  0.2570718E+00
 -0.9905930E+01  0.1970410E+01  0.0000000E+00  0.1848413E+00 -0.1202744E+01 -0.6650572E-01  0.1724624E+00
 -0.1005140E+02  0.9899730E+00  0.0000000E+00  0.9241217E-01 -0.1201961E+01 -0.3331729E-01  0.8619726E-01
 -0.1010000E+02 -0.8829700E-06  0.0000000E+00  0.2359251E-06  0.1721115E+01  0.3533059E-07 -0.2332646E-06
 -0.1005140E+02 -0.9899740E+00  0.0000000E+00  0.9241275E-01  0.1939630E+01  0.3331735E-01 -0.8619785E-01
 -0.9905930E+01 -0.1970410E+01  0.0000000E+00  0.1848418E+00  0.1938850E+01  0.6650603E-01 -0.1724628E+00
 -0.9665100E+01 -0.2931880E+01  0.0000000E+00  0.2754962E+00  0.1938585E+01  0.9905533E-01 -0.2570724E+00
 -0.9331180E+01 -0.3865100E+01  0.0000000E+00  0.3624510E+00  0.1938907E+01  0.1304291E+00 -0.3381700E+00
 -0.8907400E+01 -0.4761110E+01  0.0000000E+00  0.4462544E+00  0.1938985E+01  0.1606186E+00 -0.4163468E+00
 -0.8397840E+01 -0.5611260E+01  0.0000000E+00  0.5264083E+00  0.1938842E+01  0.1893978E+00 -0.4911559E+00
 -0.7807400E+01 -0.6407370E+01  0.0000000E+00  0.6014616E+00  0.1938746E+01  0.2163476E+00 -0.5612038E+00
 -0.7141780E+01 -0.7141780E+01  0.0000000E+00  0.6697247E+00  0.1938906E+01  0.2410020E+00 -0.6248593E+00
 -0.6407370E+01 -0.7807410E+01  0.0000000E+00  0.7321591E+00  0.1938902E+01  0.2634665E+00 -0.6831123E+00
 -0.5611260E+01 -0.8397850E+01  0.0000000E+00  0.7878175E+00  0.1938844E+01  0.2834525E+00 -0.7350586E+00
 -0.4761110E+01 -0.8907410E+01  0.0000000E+00  0.8358667E+00  0.1938797E+01  0.3007034E+00 -0.7799043E+00
 -0.3865100E+01 -0.9331190E+01  0.0000000E+00  0.8750347E+00  0.1938907E+01  0.3148843E+00 -0.8164151E+00
 -0.2931870E+01 -0.9665100E+01  0.0000000E+00  0.9065971E+00  0.1938862E+01  0.3262041E+00 -0.8458777E+00
 -0.1970410E+01 -0.9905930E+01  0.0000000E+00  0.9292990E+00  0.1938843E+01  0.3343561E+00 -0.8670655E+00
 -0.9899710E+00 -0.1005140E+02  0.0000000E+00  0.9430090E+00  0.1938833E+01  0.3392799E+00 -0.8798608E+00
  0.1204410E-06 -0.1010000E+02  0.0000000E+00  0.9471333E+00  0.1938907E+01  0.3408287E+00 -0.8836839E+00
  0.9899760E+00 -0.1005140E+02  0.0000000E+00  0.9430099E+00  0.1938833E+01  0.3392799E+00 -0.8798618E+00
  0.1970410E+01 -0.9905930E+01  0.0000000E+00  0.9292986E+00  0.1938843E+01  0.3343557E+00 -0.8670653E+00
  0.2931880E+01 -0.9665100E+01  0.0000000E+00  0.9065956E+00  0.1938863E+01  0.3262046E+00 -0.8458760E+00
  0.3865100E+01 -0.9331180E+01  0.0000000E+00  0.8750348E+00  0.1938906E+01  0.3148837E+00 -0.8164154E+00
  0.4761110E+01 -0.8907410E+01  0.0000000E+00  0.8358667E+00  0.1938798E+01  0.3007041E+00 -0.7799040E+00
  0.5611260E+01 -0.8397840E+01  0.0000000E+00  0.7878179E+00  0.1938843E+01  0.2834521E+00 -0.7350591E+00
  0.6407370E+01 -0.7807410E+01  0.0000000E+00  0.7321582E+00  0.1938902E+01  0.2634665E+00 -0.6831114E+00
  0.7141780E+01 -0.7141780E+01  0.0000000E+00  0.6697242E+00  0.1938906E+01  0.2410020E+00 -0.6248588E+00
  0.7807410E+01 -0.6407370E+01  0.0000000E+00  0.6014610E+00  0.1938746E+01  0.2163471E+00 -0.5612034E+00
  0.8397840E+01 -0.5611260E+01  0.0000000E+00  0.5264077E+00  0.1938841E+01  0.1893973E+00 -0.4911555E+00
  0.8907410E+01 -0.4761110E+01  0.0000000E+00  0.4462534E+00  0.1938985E+01  0.1606184E+00 -0.4163458E+00
  0.9331180E+01 -0.3865100E+01  0.0000000E+00  0.3624502E+00  0.1938907E+01  0.1304289E+00 -0.3381693E+00
  0.9665100E+01 -0.2931870E+01  0.0000000E+00  0.2754951E+00  0.1938585E+01  0.9905506E-01 -0.2570712E+00
  0.9905930E+01 -0.1970410E+01  0.0000000E+00  0.1848414E+00  0.1938850E+01  0.6650599E-01 -0.1724625E+00
  0.1005140E+02 -0.9899690E+00  0.0000000E+00  0.9241207E-01  0.1939634E+01  0.3331749E-01 -0.8619707E-01
  0.1010000E+02  0.0000000E+00 -0.2568960E-01  0.4353551E-07 -0.1411497E+01 -0.6905866E-08  0.4298430E-07
  0.1005140E+02  0.9899730E+00 -0.2568960E-01  0.9227659E-01 -0.1201980E+01 -0.3326679E-01  0.8607142E-01
  0.9905930E+01  0.1970410E+01 -0.2568960E-01  0.1845402E+00 -0.1202744E+01 -0.6639734E-01  0.1721815E+00
  0.9665100E+01  0.2931880E+01 -0.2568960E-01  0.2750855E+00 -0.1203030E+01 -0.9890202E-01  0.2566913E+00
  0.9331180E+01  0.3865100E+01 -0.2568960E-01  0.3619016E+00 -0.1202705E+01 -0.1302250E+00  0.3376599E+00
  0.8907400E+01  0.4761110E+01 -0.2568960E-01  0.4455922E+00 -0.1202632E+01 -0.1603701E+00  0.4157329E+00
  0.8397840E+01  0.5611260E+01 -0.2568960E-01  0.5255503E+00 -0.1202749E+01 -0.1890899E+00  0.4903551E+00
  0.7807410E+01  0.6407370E+01 -0.2568960E-01  0.6005661E+00 -0.1202870E+01 -0.2160124E+00  0.5603734E+00
  0.7141780E+01  0.7141780E+01 -0.2568960E-01  0.6687115E+00 -0.1202705E+01 -0.2406259E+00  0.6239185E+00
  0.6407370E+01  0.7807410E+01 -0.2568960E-01  0.7310718E+00 -0.1202714E+01 -0.2630590E+00  0.6821041E+00
  0.5611260E+01  0.8397840E+01 -0.2568960E-01  0.7865354E+00 -0.1202749E+01 -0.2829910E+00  0.7338624E+00
  0.4761110E+01  0.8907410E+01 -0.2568960E-01  0.8346240E+00 -0.1202818E+01 -0.3002393E+00  0.7787513E+00
  0.3865100E+01  0.9331180E+01 -0.2568960E-01  0.8737111E+00 -0.1202705E+01 -0.3143920E+00  0.8151863E+00
  0.2931870E+01  0.9665100E+01 -0.2568960E-01  0.9052506E+00 -0.1202754E+01 -0.3256998E+00  0.8446290E+00
  0.1970410E+01  0.9905930E+01 -0.2568960E-01  0.9277844E+00 -0.1202749E+01 -0.3338110E+00  0.8656524E+00
  0.9899730E+00  0.1005140E+02 -0.2568960E-01  0.9416096E+00 -0.1202784E+01 -0.3387549E+00  0.8785635E+00
 -0.4414850E-06  0.1010000E+02 -0.2568960E-01  0.9456999E+00 -0.1202706E+01 -0.3402958E+00  0.8823532E+00
 -0.9899740E+00  0.1005140E+02 -0.2568960E-01  0.9416093E+00 -0.1202784E+01 -0.3387547E+00  0.8785632E+00
 -0.1970410E+01  0.9905930E+01 -0.2568960E-01  0.9277842E+00 -0.1202748E+01 -0.3338119E+00  0.8656518E+00
 -0.2931880E+01  0.9665100E+01 -0.2568960E-01  0.9052498E+00 -0.1202754E+01 -0.3256994E+00  0.8446284E+00
 -0.3865100E+01  0.9331180E+01 -0.2568960E-01  0.8737110E+00 -0.1202705E+01 -0.3143923E+00  0.8151861E+00
 -0.4761110E+01  0.8907400E+01 -0.2568960E-01  0.8346242E+00 -0.1202818E+01 -0.3002392E+00  0.7787515E+00
 -0.5611260E+01  0.8397840E+01 -0.2568960E-01  0.7865344E+00 -0.1202748E+01 -0.2829911E+00  0.7338613E+00
 -0.6407370E+01  0.7807410E+01 -0.2568960E-01  0.7310719E+00 -0.1202713E+01 -0.2630600E+00  0.6821038E+00
 -0.7141780E+01  0.7141780E+01 -0.2568960E-01  0.6687107E+00 -0.1202705E+01 -0.2406257E+00  0.6239177E+00
 -0.7807410E+01  0.6407370E+01 -0.2568960E-01  0.6005669E+00 -0.1202870E+01 -0.2160129E+00  0.5603740E+00
 -0.8397840E+01  0.5611260E+01 -0.2568960E-01  0.5255495E+00 -0.1202750E+01 -0.1890892E+00  0.4903545E+00
 -0.8907410E+01  0.4761110E+01 -0.2568960E-01  0.4455914E+00 -0.1202632E+01 -0.1603700E+00  0.4157321E+00
 -0.9331180E+01  0.3865100E+01 -0.2568960E-01  0.3619012E+00 -0.1202705E+01 -0.1302248E+00  0.3376595E+00
 -0.9665100E+01  0.2931880E+01 -0.2568960E-01  0.2750856E+00 -0.1203031E+01 -0.9890193E-01  0.2566914E+00
 -0.9905930E+01  0.1970410E+01 -0.2568960E-01  0.1845400E+00 -0.1202745E+01 -0.6639718E-01  0.1721814E+00
 -0.1005140E+02  0.9899730E+00 -0.2568960E-01  0.9227603E-01 -0.1201985E+01 -0.3326616E-01  0.8607107E-01
 -0.1010000E+02 -0.8829700E-06 -0.2568960E-01  0.3019241E-06  0.1947676E+01  0.1111144E-06 -0.2807343E-06
 -0.1005140E+02 -0.9899740E+00 -0.2568960E-01  0.9227659E-01  0.1939611E+01  0.3326666E-01 -0.8607147E-01
 -0.9905930E+01 -0.1970410E+01 -0.2568960E-01  0.1845405E+00  0.1938849E+01  0.6639751E-01 -0.1721818E+00
 -0.9665100E+01 -0.2931880E+01 -0.2568960E-01  0.2750862E+00  0.1938562E+01  0.9890211E-01 -0.2566920E+00
 -0.9331180E+01 -0.3865100E+01 -0.2568960E-01  0.3619016E+00  0.1938888E+01  0.1302250E+00 -0.3376598E+00
 -0.8907400E+01 -0.4761110E+01 -0.2568960E-01  0.4455923E+00  0.1938961E+01  0.1603701E+00 -0.4157330E+00
 -0.8397840E+01 -0.5611260E+01 -0.2568960E-01  0.5255504E+00  0.1938843E+01  0.1890895E+00 -0.4903554E+00
 -0.7807400E+01 -0.6407370E+01 -0.2568960E-01  0.6005673E+00  0.1938722E+01  0.2160127E+00 -0.5603745E+00
 -0.7141780E+01 -0.7141780E+01 -0.2568960E-01  0.6687104E+00  0.1938887E+01  0.2406253E+00 -0.6239175E+00
 -0.6407370E+01 -0.7807410E+01 -0.2568960E-01  0.7310721E+00  0.1938879E+01  0.2630597E+00 -0.6821041E+00
 -0.5611260E+01 -0.8397850E+01 -0.2568960E-01  0.7865343E+00  0.1938844E+01  0.2829908E+00 -0.7338613E+00
 -0.4761110E+01 -0.8907410E+01 -0.2568960E-01  0.8346242E+00  0.1938775E+01  0.3002394E+00 -0.7787514E+00
 -0.3865100E+01 -0.9331190E+01 -0.2568960E-01  0.8737098E+00  0.1938888E+01  0.3143921E+00 -0.8151849E+00
 -0.2931870E+01 -0.9665100E+01 -0.2568960E-01  0.9052506E+00  0.1938839E+01  0.3257000E+00 -0.8446290E+00
 -0.1970410E+01 -0.9905930E+01 -0.2568960E-01  0.9277846E+00  0.1938844E+01  0.3338116E+00 -0.8656524E+00
 -0.9899710E+00 -0.1005140E+02 -0.2568960E-01  0.9416096E+00  0.1938809E+01  0.3387550E+00 -0.8785633E+00
  0.1204410E-06 -0.1010000E+02 -0.2568960E-01  0.9456985E+00  0.1938887E+01  0.3402954E+00 -0.8823518E+00
  0.9899760E+00 -0.1005140E+02 -0.2568960E-01  0.9416090E+00  0.1938809E+01  0.3387552E+00 -0.8785627E+00
  0.1970410E+01 -0.9905930E+01 -0.2568960E-01  0.9277844E+00  0.1938844E+01  0.3338117E+00 -0.8656522E+00
  0.2931880E+01 -0.9665100E+01 -0.2568960E-01  0.9052501E+00  0.1938839E+01  0.3256999E+00 -0.8446285E+00
  0.3865100E+01 -0.9331180E+01 -0.2568960E-01  0.8737097E+00  0.1938888E+01  0.3143918E+00 -0.8151850E+00
  0.4761110E+01 -0.8907410E+01 -0.2568960E-01  0.8346239E+00  0.1938774E+01  0.3002386E+00 -0.7787515E+00
  0.5611260E+01 -0.8397840E+01 -0.2568960E-01  0.7865337E+00  0.1938844E+01  0.2829904E+00 -0.7338608E+00
  0.6407370E+01 -0.7807410E+01 -0.2568960E-01  0.7310713E+00  0.1938879E+01  0.2630595E+00 -0.6821033E+00
  0.7141780E+01 -0.7141780E+01 -0.2568960E-01  0.6687098E+00  0.1938887E+01  0.2406251E+00 -0.6239169E+00
  0.7807410E+01 -0.6407370E+01 -0.2568960E-01  0.6005666E+00  0.1938723E+01  0.2160127E+00 -0.5603737E+00
  0.8397840E+01 -0.5611260E+01 -0.2568960E-01  0.5255501E+00  0.1938843E+01  0.1890897E+00 -0.4903550E+00
  0.8907410E+01 -0.4761110E+01 -0.2568960E-01  0.4455912E+00  0.1938960E+01  0.1603696E+00 -0.4157320E+00
  0.9331180E+01 -0.3865100E+01 -0.2568960E-01  0.3619013E+00  0.1938888E+01  0.1302249E+00 -0.3376597E+00
  0.9665100E+01 -0.2931870E+01 -0.2568960E-01  0.2750851E+00  0.1938563E+01  0.9890194E-01 -0.2566909E+00
  0.9905930E+01 -0.1970410E+01 -0.2568960E-01  0.1845400E+00  0.1938850E+01  0.6639746E-01 -0.1721813E+00
  0.1005140E+02 -0.9899690E+00 -0.2568960E-01  0.9227604E-01  0.1939613E+01  0.3326661E-01 -0.8607090E-01
  0.1010000E+02  0.0000000E+00 -0.1027320E+00  0.1446962E-06 -0.2476559E+01  0.1138609E-06  0.8928998E-07
  0.1005140E+02  0.9899730E+00 -0.1027320E+00  0.9186418E-01 -0.1202060E+01 -0.3311129E-01  0.8568938E-01
  0.9905930E+01  0.1970410E+01 -0.1027320E+00  0.1836860E+00 -0.1202791E+01 -0.6608193E-01  0.1713876E+00
  0.9665100E+01  0.2931880E+01 -0.1027320E+00  0.2738335E+00 -0.1203094E+01 -0.9843548E-01  0.2555293E+00
  0.9331180E+01  0.3865100E+01 -0.1027320E+00  0.3603092E+00 -0.1202791E+01 -0.1296231E+00  0.3361854E+00
  0.8907400E+01  0.4761110E+01 -0.1027320E+00  0.4435783E+00 -0.1202699E+01 -0.1596175E+00  0.4138647E+00
  0.8397840E+01  0.5611260E+01 -0.1027320E+00  0.5231174E+00 -0.1202798E+01 -0.1881907E+00  0.4880943E+00
  0.7807410E+01  0.6407370E+01 -0.1027320E+00  0.5978404E+00 -0.1202933E+01 -0.2149966E+00  0.5578437E+00
  0.7141780E+01  0.7141780E+01 -0.1027320E+00  0.6657679E+00 -0.1202792E+01 -0.2395129E+00  0.6211928E+00
  0.6407370E+01  0.7807410E+01 -0.1027320E+00  0.7277638E+00 -0.1202779E+01 -0.2618251E+00  0.6790344E+00
  0.5611260E+01  0.8397840E+01 -0.1027320E+00  0.7828934E+00 -0.1202796E+01 -0.2816459E+00  0.7304777E+00
  0.4761110E+01  0.8907410E+01 -0.1027320E+00  0.8308408E+00 -0.1202882E+01 -0.2988282E+00  0.7752407E+00
  0.3865100E+01  0.9331180E+01 -0.1027320E+00  0.8698659E+00 -0.1202790E+01 -0.3129392E+00  0.8116254E+00
  0.2931870E+01  0.9665100E+01 -0.1027320E+00  0.9011500E+00 -0.1202819E+01 -0.3241700E+00  0.8408241E+00
  0.1970410E+01  0.9905930E+01 -0.1027320E+00  0.9234881E+00 -0.1202798E+01 -0.3322239E+00  0.8616598E+00
  0.9899730E+00  0.1005140E+02 -0.1027320E+00  0.9373417E+00 -0.1202847E+01 -0.3371645E+00  0.8746026E+00
 -0.4414850E-06  0.1010000E+02 -0.1027320E+00  0.9415371E+00 -0.1202790E+01 -0.3387234E+00  0.8784980E+00
 -0.9899740E+00  0.1005140E+02 -0.1027320E+00  0.9373422E+00 -0.1202847E+01 -0.3371645E+00  0.8746030E+00
 -0.1970410E+01  0.9905930E+01 -0.1027320E+00  0.9234886E+00 -0.1202798E+01 -0.3322236E+00  0.8616604E+00
 -0.2931880E+01  0.9665100E+01 -0.1027320E+00  0.9011497E+00 -0.1202818E+01 -0.3241702E+00  0.8408237E+00
 -0.3865100E+01  0.9331180E+01 -0.1027320E+00  0.8698646E+00 -0.1202791E+01 -0.3129382E+00  0.8116243E+00
 -0.4761110E+01  0.8907400E+01 -0.1027320E+00  0.8308406E+00 -0.1202883E+01 -0.2988279E+00  0.7752406E+00
 -0.5611260E+01  0.8397840E+01 -0.1027320E+00  0.7828923E+00 -0.1202797E+01 -0.2816452E+00  0.7304769E+00
 -0.6407370E+01  0.7807410E+01 -0.1027320E+00  0.7277634E+00 -0.1202779E+01 -0.2618248E+00  0.6790341E+00
 -0.7141780E+01  0.7141780E+01 -0.1027320E+00  0.6657674E+00 -0.1202791E+01 -0.2395132E+00  0.6211921E+00
 -0.7807410E+01  0.6407370E+01 -0.1027320E+00  0.5978403E+00 -0.1202934E+01 -0.2149962E+00  0.5578437E+00
 -0.8397840E+01  0.5611260E+01 -0.1027320E+00  0.5231170E+00 -0.1202800E+01 -0.1881898E+00  0.4880943E+00
 -0.8907410E+01  0.4761110E+01 -0.1027320E+00  0.4435775E+00 -0.1202699E+01 -0.1596172E+00  0.4138639E+00
 -0.9331180E+01  0.3865100E+01 -0.1027320E+00  0.3603085E+00 -0.1202792E+01 -0.1296224E+00  0.3361849E+00
 -0.9665100E+01  0.2931880E+01 -0.1027320E+00  0.2738333E+00 -0.1203092E+01 -0.9843595E-01  0.2555289E+00
 -0.9905930E+01  0.1970410E+01 -0.1027320E+00  0.1836858E+00 -0.1202791E+01 -0.6608191E-01  0.1713874E+00
 -0.1005140E+02  0.9899730E+00 -0.1027320E+00  0.9186426E-01 -0.1202058E+01 -0.3311148E-01  0.8568940E-01
 -0.1010000E+02 -0.8829700E-06 -0.1027320E+00  0.4246570E-06  0.2484398E+01  0.3362049E-06 -0.2594222E-06
 -0.1005140E+02 -0.9899740E+00 -0.1027320E+00  0.9186472E-01  0.1939534E+01  0.3311156E-01 -0.8568986E-01
 -0.9905930E+01 -0.1970410E+01 -0.1027320E+00  0.1836860E+00  0.1938802E+01  0.6608204E-01 -0.1713876E+00
 -0.9665100E+01 -0.2931880E+01 -0.1027320E+00  0.2738341E+00  0.1938501E+01  0.9843644E-01 -0.2555296E+00
 -0.9331180E+01 -0.3865100E+01 -0.1027320E+00  0.3603095E+00  0.1938802E+01  0.1296232E+00 -0.3361856E+00
 -0.8907400E+01 -0.4761110E+01 -0.1027320E+00  0.4435787E+00  0.1938895E+01  0.1596181E+00 -0.4138648E+00
 -0.8397840E+01 -0.5611260E+01 -0.1027320E+00  0.5231172E+00  0.1938795E+01  0.1881909E+00 -0.4880940E+00
 -0.7807400E+01 -0.6407370E+01 -0.1027320E+00  0.5978416E+00  0.1938659E+01  0.2149971E+00 -0.5578448E+00
 -0.7141780E+01 -0.7141780E+01 -0.1027320E+00  0.6657681E+00  0.1938801E+01  0.2395133E+00 -0.6211928E+00
 -0.6407370E+01 -0.7807410E+01 -0.1027320E+00  0.7277645E+00  0.1938813E+01  0.2618248E+00 -0.6790353E+00
 -0.5611260E+01 -0.8397850E+01 -0.1027320E+00  0.7828926E+00  0.1938797E+01  0.2816458E+00 -0.7304769E+00
 -0.4761110E+01 -0.8907410E+01 -0.1027320E+00  0.8308396E+00  0.1938711E+01  0.2988282E+00 -0.7752393E+00
 -0.3865100E+01 -0.9331190E+01 -0.1027320E+00  0.8698655E+00  0.1938802E+01  0.3129390E+00 -0.8116251E+00
 -0.2931870E+01 -0.9665100E+01 -0.1027320E+00  0.9011510E+00  0.1938774E+01  0.3241700E+00 -0.8408251E+00
 -0.1970410E+01 -0.9905930E+01 -0.1027320E+00  0.9234887E+00  0.1938795E+01  0.3322242E+00 -0.8616604E+00
 -0.9899710E+00 -0.1005140E+02 -0.1027320E+00  0.9373429E+00  0.1938745E+01  0.3371641E+00 -0.8746040E+00
  0.1204410E-06 -0.1010000E+02 -0.1027320E+00  0.9415374E+00  0.1938801E+01  0.3387223E+00 -0.8784986E+00
  0.9899760E+00 -0.1005140E+02 -0.1027320E+00  0.9373431E+00  0.1938745E+01  0.3371642E+00 -0.8746041E+00
  0.1970410E+01 -0.9905930E+01 -0.1027320E+00  0.9234892E+00  0.1938795E+01  0.3322241E+00 -0.8616608E+00
  0.2931880E+01 -0.9665100E+01 -0.1027320E+00  0.9011503E+00  0.1938774E+01  0.3241701E+00 -0.8408244E+00
  0.3865100E+01 -0.9331180E+01 -0.1027320E+00  0.8698651E+00  0.1938802E+01  0.3129382E+00 -0.8116249E+00
  0.4761110E+01 -0.8907410E+01 -0.1027320E+00  0.8308397E+00  0.1938711E+01  0.2988281E+00 -0.7752395E+00
  0.5611260E+01 -0.8397840E+01 -0.1027320E+00  0.7828921E+00  0.1938796E+01  0.2816449E+00 -0.7304767E+00
  0.6407370E+01 -0.7807410E+01 -0.1027320E+00  0.7277635E+00  0.1938814E+01  0.2618247E+00 -0.6790342E+00
  0.7141780E+01 -0.7141780E+01 -0.1027320E+00  0.6657673E+00  0.1938802E+01  0.2395131E+00 -0.6211920E+00
  0.7807410E+01 -0.6407370E+01 -0.1027320E+00  0.5978405E+00  0.1938659E+01  0.2149967E+00 -0.5578437E+00
  0.8397840E+01 -0.5611260E+01 -0.1027320E+00  0.5231167E+00  0.1938795E+01  0.1881906E+00 -0.4880936E+00
