 VARIABLES="X" "Y" "Z" "abs(eta) (m)" "angle(phi) (rad)" "PRE1" "PRE2"
ZONE N=   3200 ,E =    3136 ,F=FEPOINT,ET=QUADRILATERAL
  0.1010000E+02  0.0000000E+00  0.0000000E+00  0.6628090E+00 -0.1644989E+01  0.4913060E-01  0.6609856E+00
  0.1005140E+02  0.9899730E+00  0.0000000E+00  0.6737223E+00 -0.1651057E+01  0.5401538E-01  0.6715535E+00
  0.9905930E+01  0.1970410E+01  0.0000000E+00  0.6804976E+00 -0.1655059E+01  0.5727296E-01  0.6780832E+00
  0.9665100E+01  0.2931880E+01  0.0000000E+00  0.6832829E+00 -0.1656805E+01  0.5869550E-01  0.6807572E+00
  0.9331180E+01  0.3865100E+01  0.0000000E+00  0.6818377E+00 -0.1656028E+01  0.5804396E-01  0.6793626E+00
  0.8907400E+01  0.4761110E+01  0.0000000E+00  0.6769695E+00 -0.1653125E+01  0.5567105E-01  0.6746765E+00
  0.8397840E+01  0.5611260E+01  0.0000000E+00  0.6678038E+00 -0.1647670E+01  0.5128615E-01  0.6658315E+00
  0.7807410E+01  0.6407370E+01  0.0000000E+00  0.6546449E+00 -0.1640204E+01  0.4540103E-01  0.6530687E+00
  0.7141780E+01  0.7141780E+01  0.0000000E+00  0.6374139E+00 -0.1631244E+01  0.3850697E-01  0.6362497E+00
  0.6407370E+01  0.7807410E+01  0.0000000E+00  0.6167228E+00 -0.1621035E+01  0.3097031E-01  0.6159446E+00
  0.5611260E+01  0.8397840E+01  0.0000000E+00  0.5916086E+00 -0.1609320E+01  0.2278554E-01  0.5911697E+00
  0.4761110E+01  0.8907410E+01  0.0000000E+00  0.5626056E+00 -0.1597269E+01  0.1489217E-01  0.5624084E+00
  0.3865100E+01  0.9331180E+01  0.0000000E+00  0.5299820E+00 -0.1586455E+01  0.8298566E-02  0.5299170E+00
  0.2931870E+01  0.9665100E+01  0.0000000E+00  0.4941530E+00 -0.1577245E+01  0.3186723E-02  0.4941427E+00
  0.1970410E+01  0.9905930E+01  0.0000000E+00  0.4542563E+00 -0.1570530E+01 -0.1209878E-03  0.4542562E+00
  0.9899730E+00  0.1005140E+02  0.0000000E+00  0.4113042E+00 -0.1568786E+01 -0.8268399E-03  0.4113033E+00
 -0.4414850E-06  0.1010000E+02  0.0000000E+00  0.3662222E+00 -0.1576157E+01  0.1963374E-02  0.3662170E+00
 -0.9899740E+00  0.1005140E+02  0.0000000E+00  0.3193730E+00 -0.1596171E+01  0.8103150E-02  0.3192702E+00
 -0.1970410E+01  0.9905930E+01  0.0000000E+00  0.2707066E+00 -0.1637444E+01  0.1802861E-01  0.2701056E+00
 -0.2931880E+01  0.9665100E+01  0.0000000E+00  0.2224406E+00 -0.1713998E+01  0.3174517E-01  0.2201637E+00
 -0.3865100E+01  0.9331180E+01  0.0000000E+00  0.1778741E+00 -0.1851873E+01  0.4934054E-01  0.1708938E+00
 -0.4761110E+01  0.8907400E+01  0.0000000E+00  0.1410025E+00 -0.2093410E+01  0.7038091E-01  0.1221812E+00
 -0.5611260E+01  0.8397840E+01  0.0000000E+00  0.1205574E+00 -0.2479228E+01  0.9506439E-01  0.7414076E-01
 -0.6407370E+01  0.7807410E+01  0.0000000E+00  0.1255960E+00 -0.2916188E+01  0.1224189E+00  0.2807083E-01
 -0.7141780E+01  0.7141780E+01  0.0000000E+00  0.1522665E+00  0.3044679E+01  0.1515520E+00 -0.1473368E-01
 -0.7807410E+01  0.6407370E+01  0.0000000E+00  0.1901375E+00  0.2848719E+01  0.1820411E+00 -0.5489368E-01
 -0.8397840E+01  0.5611260E+01  0.0000000E+00  0.2326240E+00  0.2734928E+01  0.2136524E+00 -0.9201407E-01
 -0.8907410E+01  0.4761110E+01  0.0000000E+00  0.2752451E+00  0.2668209E+01  0.2449766E+00 -0.1254844E+00
 -0.9331180E+01  0.3865100E+01  0.0000000E+00  0.3151216E+00  0.2629047E+01  0.2746281E+00 -0.1545347E+00
 -0.9665100E+01  0.2931880E+01  0.0000000E+00  0.3521193E+00  0.2604482E+01  0.3025377E+00 -0.1801637E+00
 -0.9905930E+01  0.1970410E+01  0.0000000E+00  0.3852529E+00  0.2590100E+01  0.3281365E+00 -0.2018570E+00
 -0.1005140E+02  0.9899730E+00  0.0000000E+00  0.4134761E+00  0.2581712E+01  0.3503458E+00 -0.2195912E+00
 -0.1010000E+02 -0.8829700E-06  0.0000000E+00  0.4356424E+00  0.2577098E+01  0.3680564E+00 -0.2330639E+00
 -0.1005140E+02 -0.9899740E+00  0.0000000E+00  0.4525684E+00  0.2574067E+01  0.3816207E+00 -0.2432770E+00
 -0.9905930E+01 -0.1970410E+01  0.0000000E+00  0.4633218E+00  0.2572748E+01  0.3903598E+00 -0.2495723E+00
 -0.9665100E+01 -0.2931880E+01  0.0000000E+00  0.4678137E+00  0.2572377E+01  0.3940506E+00 -0.2521384E+00
 -0.9331180E+01 -0.3865100E+01  0.0000000E+00  0.4656412E+00  0.2572873E+01  0.3923452E+00 -0.2507728E+00
 -0.8907400E+01 -0.4761110E+01  0.0000000E+00  0.4577795E+00  0.2573533E+01  0.3858837E+00 -0.2462841E+00
 -0.8397840E+01 -0.5611260E+01  0.0000000E+00  0.4432711E+00  0.2575435E+01  0.3741067E+00 -0.2377677E+00
 -0.7807400E+01 -0.6407370E+01  0.0000000E+00  0.4228297E+00  0.2579242E+01  0.3577156E+00 -0.2254430E+00
 -0.7141780E+01 -0.7141780E+01  0.0000000E+00  0.3968828E+00  0.2586534E+01  0.3372985E+00 -0.2091546E+00
 -0.6407370E+01 -0.7807410E+01  0.0000000E+00  0.3663389E+00  0.2597947E+01  0.3135234E+00 -0.1894922E+00
 -0.5611260E+01 -0.8397850E+01  0.0000000E+00  0.3305662E+00  0.2617512E+01  0.2861991E+00 -0.1654209E+00
 -0.4761110E+01 -0.8907410E+01  0.0000000E+00  0.2910823E+00  0.2650064E+01  0.2566217E+00 -0.1373833E+00
 -0.3865100E+01 -0.9331190E+01  0.0000000E+00  0.2495374E+00  0.2704628E+01  0.2260910E+00 -0.1056021E+00
 -0.2931870E+01 -0.9665100E+01  0.0000000E+00  0.2074304E+00  0.2794555E+01  0.1950643E+00 -0.7054984E-01
 -0.1970410E+01 -0.9905930E+01  0.0000000E+00  0.1667477E+00  0.2952558E+01  0.1637773E+00 -0.3133368E-01
 -0.9899710E+00 -0.1005140E+02  0.0000000E+00  0.1339674E+00 -0.3059103E+01  0.1335119E+00  0.1103837E-01
  0.1204410E-06 -0.1010000E+02  0.0000000E+00  0.1193668E+00 -0.2656503E+01  0.1055958E+00  0.5565926E-01
  0.9899760E+00 -0.1005140E+02  0.0000000E+00  0.1298562E+00 -0.2235381E+01  0.8008648E-01  0.1022193E+00
  0.1970410E+01 -0.9905930E+01  0.0000000E+00  0.1616882E+00 -0.1934091E+01  0.5745687E-01  0.1511350E+00
  0.2931880E+01 -0.9665100E+01  0.0000000E+00  0.2045881E+00 -0.1758787E+01  0.3823458E-01  0.2009836E+00
  0.3865100E+01 -0.9331180E+01  0.0000000E+00  0.2513724E+00 -0.1662538E+01  0.2302900E-01  0.2503153E+00
  0.4761110E+01 -0.8907410E+01  0.0000000E+00  0.2994137E+00 -0.1609236E+01  0.1150664E-01  0.2991925E+00
  0.5611260E+01 -0.8397840E+01  0.0000000E+00  0.3475703E+00 -0.1582341E+01  0.4012576E-02  0.3475472E+00
  0.6407370E+01 -0.7807410E+01  0.0000000E+00  0.3940695E+00 -0.1570978E+01  0.7140785E-04  0.3940695E+00
  0.7141780E+01 -0.7141780E+01  0.0000000E+00  0.4374371E+00 -0.1569203E+01 -0.6971936E-03  0.4374365E+00
  0.7807410E+01 -0.6407370E+01  0.0000000E+00  0.4782091E+00 -0.1573463E+01  0.1275145E-02  0.4782074E+00
  0.8397840E+01 -0.5611260E+01  0.0000000E+00  0.5160519E+00 -0.1582407E+01  0.5991508E-02  0.5160171E+00
  0.8907410E+01 -0.4761110E+01  0.0000000E+00  0.5503649E+00 -0.1593371E+01  0.1242305E-01  0.5502246E+00
  0.9331180E+01 -0.3865100E+01  0.0000000E+00  0.5803499E+00 -0.1604625E+01  0.1962860E-01  0.5800179E+00
  0.9665100E+01 -0.2931870E+01  0.0000000E+00  0.6069561E+00 -0.1615969E+01  0.2740875E-01  0.6063370E+00
  0.9905930E+01 -0.1970410E+01  0.0000000E+00  0.6296876E+00 -0.1627178E+01  0.3548428E-01  0.6286870E+00
  0.1005140E+02 -0.9899690E+00  0.0000000E+00  0.6484429E+00 -0.1637154E+01  0.4299784E-01  0.6470158E+00
  0.1010000E+02  0.0000000E+00 -0.2568960E-01  0.6617862E+00 -0.1645025E+01  0.4907864E-01  0.6599638E+00
  0.1005140E+02  0.9899730E+00 -0.2568960E-01  0.6726999E+00 -0.1651101E+01  0.5396322E-01  0.6705319E+00
  0.9905930E+01  0.1970410E+01 -0.2568960E-01  0.6793824E+00 -0.1655079E+01  0.5719221E-01  0.6769708E+00
  0.9665100E+01  0.2931880E+01 -0.2568960E-01  0.6822469E+00 -0.1656850E+01  0.5863753E-01  0.6797224E+00
  0.9331180E+01  0.3865100E+01 -0.2568960E-01  0.6807851E+00 -0.1656067E+01  0.5798054E-01  0.6783116E+00
  0.8907400E+01  0.4761110E+01 -0.2568960E-01  0.6759428E+00 -0.1653170E+01  0.5561661E-01  0.6736509E+00
  0.8397840E+01  0.5611260E+01 -0.2568960E-01  0.6667082E+00 -0.1647691E+01  0.5121551E-01  0.6647381E+00
  0.7807410E+01  0.6407370E+01 -0.2568960E-01  0.6536508E+00 -0.1640245E+01  0.4535852E-01  0.6520752E+00
  0.7141780E+01  0.7141780E+01 -0.2568960E-01  0.6364295E+00 -0.1631277E+01  0.3846831E-01  0.6352658E+00
  0.6407370E+01  0.7807410E+01 -0.2568960E-01  0.6157852E+00 -0.1621068E+01  0.3094326E-01  0.6150072E+00
  0.5611260E+01  0.8397840E+01 -0.2568960E-01  0.5906382E+00 -0.1609345E+01  0.2276290E-01  0.5901994E+00
  0.4761110E+01  0.8907410E+01 -0.2568960E-01  0.5617482E+00 -0.1597293E+01  0.1488275E-01  0.5615510E+00
  0.3865100E+01  0.9331180E+01 -0.2568960E-01  0.5291600E+00 -0.1586475E+01  0.8296179E-02  0.5290950E+00
  0.2931870E+01  0.9665100E+01 -0.2568960E-01  0.4933947E+00 -0.1577254E+01  0.3186035E-02  0.4933844E+00
  0.1970410E+01  0.9905930E+01 -0.2568960E-01  0.4535094E+00 -0.1570566E+01 -0.1045720E-03  0.4535094E+00
  0.9899730E+00  0.1005140E+02 -0.2568960E-01  0.4106673E+00 -0.1568781E+01 -0.8277435E-03  0.4106664E+00
 -0.4414850E-06  0.1010000E+02 -0.2568960E-01  0.3656434E+00 -0.1576159E+01  0.1960634E-02  0.3656382E+00
 -0.9899740E+00  0.1005140E+02 -0.2568960E-01  0.3188676E+00 -0.1596147E+01  0.8082537E-02  0.3187652E+00
 -0.1970410E+01  0.9905930E+01 -0.2568960E-01  0.2702622E+00 -0.1637509E+01  0.1801662E-01  0.2696610E+00
 -0.2931880E+01  0.9665100E+01 -0.2568960E-01  0.2220734E+00 -0.1713967E+01  0.3168588E-01  0.2198013E+00
 -0.3865100E+01  0.9331180E+01 -0.2568960E-01  0.1775727E+00 -0.1851895E+01  0.4926069E-01  0.1706031E+00
 -0.4761110E+01  0.8907400E+01 -0.2568960E-01  0.1407502E+00 -0.2093483E+01  0.7026388E-01  0.1219573E+00
 -0.5611260E+01  0.8397840E+01 -0.2568960E-01  0.1203727E+00 -0.2479334E+01  0.9492654E-01  0.7401717E-01
 -0.6407370E+01  0.7807410E+01 -0.2568960E-01  0.1253876E+00 -0.2916520E+01  0.1222251E+00  0.2798366E-01
 -0.7141780E+01  0.7141780E+01 -0.2568960E-01  0.1520359E+00  0.3044427E+01  0.1513187E+00 -0.1474938E-01
 -0.7807410E+01  0.6407370E+01 -0.2568960E-01  0.1898624E+00  0.2848456E+01  0.1817633E+00 -0.5486193E-01
 -0.8397840E+01  0.5611260E+01 -0.2568960E-01  0.2322601E+00  0.2734949E+01  0.2133201E+00 -0.9186561E-01
 -0.8907410E+01  0.4761110E+01 -0.2568960E-01  0.2748560E+00  0.2668040E+01  0.2446091E+00 -0.1253484E+00
 -0.9331180E+01  0.3865100E+01 -0.2568960E-01  0.3146660E+00  0.2628938E+01  0.2742143E+00 -0.1543411E+00
 -0.9665100E+01  0.2931880E+01 -0.2568960E-01  0.3516244E+00  0.2604361E+01  0.3020906E+00 -0.1799473E+00
 -0.9905930E+01  0.1970410E+01 -0.2568960E-01  0.3846370E+00  0.2590119E+01  0.3276158E+00 -0.2015280E+00
 -0.1005140E+02  0.9899730E+00 -0.2568960E-01  0.4128935E+00  0.2581616E+01  0.3498313E+00 -0.2193151E+00
 -0.1010000E+02 -0.8829700E-06 -0.2568960E-01  0.4350101E+00  0.2577029E+01  0.3675062E+00 -0.2327509E+00
 -0.1005140E+02 -0.9899740E+00 -0.2568960E-01  0.4519293E+00  0.2573983E+01  0.3810617E+00 -0.2429651E+00
 -0.9905930E+01 -0.1970410E+01 -0.2568960E-01  0.4625774E+00  0.2572765E+01  0.3897369E+00 -0.2491647E+00
 -0.9665100E+01 -0.2931880E+01 -0.2568960E-01  0.4671535E+00  0.2572299E+01  0.3934751E+00 -0.2518130E+00
 -0.9331180E+01 -0.3865100E+01 -0.2568960E-01  0.4649645E+00  0.2572813E+01  0.3917600E+00 -0.2504318E+00
 -0.8907400E+01 -0.4761110E+01 -0.2568960E-01  0.4571332E+00  0.2573452E+01  0.3853190E+00 -0.2459676E+00
 -0.8397840E+01 -0.5611260E+01 -0.2568960E-01  0.4425594E+00  0.2575452E+01  0.3735102E+00 -0.2373793E+00
 -0.7807400E+01 -0.6407370E+01 -0.2568960E-01  0.4222341E+00  0.2579149E+01  0.3571910E+00 -0.2251584E+00
 -0.7141780E+01 -0.7141780E+01 -0.2568960E-01  0.3963071E+00  0.2586454E+01  0.3367927E+00 -0.2088780E+00
 -0.6407370E+01 -0.7807410E+01 -0.2568960E-01  0.3658225E+00  0.2597832E+01  0.3130596E+00 -0.1892612E+00
 -0.5611260E+01 -0.8397850E+01 -0.2568960E-01  0.3300397E+00  0.2617532E+01  0.2857466E+00 -0.1651517E+00
 -0.4761110E+01 -0.8907410E+01 -0.2568960E-01  0.2906724E+00  0.2649905E+01  0.2562385E+00 -0.1372305E+00
 -0.3865100E+01 -0.9331190E+01 -0.2568960E-01  0.2491762E+00  0.2704482E+01  0.2257483E+00 -0.1054822E+00
 -0.2931870E+01 -0.9665100E+01 -0.2568960E-01  0.2071322E+00  0.2794320E+01  0.1947673E+00 -0.7049433E-01
 -0.1970410E+01 -0.9905930E+01 -0.2568960E-01  0.1664927E+00  0.2952565E+01  0.1635270E+00 -0.3128458E-01
 -0.9899710E+00 -0.1005140E+02 -0.2568960E-01  0.1337546E+00 -0.3059451E+01  0.1333036E+00  0.1097449E-01
  0.1204410E-06 -0.1010000E+02 -0.2568960E-01  0.1191647E+00 -0.2656749E+01  0.1054307E+00  0.5553903E-01
  0.9899760E+00 -0.1005140E+02 -0.2568960E-01  0.1296224E+00 -0.2235502E+01  0.7995474E-01  0.1020256E+00
  0.1970410E+01 -0.9905930E+01 -0.2568960E-01  0.1614277E+00 -0.1934199E+01  0.5738057E-01  0.1508853E+00
  0.2931880E+01 -0.9665100E+01 -0.2568960E-01  0.2042442E+00 -0.1758764E+01  0.3816565E-01  0.2006467E+00
  0.3865100E+01 -0.9331180E+01 -0.2568960E-01  0.2509627E+00 -0.1662532E+01  0.2298998E-01  0.2499074E+00
  0.4761110E+01 -0.8907410E+01 -0.2568960E-01  0.2989374E+00 -0.1609209E+01  0.1148020E-01  0.2987169E+00
  0.5611260E+01 -0.8397840E+01 -0.2568960E-01  0.3469990E+00 -0.1582391E+01  0.4023284E-02  0.3469757E+00
  0.6407370E+01 -0.7807410E+01 -0.2568960E-01  0.3934564E+00 -0.1570966E+01  0.6696142E-04  0.3934564E+00
  0.7141780E+01 -0.7141780E+01 -0.2568960E-01  0.4367526E+00 -0.1569211E+01 -0.6923131E-03  0.4367520E+00
  0.7807410E+01 -0.6407370E+01 -0.2568960E-01  0.4774752E+00 -0.1573470E+01  0.1276796E-02  0.4774735E+00
  0.8397840E+01 -0.5611260E+01 -0.2568960E-01  0.5152047E+00 -0.1582437E+01  0.5997351E-02  0.5151698E+00
  0.8907410E+01 -0.4761110E+01 -0.2568960E-01  0.5495246E+00 -0.1593390E+01  0.1241473E-01  0.5493844E+00
  0.9331180E+01 -0.3865100E+01 -0.2568960E-01  0.5794517E+00 -0.1604651E+01  0.1961333E-01  0.5791196E+00
  0.9665100E+01 -0.2931870E+01 -0.2568960E-01  0.6060330E+00 -0.1616001E+01  0.2738622E-01  0.6054139E+00
  0.9905930E+01 -0.1970410E+01 -0.2568960E-01  0.6286541E+00 -0.1627201E+01  0.3544010E-01  0.6276543E+00
  0.1005140E+02 -0.9899690E+00 -0.2568960E-01  0.6474579E+00 -0.1637193E+01  0.4295747E-01  0.6460313E+00
  0.1010000E+02  0.0000000E+00 -0.1027320E+00  0.6587892E+00 -0.1645128E+01  0.4892363E-01  0.6569700E+00
  0.1005140E+02  0.9899730E+00 -0.1027320E+00  0.6695799E+00 -0.1651191E+01  0.5377287E-01  0.6674172E+00
  0.9905930E+01  0.1970410E+01 -0.1027320E+00  0.6761731E+00 -0.1655156E+01  0.5697427E-01  0.6737685E+00
  0.9665100E+01  0.2931880E+01 -0.1027320E+00  0.6790824E+00 -0.1656942E+01  0.5842775E-01  0.6765642E+00
  0.9331180E+01  0.3865100E+01 -0.1027320E+00  0.6777045E+00 -0.1656181E+01  0.5779563E-01  0.6752355E+00
  0.8907400E+01  0.4761110E+01 -0.1027320E+00  0.6728063E+00 -0.1653257E+01  0.5541746E-01  0.6705201E+00
  0.8397840E+01  0.5611260E+01 -0.1027320E+00  0.6635584E+00 -0.1647764E+01  0.5102226E-01  0.6615939E+00
  0.7807410E+01  0.6407370E+01 -0.1027320E+00  0.6506189E+00 -0.1640327E+01  0.4520173E-01  0.6490468E+00
  0.7141780E+01  0.7141780E+01 -0.1027320E+00  0.6335440E+00 -0.1631363E+01  0.3834806E-01  0.6323824E+00
  0.6407370E+01  0.7807410E+01 -0.1027320E+00  0.6129209E+00 -0.1621127E+01  0.3083547E-01  0.6121447E+00
  0.5611260E+01  0.8397840E+01 -0.1027320E+00  0.5878424E+00 -0.1609396E+01  0.2268514E-01  0.5874045E+00
  0.4761110E+01  0.8907410E+01 -0.1027320E+00  0.5591337E+00 -0.1597338E+01  0.1483847E-01  0.5589368E+00
  0.3865100E+01  0.9331180E+01 -0.1027320E+00  0.5267439E+00 -0.1586489E+01  0.8265922E-02  0.5266791E+00
  0.2931870E+01  0.9665100E+01 -0.1027320E+00  0.4910838E+00 -0.1577259E+01  0.3173487E-02  0.4910736E+00
  0.1970410E+01  0.9905930E+01 -0.1027320E+00  0.4513504E+00 -0.1570578E+01 -0.9877574E-04  0.4513504E+00
  0.9899730E+00  0.1005140E+02 -0.1027320E+00  0.4087358E+00 -0.1568759E+01 -0.8328790E-03  0.4087350E+00
 -0.4414850E-06  0.1010000E+02 -0.1027320E+00  0.3639353E+00 -0.1576057E+01  0.1914661E-02  0.3639303E+00
 -0.9899740E+00  0.1005140E+02 -0.1027320E+00  0.3173375E+00 -0.1596077E+01  0.8021751E-02  0.3172361E+00
 -0.1970410E+01  0.9905930E+01 -0.1027320E+00  0.2689487E+00 -0.1637477E+01  0.1792040E-01  0.2683510E+00
 -0.2931880E+01  0.9665100E+01 -0.1027320E+00  0.2209840E+00 -0.1713872E+01  0.3150978E-01  0.2187260E+00
 -0.3865100E+01  0.9331180E+01 -0.1027320E+00  0.1766601E+00 -0.1851755E+01  0.4898378E-01  0.1697333E+00
 -0.4761110E+01  0.8907400E+01 -0.1027320E+00  0.1400135E+00 -0.2093617E+01  0.6991243E-01  0.1213097E+00
 -0.5611260E+01  0.8397840E+01 -0.1027320E+00  0.1197613E+00 -0.2479672E+01  0.9446927E-01  0.7360928E-01
 -0.6407370E+01  0.7807410E+01 -0.1027320E+00  0.1247638E+00 -0.2917156E+01  0.1216347E+00  0.2776705E-01
 -0.7141780E+01  0.7141780E+01 -0.1027320E+00  0.1513259E+00  0.3043491E+01  0.1505983E+00 -0.1482145E-01
 -0.7807410E+01  0.6407370E+01 -0.1027320E+00  0.1890080E+00  0.2847910E+01  0.1809154E+00 -0.5471393E-01
 -0.8397840E+01  0.5611260E+01 -0.1027320E+00  0.2312004E+00  0.2734671E+01  0.2123214E+00 -0.9150545E-01
 -0.8907410E+01  0.4761110E+01 -0.1027320E+00  0.2736320E+00  0.2667690E+01  0.2434761E+00 -0.1248754E+00
 -0.9331180E+01  0.3865100E+01 -0.1027320E+00  0.3133243E+00  0.2628493E+01  0.2729766E+00 -0.1538047E+00
 -0.9665100E+01  0.2931880E+01 -0.1027320E+00  0.3500733E+00  0.2604104E+01  0.3007120E+00 -0.1792306E+00
 -0.9905930E+01  0.1970410E+01 -0.1027320E+00  0.3828884E+00  0.2589982E+01  0.3260990E+00 -0.2006563E+00
 -0.1005140E+02  0.9899730E+00 -0.1027320E+00  0.4110651E+00  0.2581412E+01  0.3482375E+00 -0.2184151E+00
 -0.1010000E+02 -0.8829700E-06 -0.1027320E+00  0.4331627E+00  0.2576746E+01  0.3658797E+00 -0.2318662E+00
 -0.1005140E+02 -0.9899740E+00 -0.1027320E+00  0.4499330E+00  0.2573810E+01  0.3793365E+00 -0.2419576E+00
 -0.9905930E+01 -0.1970410E+01 -0.1027320E+00  0.4604723E+00  0.2572668E+01  0.3879389E+00 -0.2480687E+00
 -0.9665100E+01 -0.2931880E+01 -0.1027320E+00  0.4650868E+00  0.2572132E+01  0.3916923E+00 -0.2507644E+00
 -0.9331180E+01 -0.3865100E+01 -0.1027320E+00  0.4629907E+00  0.2572558E+01  0.3900334E+00 -0.2494681E+00
 -0.8907400E+01 -0.4761110E+01 -0.1027320E+00  0.4551102E+00  0.2573280E+01  0.3835715E+00 -0.2449452E+00
 -0.8397840E+01 -0.5611260E+01 -0.1027320E+00  0.4405460E+00  0.2575346E+01  0.3717858E+00 -0.2363390E+00
 -0.7807400E+01 -0.6407370E+01 -0.1027320E+00  0.4203699E+00  0.2578954E+01  0.3555700E+00 -0.2242337E+00
 -0.7141780E+01 -0.7141780E+01 -0.1027320E+00  0.3946239E+00  0.2586129E+01  0.3352945E+00 -0.2081000E+00
 -0.6407370E+01 -0.7807410E+01 -0.1027320E+00  0.3642014E+00  0.2597588E+01  0.3116263E+00 -0.1884985E+00
 -0.5611260E+01 -0.8397850E+01 -0.1027320E+00  0.3285397E+00  0.2617360E+01  0.2844195E+00 -0.1644503E+00
 -0.4761110E+01 -0.8907410E+01 -0.1027320E+00  0.2893893E+00  0.2649576E+01  0.2550626E+00 -0.1367086E+00
 -0.3865100E+01 -0.9331190E+01 -0.1027320E+00  0.2481025E+00  0.2703892E+01  0.2247136E+00 -0.1051601E+00
 -0.2931870E+01 -0.9665100E+01 -0.1027320E+00  0.2061964E+00  0.2793841E+01  0.1938538E+00 -0.7026863E-01
 -0.1970410E+01 -0.9905930E+01 -0.1027320E+00  0.1657199E+00  0.2952157E+01  0.1627552E+00 -0.3120577E-01
 -0.9899710E+00 -0.1005140E+02 -0.1027320E+00  0.1331106E+00 -0.3060175E+01  0.1326697E+00  0.1082557E-01
  0.1204410E-06 -0.1010000E+02 -0.1027320E+00  0.1185264E+00 -0.2657493E+01  0.1049070E+00  0.5516353E-01
  0.9899760E+00 -0.1005140E+02 -0.1027320E+00  0.1289444E+00 -0.2235685E+01  0.7955498E-01  0.1014774E+00
  0.1970410E+01 -0.9905930E+01 -0.1027320E+00  0.1606144E+00 -0.1934238E+01  0.5709740E-01  0.1501229E+00
  0.2931880E+01 -0.9665100E+01 -0.1027320E+00  0.2032237E+00 -0.1758693E+01  0.3796085E-01  0.1996469E+00
  0.3865100E+01 -0.9331180E+01 -0.1027320E+00  0.2497433E+00 -0.1662356E+01  0.2283441E-01  0.2486972E+00
  0.4761110E+01 -0.8907410E+01 -0.1027320E+00  0.2975068E+00 -0.1609136E+01  0.1140355E-01  0.2972882E+00
  0.5611260E+01 -0.8397840E+01 -0.1027320E+00  0.3453327E+00 -0.1582373E+01  0.3997784E-02  0.3453095E+00
  0.6407370E+01 -0.7807410E+01 -0.1027320E+00  0.3915934E+00 -0.1570928E+01  0.5140754E-04  0.3915934E+00
  0.7141780E+01 -0.7141780E+01 -0.1027320E+00  0.4347375E+00 -0.1569162E+01 -0.7105240E-03  0.4347369E+00
  0.7807410E+01 -0.6407370E+01 -0.1027320E+00  0.4752420E+00 -0.1573479E+01  0.1274874E-02  0.4752403E+00
  0.8397840E+01 -0.5611260E+01 -0.1027320E+00  0.5127594E+00 -0.1582466E+01  0.5983842E-02  0.5127245E+00
