 VARIABLES="X" "Y" "Z" "abs(eta) (m)" "angle(phi) (rad)" "PRE1" "PRE2"
ZONE N=   3200 ,E =    3136 ,F=FEPOINT,ET=QUADRILATERAL
  0.1010000E+02  0.0000000E+00  0.0000000E+00  0.4892973E+00 -0.1773156E+01  0.9833952E-01  0.4793132E+00
  0.1005140E+02  0.9899730E+00  0.0000000E+00  0.4879173E+00 -0.1772590E+01  0.9779193E-01  0.4780168E+00
  0.9905930E+01  0.1970410E+01  0.0000000E+00  0.4826747E+00 -0.1770829E+01  0.9590831E-01  0.4730501E+00
  0.9665100E+01  0.2931880E+01  0.0000000E+00  0.4747085E+00 -0.1768009E+01  0.9301268E-01  0.4655070E+00
  0.9331180E+01  0.3865100E+01  0.0000000E+00  0.4630815E+00 -0.1764452E+01  0.8911885E-01  0.4544253E+00
  0.8907400E+01  0.4761110E+01  0.0000000E+00  0.4488412E+00 -0.1760288E+01  0.8454347E-01  0.4408070E+00
  0.8397840E+01  0.5611260E+01  0.0000000E+00  0.4309548E+00 -0.1755768E+01  0.7926080E-01  0.4236033E+00
  0.7807410E+01  0.6407370E+01  0.0000000E+00  0.4106373E+00 -0.1751354E+01  0.7374164E-01  0.4039618E+00
  0.7141780E+01  0.7141780E+01  0.0000000E+00  0.3873395E+00 -0.1748182E+01  0.6834883E-01  0.3812615E+00
  0.6407370E+01  0.7807410E+01  0.0000000E+00  0.3619155E+00 -0.1746584E+01  0.6329302E-01  0.3563381E+00
  0.5611260E+01  0.8397840E+01  0.0000000E+00  0.3336370E+00 -0.1747943E+01  0.5879394E-01  0.3284158E+00
  0.4761110E+01  0.8907410E+01  0.0000000E+00  0.3036635E+00 -0.1753519E+01  0.5517787E-01  0.2986083E+00
  0.3865100E+01  0.9331180E+01  0.0000000E+00  0.2720759E+00 -0.1766667E+01  0.5295154E-01  0.2668734E+00
  0.2931870E+01  0.9665100E+01  0.0000000E+00  0.2395165E+00 -0.1790005E+01  0.5208456E-01  0.2337848E+00
  0.1970410E+01  0.9905930E+01  0.0000000E+00  0.2059245E+00 -0.1830593E+01  0.5289869E-01  0.1990141E+00
  0.9899730E+00  0.1005140E+02  0.0000000E+00  0.1726443E+00 -0.1897196E+01  0.5535573E-01  0.1635292E+00
 -0.4414850E-06  0.1010000E+02  0.0000000E+00  0.1411498E+00 -0.2007943E+01  0.5975661E-01  0.1278765E+00
 -0.9899740E+00  0.1005140E+02  0.0000000E+00  0.1133164E+00 -0.2190777E+01  0.6583907E-01  0.9222704E-01
 -0.1970410E+01  0.9905930E+01  0.0000000E+00  0.9310320E-01 -0.2485891E+01  0.7379550E-01  0.5676645E-01
 -0.2931880E+01  0.9665100E+01  0.0000000E+00  0.8607517E-01 -0.2882781E+01  0.8320842E-01  0.2202940E-01
 -0.3865100E+01  0.9331180E+01  0.0000000E+00  0.9458622E-01  0.3024966E+01  0.9394368E-01 -0.1100623E-01
 -0.4761110E+01  0.8907400E+01  0.0000000E+00  0.1139687E+00  0.2757682E+01  0.1056726E+00 -0.4268697E-01
 -0.5611260E+01  0.8397840E+01  0.0000000E+00  0.1387116E+00  0.2592252E+01  0.1183028E+00 -0.7242470E-01
 -0.6407370E+01  0.7807410E+01  0.0000000E+00  0.1651997E+00  0.2489316E+01  0.1312849E+00 -0.1002757E+00
 -0.7141780E+01  0.7141780E+01  0.0000000E+00  0.1908329E+00  0.2426551E+01  0.1440914E+00 -0.1251194E+00
 -0.7807410E+01  0.6407370E+01  0.0000000E+00  0.2152672E+00  0.2385141E+01  0.1565587E+00 -0.1477477E+00
 -0.8397840E+01  0.5611260E+01  0.0000000E+00  0.2373307E+00  0.2359193E+01  0.1683207E+00 -0.1673142E+00
 -0.8907410E+01  0.4761110E+01  0.0000000E+00  0.2570639E+00  0.2341337E+01  0.1790511E+00 -0.1844521E+00
 -0.9331180E+01  0.3865100E+01  0.0000000E+00  0.2730953E+00  0.2330483E+01  0.1880792E+00 -0.1980083E+00
 -0.9665100E+01  0.2931880E+01  0.0000000E+00  0.2862461E+00  0.2322834E+01  0.1955429E+00 -0.2090450E+00
 -0.9905930E+01  0.1970410E+01  0.0000000E+00  0.2954294E+00  0.2318874E+01  0.2009603E+00 -0.2165490E+00
 -0.1005140E+02  0.9899730E+00  0.0000000E+00  0.3014150E+00  0.2316140E+01  0.2044270E+00 -0.2214963E+00
 -0.1010000E+02 -0.8829700E-06  0.0000000E+00  0.3030551E+00  0.2315753E+01  0.2054532E+00 -0.2227810E+00
 -0.1005140E+02 -0.9899740E+00  0.0000000E+00  0.3014151E+00  0.2316140E+01  0.2044272E+00 -0.2214963E+00
 -0.9905930E+01 -0.1970410E+01  0.0000000E+00  0.2954296E+00  0.2318873E+01  0.2009603E+00 -0.2165494E+00
 -0.9665100E+01 -0.2931880E+01  0.0000000E+00  0.2862464E+00  0.2322835E+01  0.1955432E+00 -0.2090451E+00
 -0.9331180E+01 -0.3865100E+01  0.0000000E+00  0.2730954E+00  0.2330483E+01  0.1880793E+00 -0.1980083E+00
 -0.8907400E+01 -0.4761110E+01  0.0000000E+00  0.2570644E+00  0.2341336E+01  0.1790511E+00 -0.1844528E+00
 -0.8397840E+01 -0.5611260E+01  0.0000000E+00  0.2373308E+00  0.2359193E+01  0.1683207E+00 -0.1673142E+00
 -0.7807400E+01 -0.6407370E+01  0.0000000E+00  0.2152675E+00  0.2385138E+01  0.1565585E+00 -0.1477483E+00
 -0.7141780E+01 -0.7141780E+01  0.0000000E+00  0.1908333E+00  0.2426550E+01  0.1440916E+00 -0.1251198E+00
 -0.6407370E+01 -0.7807410E+01  0.0000000E+00  0.1651996E+00  0.2489316E+01  0.1312848E+00 -0.1002756E+00
 -0.5611260E+01 -0.8397850E+01  0.0000000E+00  0.1387118E+00  0.2592255E+01  0.1183032E+00 -0.7242456E-01
 -0.4761110E+01 -0.8907410E+01  0.0000000E+00  0.1139685E+00  0.2757683E+01  0.1056724E+00 -0.4268677E-01
 -0.3865100E+01 -0.9331190E+01  0.0000000E+00  0.9458631E-01  0.3024968E+01  0.9394380E-01 -0.1100608E-01
 -0.2931870E+01 -0.9665100E+01  0.0000000E+00  0.8607512E-01 -0.2882779E+01  0.8320833E-01  0.2202953E-01
 -0.1970410E+01 -0.9905930E+01  0.0000000E+00  0.9310327E-01 -0.2485893E+01  0.7379565E-01  0.5676637E-01
 -0.9899710E+00 -0.1005140E+02  0.0000000E+00  0.1133163E+00 -0.2190778E+01  0.6583913E-01  0.9222692E-01
  0.1204410E-06 -0.1010000E+02  0.0000000E+00  0.1411498E+00 -0.2007945E+01  0.5975692E-01  0.1278764E+00
  0.9899760E+00 -0.1005140E+02  0.0000000E+00  0.1726445E+00 -0.1897197E+01  0.5535597E-01  0.1635293E+00
  0.1970410E+01 -0.9905930E+01  0.0000000E+00  0.2059245E+00 -0.1830595E+01  0.5289904E-01  0.1990140E+00
  0.2931880E+01 -0.9665100E+01  0.0000000E+00  0.2395169E+00 -0.1790005E+01  0.5208463E-01  0.2337852E+00
  0.3865100E+01 -0.9331180E+01  0.0000000E+00  0.2720757E+00 -0.1766668E+01  0.5295172E-01  0.2668732E+00
  0.4761110E+01 -0.8907410E+01  0.0000000E+00  0.3036635E+00 -0.1753520E+01  0.5517818E-01  0.2986083E+00
  0.5611260E+01 -0.8397840E+01  0.0000000E+00  0.3336375E+00 -0.1747943E+01  0.5879399E-01  0.3284163E+00
  0.6407370E+01 -0.7807410E+01  0.0000000E+00  0.3619155E+00 -0.1746585E+01  0.6329346E-01  0.3563380E+00
  0.7141780E+01 -0.7141780E+01  0.0000000E+00  0.3873397E+00 -0.1748183E+01  0.6834912E-01  0.3812617E+00
  0.7807410E+01 -0.6407370E+01  0.0000000E+00  0.4106373E+00 -0.1751355E+01  0.7374191E-01  0.4039617E+00
  0.8397840E+01 -0.5611260E+01  0.0000000E+00  0.4309549E+00 -0.1755769E+01  0.7926122E-01  0.4236033E+00
  0.8907410E+01 -0.4761110E+01  0.0000000E+00  0.4488411E+00 -0.1760288E+01  0.8454351E-01  0.4408069E+00
  0.9331180E+01 -0.3865100E+01  0.0000000E+00  0.4630821E+00 -0.1764452E+01  0.8911898E-01  0.4544258E+00
  0.9665100E+01 -0.2931870E+01  0.0000000E+00  0.4747087E+00 -0.1768009E+01  0.9301286E-01  0.4655072E+00
  0.9905930E+01 -0.1970410E+01  0.0000000E+00  0.4826739E+00 -0.1770830E+01  0.9590828E-01  0.4730494E+00
  0.1005140E+02 -0.9899690E+00  0.0000000E+00  0.4879175E+00 -0.1772590E+01  0.9779173E-01  0.4780171E+00
  0.1010000E+02  0.0000000E+00 -0.2568960E-01  0.4887821E+00 -0.1773195E+01  0.9825461E-01  0.4788048E+00
  0.1005140E+02  0.9899730E+00 -0.2568960E-01  0.4873213E+00 -0.1772628E+01  0.9769058E-01  0.4774292E+00
  0.9905930E+01  0.1970410E+01 -0.2568960E-01  0.4820484E+00 -0.1770867E+01  0.9580185E-01  0.4724327E+00
  0.9665100E+01  0.2931880E+01 -0.2568960E-01  0.4741283E+00 -0.1768044E+01  0.9291566E-01  0.4649347E+00
  0.9331180E+01  0.3865100E+01 -0.2568960E-01  0.4625946E+00 -0.1764480E+01  0.8903765E-01  0.4539450E+00
  0.8907400E+01  0.4761110E+01 -0.2568960E-01  0.4482951E+00 -0.1760323E+01  0.8445600E-01  0.4402678E+00
  0.8397840E+01  0.5611260E+01 -0.2568960E-01  0.4303997E+00 -0.1755808E+01  0.7917532E-01  0.4230546E+00
  0.7807410E+01  0.6407370E+01 -0.2568960E-01  0.4101379E+00 -0.1751383E+01  0.7366340E-01  0.4034684E+00
  0.7141780E+01  0.7141780E+01 -0.2568960E-01  0.3869305E+00 -0.1748179E+01  0.6827548E-01  0.3808591E+00
  0.6407370E+01  0.7807410E+01 -0.2568960E-01  0.3614802E+00 -0.1746610E+01  0.6322611E-01  0.3559078E+00
  0.5611260E+01  0.8397840E+01 -0.2568960E-01  0.3332152E+00 -0.1747986E+01  0.5873387E-01  0.3279980E+00
  0.4761110E+01  0.8907410E+01 -0.2568960E-01  0.3032985E+00 -0.1753537E+01  0.5511703E-01  0.2982484E+00
  0.3865100E+01  0.9331180E+01 -0.2568960E-01  0.2717827E+00 -0.1766612E+01  0.5287983E-01  0.2665887E+00
  0.2931870E+01  0.9665100E+01 -0.2568960E-01  0.2392357E+00 -0.1790018E+01  0.5202655E-01  0.2335100E+00
  0.1970410E+01  0.9905930E+01 -0.2568960E-01  0.2056786E+00 -0.1830649E+01  0.5284669E-01  0.1987735E+00
  0.9899730E+00  0.1005140E+02 -0.2568960E-01  0.1724438E+00 -0.1897202E+01  0.5529253E-01  0.1633389E+00
 -0.4414850E-06  0.1010000E+02 -0.2568960E-01  0.1409830E+00 -0.2007827E+01  0.5967123E-01  0.1277323E+00
 -0.9899740E+00  0.1005140E+02 -0.2568960E-01  0.1131932E+00 -0.2190732E+01  0.6576330E-01  0.9212977E-01
 -0.1970410E+01  0.9905930E+01 -0.2568960E-01  0.9301316E-01 -0.2485775E+01  0.7371753E-01  0.5672013E-01
 -0.2931880E+01  0.9665100E+01 -0.2568960E-01  0.8598059E-01 -0.2882640E+01  0.8311389E-01  0.2201693E-01
 -0.3865100E+01  0.9331180E+01 -0.2568960E-01  0.9447133E-01  0.3024783E+01  0.9382756E-01 -0.1101004E-01
 -0.4761110E+01  0.8907400E+01 -0.2568960E-01  0.1138293E+00  0.2757871E+01  0.1055514E+00 -0.4261469E-01
 -0.5611260E+01  0.8397840E+01 -0.2568960E-01  0.1385301E+00  0.2592555E+01  0.1181700E+00 -0.7229421E-01
 -0.6407370E+01  0.7807410E+01 -0.2568960E-01  0.1649961E+00  0.2489461E+01  0.1311375E+00 -0.1001332E+00
 -0.7141780E+01  0.7141780E+01 -0.2568960E-01  0.1906412E+00  0.2426469E+01  0.1439365E+00 -0.1250054E+00
 -0.7807410E+01  0.6407370E+01 -0.2568960E-01  0.2149978E+00  0.2385272E+01  0.1563820E+00 -0.1475423E+00
 -0.8397840E+01  0.5611260E+01 -0.2568960E-01  0.2370082E+00  0.2359394E+01  0.1681255E+00 -0.1670530E+00
 -0.8907410E+01  0.4761110E+01 -0.2568960E-01  0.2567448E+00  0.2341460E+01  0.1788515E+00 -0.1842011E+00
 -0.9331180E+01  0.3865100E+01 -0.2568960E-01  0.2728269E+00  0.2330468E+01  0.1878914E+00 -0.1978164E+00
 -0.9665100E+01  0.2931880E+01 -0.2568960E-01  0.2858895E+00  0.2322953E+01  0.1953242E+00 -0.2087613E+00
 -0.9905930E+01  0.1970410E+01 -0.2568960E-01  0.2950278E+00  0.2319047E+01  0.2007245E+00 -0.2162200E+00
 -0.1005140E+02  0.9899730E+00 -0.2568960E-01  0.3010408E+00  0.2316259E+01  0.2041994E+00 -0.2211971E+00
 -0.1010000E+02 -0.8829700E-06 -0.2568960E-01  0.3027582E+00  0.2315756E+01  0.2052525E+00 -0.2225623E+00
 -0.1005140E+02 -0.9899740E+00 -0.2568960E-01  0.3010407E+00  0.2316259E+01  0.2041994E+00 -0.2211970E+00
 -0.9905930E+01 -0.1970410E+01 -0.2568960E-01  0.2950276E+00  0.2319047E+01  0.2007244E+00 -0.2162199E+00
 -0.9665100E+01 -0.2931880E+01 -0.2568960E-01  0.2858897E+00  0.2322954E+01  0.1953245E+00 -0.2087613E+00
 -0.9331180E+01 -0.3865100E+01 -0.2568960E-01  0.2728270E+00  0.2330468E+01  0.1878914E+00 -0.1978165E+00
 -0.8907400E+01 -0.4761110E+01 -0.2568960E-01  0.2567453E+00  0.2341460E+01  0.1788517E+00 -0.1842016E+00
 -0.8397840E+01 -0.5611260E+01 -0.2568960E-01  0.2370083E+00  0.2359395E+01  0.1681256E+00 -0.1670530E+00
 -0.7807400E+01 -0.6407370E+01 -0.2568960E-01  0.2149982E+00  0.2385270E+01  0.1563821E+00 -0.1475427E+00
 -0.7141780E+01 -0.7141780E+01 -0.2568960E-01  0.1906414E+00  0.2426468E+01  0.1439365E+00 -0.1250057E+00
 -0.6407370E+01 -0.7807410E+01 -0.2568960E-01  0.1649965E+00  0.2489461E+01  0.1311379E+00 -0.1001333E+00
 -0.5611260E+01 -0.8397850E+01 -0.2568960E-01  0.1385300E+00  0.2592555E+01  0.1181698E+00 -0.7229412E-01
 -0.4761110E+01 -0.8907410E+01 -0.2568960E-01  0.1138295E+00  0.2757873E+01  0.1055517E+00 -0.4261456E-01
 -0.3865100E+01 -0.9331190E+01 -0.2568960E-01  0.9447171E-01  0.3024785E+01  0.9382795E-01 -0.1100999E-01
 -0.2931870E+01 -0.9665100E+01 -0.2568960E-01  0.8598077E-01 -0.2882639E+01  0.8311403E-01  0.2201706E-01
 -0.1970410E+01 -0.9905930E+01 -0.2568960E-01  0.9301328E-01 -0.2485777E+01  0.7371777E-01  0.5672002E-01
 -0.9899710E+00 -0.1005140E+02 -0.2568960E-01  0.1131933E+00 -0.2190731E+01  0.6576331E-01  0.9212987E-01
  0.1204410E-06 -0.1010000E+02 -0.2568960E-01  0.1409830E+00 -0.2007828E+01  0.5967136E-01  0.1277323E+00
  0.9899760E+00 -0.1005140E+02 -0.2568960E-01  0.1724440E+00 -0.1897203E+01  0.5529268E-01  0.1633390E+00
  0.1970410E+01 -0.9905930E+01 -0.2568960E-01  0.2056784E+00 -0.1830650E+01  0.5284678E-01  0.1987733E+00
  0.2931880E+01 -0.9665100E+01 -0.2568960E-01  0.2392358E+00 -0.1790019E+01  0.5202677E-01  0.2335101E+00
  0.3865100E+01 -0.9331180E+01 -0.2568960E-01  0.2717825E+00 -0.1766612E+01  0.5287977E-01  0.2665885E+00
  0.4761110E+01 -0.8907410E+01 -0.2568960E-01  0.3032987E+00 -0.1753538E+01  0.5511734E-01  0.2982485E+00
  0.5611260E+01 -0.8397840E+01 -0.2568960E-01  0.3332154E+00 -0.1747987E+01  0.5873409E-01  0.3279982E+00
  0.6407370E+01 -0.7807410E+01 -0.2568960E-01  0.3614804E+00 -0.1746610E+01  0.6322629E-01  0.3559080E+00
  0.7141780E+01 -0.7141780E+01 -0.2568960E-01  0.3869301E+00 -0.1748180E+01  0.6827570E-01  0.3808587E+00
  0.7807410E+01 -0.6407370E+01 -0.2568960E-01  0.4101380E+00 -0.1751384E+01  0.7366376E-01  0.4034685E+00
  0.8397840E+01 -0.5611260E+01 -0.2568960E-01  0.4304002E+00 -0.1755808E+01  0.7917549E-01  0.4230550E+00
  0.8907410E+01 -0.4761110E+01 -0.2568960E-01  0.4482957E+00 -0.1760322E+01  0.8445590E-01  0.4402683E+00
  0.9331180E+01 -0.3865100E+01 -0.2568960E-01  0.4625942E+00 -0.1764480E+01  0.8903768E-01  0.4539446E+00
  0.9665100E+01 -0.2931870E+01 -0.2568960E-01  0.4741290E+00 -0.1768045E+01  0.9291586E-01  0.4649354E+00
  0.9905930E+01 -0.1970410E+01 -0.2568960E-01  0.4820482E+00 -0.1770868E+01  0.9580187E-01  0.4724325E+00
  0.1005140E+02 -0.9899690E+00 -0.2568960E-01  0.4873218E+00 -0.1772628E+01  0.9769054E-01  0.4774297E+00
  0.1010000E+02  0.0000000E+00 -0.1027320E+00  0.4873528E+00 -0.1773207E+01  0.9797316E-01  0.4774034E+00
  0.1005140E+02  0.9899730E+00 -0.1027320E+00  0.4857428E+00 -0.1772641E+01  0.9738018E-01  0.4758815E+00
  0.9905930E+01  0.1970410E+01 -0.1027320E+00  0.4805342E+00 -0.1770878E+01  0.9550565E-01  0.4709477E+00
  0.9665100E+01  0.2931880E+01 -0.1027320E+00  0.4725887E+00 -0.1768048E+01  0.9261578E-01  0.4634246E+00
  0.9331180E+01  0.3865100E+01 -0.1027320E+00  0.4612370E+00 -0.1764470E+01  0.8877216E-01  0.4526136E+00
  0.8907400E+01  0.4761110E+01 -0.1027320E+00  0.4468445E+00 -0.1760326E+01  0.8418397E-01  0.4388428E+00
  0.8397840E+01  0.5611260E+01 -0.1027320E+00  0.4290435E+00 -0.1755790E+01  0.7891861E-01  0.4217229E+00
  0.7807410E+01  0.6407370E+01 -0.1027320E+00  0.4087996E+00 -0.1751361E+01  0.7341448E-01  0.4021535E+00
  0.7141780E+01  0.7141780E+01 -0.1027320E+00  0.3857815E+00 -0.1748100E+01  0.6804264E-01  0.3797336E+00
  0.6407370E+01  0.7807410E+01 -0.1027320E+00  0.3603086E+00 -0.1746582E+01  0.6301152E-01  0.3547560E+00
  0.5611260E+01  0.8397840E+01 -0.1027320E+00  0.3321544E+00 -0.1747912E+01  0.5852264E-01  0.3269582E+00
  0.4761110E+01  0.8907410E+01 -0.1027320E+00  0.3022977E+00 -0.1753475E+01  0.5491664E-01  0.2972676E+00
  0.3865100E+01  0.9331180E+01 -0.1027320E+00  0.2709458E+00 -0.1766405E+01  0.5266211E-01  0.2657788E+00
  0.2931870E+01  0.9665100E+01 -0.1027320E+00  0.2384538E+00 -0.1789928E+01  0.5183568E-01  0.2327515E+00
  0.1970410E+01  0.9905930E+01 -0.1027320E+00  0.2050013E+00 -0.1830481E+01  0.5263941E-01  0.1981278E+00
  0.9899730E+00  0.1005140E+02 -0.1027320E+00  0.1718555E+00 -0.1897096E+01  0.5508660E-01  0.1627875E+00
 -0.4414850E-06  0.1010000E+02 -0.1027320E+00  0.1404866E+00 -0.2007498E+01  0.5941921E-01  0.1273022E+00
 -0.9899740E+00  0.1005140E+02 -0.1027320E+00  0.1128032E+00 -0.2190568E+01  0.6552169E-01  0.9182300E-01
 -0.1970410E+01  0.9905930E+01 -0.1027320E+00  0.9266558E-01 -0.2485796E+01  0.7344326E-01  0.5650660E-01
 -0.2931880E+01  0.9665100E+01 -0.1027320E+00  0.8567290E-01 -0.2882900E+01  0.8282216E-01  0.2191657E-01
 -0.3865100E+01  0.9331180E+01 -0.1027320E+00  0.9413603E-01  0.3023820E+01  0.9348393E-01 -0.1106101E-01
 -0.4761110E+01  0.8907400E+01 -0.1027320E+00  0.1134437E+00  0.2757656E+01  0.1051846E+00 -0.4249302E-01
 -0.5611260E+01  0.8397840E+01 -0.1027320E+00  0.1380926E+00  0.2592145E+01  0.1177671E+00 -0.7211421E-01
 -0.6407370E+01  0.7807410E+01 -0.1027320E+00  0.1644713E+00  0.2489264E+01  0.1307008E+00 -0.9984048E-01
 -0.7141780E+01  0.7141780E+01 -0.1027320E+00  0.1901158E+00  0.2425909E+01  0.1434698E+00 -0.1247414E+00
 -0.7807410E+01  0.6407370E+01 -0.1027320E+00  0.2143061E+00  0.2385147E+01  0.1558605E+00 -0.1470871E+00
 -0.8397840E+01  0.5611260E+01 -0.1027320E+00  0.2362905E+00  0.2359188E+01  0.1675820E+00 -0.1665817E+00
 -0.8907410E+01  0.4761110E+01 -0.1027320E+00  0.2559344E+00  0.2341368E+01  0.1782700E+00 -0.1836362E+00
 -0.9331180E+01  0.3865100E+01 -0.1027320E+00  0.2720939E+00  0.2330135E+01  0.1873207E+00 -0.1973474E+00
 -0.9665100E+01  0.2931880E+01 -0.1027320E+00  0.2849807E+00  0.2322880E+01  0.1946880E+00 -0.2081120E+00
 -0.9905930E+01  0.1970410E+01 -0.1027320E+00  0.2941392E+00  0.2318909E+01  0.2000901E+00 -0.2155964E+00
 -0.1005140E+02  0.9899730E+00 -0.1027320E+00  0.3000884E+00  0.2316196E+01  0.2035397E+00 -0.2205100E+00
 -0.1010000E+02 -0.8829700E-06 -0.1027320E+00  0.3019473E+00  0.2315476E+01  0.2046407E+00 -0.2220233E+00
 -0.1005140E+02 -0.9899740E+00 -0.1027320E+00  0.3000884E+00  0.2316195E+01  0.2035395E+00 -0.2205101E+00
 -0.9905930E+01 -0.1970410E+01 -0.1027320E+00  0.2941394E+00  0.2318909E+01  0.2000903E+00 -0.2155965E+00
 -0.9665100E+01 -0.2931880E+01 -0.1027320E+00  0.2849807E+00  0.2322880E+01  0.1946879E+00 -0.2081121E+00
 -0.9331180E+01 -0.3865100E+01 -0.1027320E+00  0.2720944E+00  0.2330134E+01  0.1873209E+00 -0.1973479E+00
 -0.8907400E+01 -0.4761110E+01 -0.1027320E+00  0.2559348E+00  0.2341368E+01  0.1782703E+00 -0.1836364E+00
 -0.8397840E+01 -0.5611260E+01 -0.1027320E+00  0.2362905E+00  0.2359188E+01  0.1675821E+00 -0.1665816E+00
 -0.7807400E+01 -0.6407370E+01 -0.1027320E+00  0.2143067E+00  0.2385146E+01  0.1558608E+00 -0.1470876E+00
 -0.7141780E+01 -0.7141780E+01 -0.1027320E+00  0.1901161E+00  0.2425909E+01  0.1434701E+00 -0.1247415E+00
 -0.6407370E+01 -0.7807410E+01 -0.1027320E+00  0.1644714E+00  0.2489262E+01  0.1307007E+00 -0.9984079E-01
 -0.5611260E+01 -0.8397850E+01 -0.1027320E+00  0.1380926E+00  0.2592147E+01  0.1177673E+00 -0.7211398E-01
 -0.4761110E+01 -0.8907410E+01 -0.1027320E+00  0.1134436E+00  0.2757657E+01  0.1051846E+00 -0.4249291E-01
 -0.3865100E+01 -0.9331190E+01 -0.1027320E+00  0.9413597E-01  0.3023821E+01  0.9348389E-01 -0.1106093E-01
 -0.2931870E+01 -0.9665100E+01 -0.1027320E+00  0.8567301E-01 -0.2882897E+01  0.8282221E-01  0.2191682E-01
 -0.1970410E+01 -0.9905930E+01 -0.1027320E+00  0.9266565E-01 -0.2485797E+01  0.7344337E-01  0.5650658E-01
 -0.9899710E+00 -0.1005140E+02 -0.1027320E+00  0.1128031E+00 -0.2190570E+01  0.6552180E-01  0.9182288E-01
  0.1204410E-06 -0.1010000E+02 -0.1027320E+00  0.1404866E+00 -0.2007498E+01  0.5941923E-01  0.1273022E+00
  0.9899760E+00 -0.1005140E+02 -0.1027320E+00  0.1718556E+00 -0.1897097E+01  0.5508684E-01  0.1627875E+00
  0.1970410E+01 -0.9905930E+01 -0.1027320E+00  0.2050014E+00 -0.1830483E+01  0.5263971E-01  0.1981278E+00
  0.2931880E+01 -0.9665100E+01 -0.1027320E+00  0.2384542E+00 -0.1789929E+01  0.5183581E-01  0.2327519E+00
  0.3865100E+01 -0.9331180E+01 -0.1027320E+00  0.2709461E+00 -0.1766406E+01  0.5266226E-01  0.2657790E+00
  0.4761110E+01 -0.8907410E+01 -0.1027320E+00  0.3022979E+00 -0.1753475E+01  0.5491675E-01  0.2972679E+00
  0.5611260E+01 -0.8397840E+01 -0.1027320E+00  0.3321548E+00 -0.1747912E+01  0.5852267E-01  0.3269585E+00
  0.6407370E+01 -0.7807410E+01 -0.1027320E+00  0.3603085E+00 -0.1746583E+01  0.6301154E-01  0.3547559E+00
  0.7141780E+01 -0.7141780E+01 -0.1027320E+00  0.3857814E+00 -0.1748100E+01  0.6804264E-01  0.3797335E+00
  0.7807410E+01 -0.6407370E+01 -0.1027320E+00  0.4087996E+00 -0.1751362E+01  0.7341457E-01  0.4021535E+00
  0.8397840E+01 -0.5611260E+01 -0.1027320E+00  0.4290436E+00 -0.1755790E+01  0.7891861E-01  0.4217230E+00
