 VARIABLES="X" "Y" "Z" "abs(eta) (m)" "angle(phi) (rad)" "PRE1" "PRE2"
ZONE N=   3200 ,E =    3136 ,F=FEPOINT,ET=QUADRILATERAL
  0.1010000E+02  0.0000000E+00  0.0000000E+00  0.8522726E-01 -0.2233972E+01  0.5246779E-01  0.6716262E-01
  0.1005140E+02  0.9899730E+00  0.0000000E+00  0.7000272E-01 -0.2455526E+01  0.5416418E-01  0.4434662E-01
  0.9905930E+01  0.1970410E+01  0.0000000E+00  0.6058156E-01 -0.2777954E+01  0.5662006E-01  0.2154749E-01
  0.9665100E+01  0.2931880E+01  0.0000000E+00  0.5987662E-01  0.3129710E+01  0.5987239E-01 -0.7114621E-03
  0.9331180E+01  0.3865100E+01  0.0000000E+00  0.6744073E-01  0.2806152E+01  0.6368194E-01 -0.2220052E-01
  0.8907400E+01  0.4761110E+01  0.0000000E+00  0.8024873E-01  0.2583218E+01  0.6806034E-01 -0.4251645E-01
  0.8397840E+01  0.5611260E+01  0.0000000E+00  0.9571658E-01  0.2436171E+01  0.7287267E-01 -0.6205835E-01
  0.7807410E+01  0.6407370E+01  0.0000000E+00  0.1117731E+00  0.2342495E+01  0.7794540E-01 -0.8011082E-01
  0.7141780E+01  0.7141780E+01  0.0000000E+00  0.1275386E+00  0.2279585E+01  0.8301673E-01 -0.9682110E-01
  0.6407370E+01  0.7807410E+01  0.0000000E+00  0.1419980E+00  0.2238990E+01  0.8797758E-01 -0.1114602E+00
  0.5611260E+01  0.8397840E+01  0.0000000E+00  0.1554915E+00  0.2210116E+01  0.9277393E-01 -0.1247823E+00
  0.4761110E+01  0.8907410E+01  0.0000000E+00  0.1671303E+00  0.2190886E+01  0.9712073E-01 -0.1360151E+00
  0.3865100E+01  0.9331180E+01  0.0000000E+00  0.1771443E+00  0.2176699E+01  0.1008844E+00 -0.1456106E+00
  0.2931870E+01  0.9665100E+01  0.0000000E+00  0.1846324E+00  0.2168410E+01  0.1038874E+00 -0.1526321E+00
  0.1970410E+01  0.9905930E+01  0.0000000E+00  0.1904167E+00  0.2162430E+01  0.1061988E+00 -0.1580517E+00
  0.9899730E+00  0.1005140E+02  0.0000000E+00  0.1937245E+00  0.2159500E+01  0.1075721E+00 -0.1611131E+00
 -0.4414850E-06  0.1010000E+02  0.0000000E+00  0.1951468E+00  0.2157795E+01  0.1080849E+00 -0.1624805E+00
 -0.9899740E+00  0.1005140E+02  0.0000000E+00  0.1937246E+00  0.2159500E+01  0.1075721E+00 -0.1611132E+00
 -0.1970410E+01  0.9905930E+01  0.0000000E+00  0.1904170E+00  0.2162429E+01  0.1061987E+00 -0.1580521E+00
 -0.2931880E+01  0.9665100E+01  0.0000000E+00  0.1846323E+00  0.2168411E+01  0.1038874E+00 -0.1526318E+00
 -0.3865100E+01  0.9331180E+01  0.0000000E+00  0.1771446E+00  0.2176698E+01  0.1008844E+00 -0.1456109E+00
 -0.4761110E+01  0.8907400E+01  0.0000000E+00  0.1671307E+00  0.2190885E+01  0.9712087E-01 -0.1360155E+00
 -0.5611260E+01  0.8397840E+01  0.0000000E+00  0.1554917E+00  0.2210115E+01  0.9277395E-01 -0.1247824E+00
 -0.6407370E+01  0.7807410E+01  0.0000000E+00  0.1419982E+00  0.2238989E+01  0.8797755E-01 -0.1114604E+00
 -0.7141780E+01  0.7141780E+01  0.0000000E+00  0.1275386E+00  0.2279582E+01  0.8301643E-01 -0.9682126E-01
 -0.7807410E+01  0.6407370E+01  0.0000000E+00  0.1117733E+00  0.2342494E+01  0.7794551E-01 -0.8011103E-01
 -0.8397840E+01  0.5611260E+01  0.0000000E+00  0.9571660E-01  0.2436169E+01  0.7287258E-01 -0.6205847E-01
 -0.8907410E+01  0.4761110E+01  0.0000000E+00  0.8024880E-01  0.2583216E+01  0.6806030E-01 -0.4251665E-01
 -0.9331180E+01  0.3865100E+01  0.0000000E+00  0.6744096E-01  0.2806148E+01  0.6368208E-01 -0.2220082E-01
 -0.9665100E+01  0.2931880E+01  0.0000000E+00  0.5987689E-01  0.3129706E+01  0.5987266E-01 -0.7117029E-03
 -0.9905930E+01  0.1970410E+01  0.0000000E+00  0.6058161E-01 -0.2777959E+01  0.5662021E-01  0.2154724E-01
 -0.1005140E+02  0.9899730E+00  0.0000000E+00  0.7000241E-01 -0.2455528E+01  0.5416401E-01  0.4434634E-01
 -0.1010000E+02 -0.8829700E-06  0.0000000E+00  0.8522718E-01 -0.2233974E+01  0.5246793E-01  0.6716240E-01
 -0.1005140E+02 -0.9899740E+00  0.0000000E+00  0.1037546E+00 -0.2091980E+01  0.5166014E-01  0.8997920E-01
 -0.9905930E+01 -0.1970410E+01  0.0000000E+00  0.1240344E+00 -0.2000080E+01  0.5162558E-01  0.1127800E+00
 -0.9665100E+01 -0.2931880E+01  0.0000000E+00  0.1448651E+00 -0.1941183E+01  0.5243774E-01  0.1350414E+00
 -0.9331180E+01 -0.3865100E+01  0.0000000E+00  0.1655475E+00 -0.1902310E+01  0.5388145E-01  0.1565336E+00
 -0.8907400E+01 -0.4761110E+01  0.0000000E+00  0.1855081E+00 -0.1877448E+01  0.5599895E-01  0.1768541E+00
 -0.8397840E+01 -0.5611260E+01  0.0000000E+00  0.2049705E+00 -0.1860986E+01  0.5864910E-01  0.1964006E+00
 -0.7807400E+01 -0.6407370E+01  0.0000000E+00  0.2231587E+00 -0.1850950E+01  0.6170422E-01  0.2144584E+00
 -0.7141780E+01 -0.7141780E+01  0.0000000E+00  0.2401126E+00 -0.1844522E+01  0.6490719E-01  0.2311734E+00
 -0.6407370E+01 -0.7807410E+01  0.0000000E+00  0.2551023E+00 -0.1841411E+01  0.6819503E-01  0.2458182E+00
 -0.5611260E+01 -0.8397850E+01  0.0000000E+00  0.2688247E+00 -0.1839959E+01  0.7148707E-01  0.2591453E+00
 -0.4761110E+01 -0.8907410E+01  0.0000000E+00  0.2804714E+00 -0.1839816E+01  0.7454546E-01  0.2703834E+00
 -0.3865100E+01 -0.9331190E+01  0.0000000E+00  0.2904369E+00 -0.1839921E+01  0.7722361E-01  0.2799823E+00
 -0.2931870E+01 -0.9665100E+01  0.0000000E+00  0.2977868E+00 -0.1840680E+01  0.7939580E-01  0.2870074E+00
 -0.1970410E+01 -0.9905930E+01  0.0000000E+00  0.3034646E+00 -0.1841294E+01  0.8108921E-01  0.2924300E+00
 -0.9899710E+00 -0.1005140E+02  0.0000000E+00  0.3066862E+00 -0.1841801E+01  0.8209980E-01  0.2954929E+00
  0.1204410E-06 -0.1010000E+02  0.0000000E+00  0.3081039E+00 -0.1841786E+01  0.8247479E-01  0.2968601E+00
  0.9899760E+00 -0.1005140E+02  0.0000000E+00  0.3066863E+00 -0.1841801E+01  0.8209969E-01  0.2954931E+00
  0.1970410E+01 -0.9905930E+01  0.0000000E+00  0.3034646E+00 -0.1841294E+01  0.8108917E-01  0.2924300E+00
  0.2931880E+01 -0.9665100E+01  0.0000000E+00  0.2977868E+00 -0.1840680E+01  0.7939569E-01  0.2870075E+00
  0.3865100E+01 -0.9331180E+01  0.0000000E+00  0.2904372E+00 -0.1839921E+01  0.7722358E-01  0.2799827E+00
  0.4761110E+01 -0.8907410E+01  0.0000000E+00  0.2804712E+00 -0.1839815E+01  0.7454533E-01  0.2703832E+00
  0.5611260E+01 -0.8397840E+01  0.0000000E+00  0.2688250E+00 -0.1839959E+01  0.7148717E-01  0.2591456E+00
  0.6407370E+01 -0.7807410E+01  0.0000000E+00  0.2551025E+00 -0.1841411E+01  0.6819504E-01  0.2458184E+00
  0.7141780E+01 -0.7141780E+01  0.0000000E+00  0.2401127E+00 -0.1844521E+01  0.6490704E-01  0.2311735E+00
  0.7807410E+01 -0.6407370E+01  0.0000000E+00  0.2231587E+00 -0.1850950E+01  0.6170416E-01  0.2144584E+00
  0.8397840E+01 -0.5611260E+01  0.0000000E+00  0.2049707E+00 -0.1860987E+01  0.5864929E-01  0.1964007E+00
  0.8907410E+01 -0.4761110E+01  0.0000000E+00  0.1855079E+00 -0.1877447E+01  0.5599873E-01  0.1768539E+00
  0.9331180E+01 -0.3865100E+01  0.0000000E+00  0.1655474E+00 -0.1902308E+01  0.5388113E-01  0.1565336E+00
  0.9665100E+01 -0.2931870E+01  0.0000000E+00  0.1448650E+00 -0.1941183E+01  0.5243758E-01  0.1350413E+00
  0.9905930E+01 -0.1970410E+01  0.0000000E+00  0.1240346E+00 -0.2000081E+01  0.5162578E-01  0.1127802E+00
  0.1005140E+02 -0.9899690E+00  0.0000000E+00  0.1037546E+00 -0.2091977E+01  0.5165987E-01  0.8997935E-01
  0.1010000E+02  0.0000000E+00 -0.2568960E-01  0.8516267E-01 -0.2233922E+01  0.5242470E-01  0.6711432E-01
  0.1005140E+02  0.9899730E+00 -0.2568960E-01  0.6994873E-01 -0.2455528E+01  0.5412246E-01  0.4431234E-01
  0.9905930E+01  0.1970410E+01 -0.2568960E-01  0.6056383E-01 -0.2777723E+01  0.5659851E-01  0.2155425E-01
  0.9665100E+01  0.2931880E+01 -0.2568960E-01  0.5983257E-01  0.3129513E+01  0.5982820E-01 -0.7227287E-03
  0.9331180E+01  0.3865100E+01 -0.2568960E-01  0.6739648E-01  0.2805845E+01  0.6363335E-01 -0.2220549E-01
  0.8907400E+01  0.4761110E+01 -0.2568960E-01  0.8019929E-01  0.2583044E+01  0.6801100E-01 -0.4250212E-01
  0.8397840E+01  0.5611260E+01 -0.2568960E-01  0.9561326E-01  0.2436719E+01  0.7282797E-01 -0.6195144E-01
  0.7807410E+01  0.6407370E+01 -0.2568960E-01  0.1117112E+00  0.2342359E+01  0.7789134E-01 -0.8007709E-01
  0.7141780E+01  0.7141780E+01 -0.2568960E-01  0.1274775E+00  0.2279405E+01  0.8295951E-01 -0.9678959E-01
  0.6407370E+01  0.7807410E+01 -0.2568960E-01  0.1419189E+00  0.2238890E+01  0.8791744E-01 -0.1114069E+00
  0.5611260E+01  0.8397840E+01 -0.2568960E-01  0.1553014E+00  0.2210426E+01  0.9269915E-01 -0.1246010E+00
  0.4761110E+01  0.8907410E+01 -0.2568960E-01  0.1670393E+00  0.2190801E+01  0.9705625E-01 -0.1359492E+00
  0.3865100E+01  0.9331180E+01 -0.2568960E-01  0.1770623E+00  0.2176577E+01  0.1008200E+00 -0.1455555E+00
  0.2931870E+01  0.9665100E+01 -0.2568960E-01  0.1845308E+00  0.2168334E+01  0.1038187E+00 -0.1525559E+00
  0.1970410E+01  0.9905930E+01 -0.2568960E-01  0.1901812E+00  0.2162658E+01  0.1061035E+00 -0.1578320E+00
  0.9899730E+00  0.1005140E+02 -0.2568960E-01  0.1936187E+00  0.2159428E+01  0.1075017E+00 -0.1610329E+00
 -0.4414850E-06  0.1010000E+02 -0.2568960E-01  0.1950559E+00  0.2157689E+01  0.1080173E+00 -0.1624163E+00
 -0.9899740E+00  0.1005140E+02 -0.2568960E-01  0.1936182E+00  0.2159429E+01  0.1075015E+00 -0.1610324E+00
 -0.1970410E+01  0.9905930E+01 -0.2568960E-01  0.1901813E+00  0.2162659E+01  0.1061036E+00 -0.1578320E+00
 -0.2931880E+01  0.9665100E+01 -0.2568960E-01  0.1845305E+00  0.2168336E+01  0.1038187E+00 -0.1525555E+00
 -0.3865100E+01  0.9331180E+01 -0.2568960E-01  0.1770622E+00  0.2176577E+01  0.1008199E+00 -0.1455554E+00
 -0.4761110E+01  0.8907400E+01 -0.2568960E-01  0.1670397E+00  0.2190799E+01  0.9705636E-01 -0.1359497E+00
 -0.5611260E+01  0.8397840E+01 -0.2568960E-01  0.1553016E+00  0.2210425E+01  0.9269917E-01 -0.1246012E+00
 -0.6407370E+01  0.7807410E+01 -0.2568960E-01  0.1419190E+00  0.2238887E+01  0.8791719E-01 -0.1114073E+00
 -0.7141780E+01  0.7141780E+01 -0.2568960E-01  0.1274777E+00  0.2279403E+01  0.8295956E-01 -0.9678990E-01
 -0.7807410E+01  0.6407370E+01 -0.2568960E-01  0.1117113E+00  0.2342357E+01  0.7789125E-01 -0.8007728E-01
 -0.8397840E+01  0.5611260E+01 -0.2568960E-01  0.9561323E-01  0.2436718E+01  0.7282787E-01 -0.6195152E-01
 -0.8907410E+01  0.4761110E+01 -0.2568960E-01  0.8019933E-01  0.2583042E+01  0.6801096E-01 -0.4250227E-01
 -0.9331180E+01  0.3865100E+01 -0.2568960E-01  0.6739675E-01  0.2805840E+01  0.6363349E-01 -0.2220588E-01
 -0.9665100E+01  0.2931880E+01 -0.2568960E-01  0.5983234E-01  0.3129510E+01  0.5982797E-01 -0.7229387E-03
 -0.9905930E+01  0.1970410E+01 -0.2568960E-01  0.6056381E-01 -0.2777727E+01  0.5659859E-01  0.2155399E-01
 -0.1005140E+02  0.9899730E+00 -0.2568960E-01  0.6994873E-01 -0.2455532E+01  0.5412265E-01  0.4431210E-01
 -0.1010000E+02 -0.8829700E-06 -0.2568960E-01  0.8516248E-01 -0.2233922E+01  0.5242457E-01  0.6711417E-01
 -0.1005140E+02 -0.9899740E+00 -0.2568960E-01  0.1036810E+00 -0.2091945E+01  0.5162037E-01  0.8991706E-01
 -0.9905930E+01 -0.1970410E+01 -0.2568960E-01  0.1239335E+00 -0.2000303E+01  0.5160864E-01  0.1126768E+00
 -0.9665100E+01 -0.2931880E+01 -0.2568960E-01  0.1447715E+00 -0.1941141E+01  0.5239819E-01  0.1349563E+00
 -0.9331180E+01 -0.3865100E+01 -0.2568960E-01  0.1654472E+00 -0.1902246E+01  0.5383879E-01  0.1564422E+00
 -0.8907400E+01 -0.4761110E+01 -0.2568960E-01  0.1853899E+00 -0.1877415E+01  0.5595751E-01  0.1767432E+00
 -0.8397840E+01 -0.5611260E+01 -0.2568960E-01  0.2047667E+00 -0.1861123E+01  0.5861750E-01  0.1961973E+00
 -0.7807400E+01 -0.6407370E+01 -0.2568960E-01  0.2230217E+00 -0.1850924E+01  0.6166071E-01  0.2143283E+00
 -0.7141780E+01 -0.7141780E+01 -0.2568960E-01  0.2399770E+00 -0.1844482E+01  0.6486140E-01  0.2310454E+00
 -0.6407370E+01 -0.7807410E+01 -0.2568960E-01  0.2549457E+00 -0.1841389E+01  0.6814770E-01  0.2456689E+00
 -0.5611260E+01 -0.8397850E+01 -0.2568960E-01  0.2685424E+00 -0.1840036E+01  0.7143200E-01  0.2588677E+00
 -0.4761110E+01 -0.8907410E+01 -0.2568960E-01  0.2803015E+00 -0.1839798E+01  0.7449557E-01  0.2702209E+00
 -0.3865100E+01 -0.9331190E+01 -0.2568960E-01  0.2902770E+00 -0.1839895E+01  0.7717375E-01  0.2798302E+00
 -0.2931870E+01 -0.9665100E+01 -0.2568960E-01  0.2976064E+00 -0.1840664E+01  0.7934290E-01  0.2868349E+00
 -0.1970410E+01 -0.9905930E+01 -0.2568960E-01  0.3031407E+00 -0.1841344E+01  0.8101724E-01  0.2921139E+00
 -0.9899710E+00 -0.1005140E+02 -0.2568960E-01  0.3065011E+00 -0.1841786E+01  0.8204567E-01  0.2953158E+00
  0.1204410E-06 -0.1010000E+02 -0.2568960E-01  0.3079352E+00 -0.1841763E+01  0.8242290E-01  0.2966994E+00
  0.9899760E+00 -0.1005140E+02 -0.2568960E-01  0.3065011E+00 -0.1841786E+01  0.8204564E-01  0.2953158E+00
  0.1970410E+01 -0.9905930E+01 -0.2568960E-01  0.3031405E+00 -0.1841344E+01  0.8101723E-01  0.2921136E+00
  0.2931880E+01 -0.9665100E+01 -0.2568960E-01  0.2976064E+00 -0.1840663E+01  0.7934264E-01  0.2868350E+00
  0.3865100E+01 -0.9331180E+01 -0.2568960E-01  0.2902772E+00 -0.1839894E+01  0.7717369E-01  0.2798305E+00
  0.4761110E+01 -0.8907410E+01 -0.2568960E-01  0.2803017E+00 -0.1839798E+01  0.7449558E-01  0.2702211E+00
  0.5611260E+01 -0.8397840E+01 -0.2568960E-01  0.2685426E+00 -0.1840037E+01  0.7143212E-01  0.2588679E+00
  0.6407370E+01 -0.7807410E+01 -0.2568960E-01  0.2549456E+00 -0.1841389E+01  0.6814758E-01  0.2456688E+00
  0.7141780E+01 -0.7141780E+01 -0.2568960E-01  0.2399771E+00 -0.1844481E+01  0.6486133E-01  0.2310455E+00
  0.7807410E+01 -0.6407370E+01 -0.2568960E-01  0.2230216E+00 -0.1850924E+01  0.6166058E-01  0.2143282E+00
  0.8397840E+01 -0.5611260E+01 -0.2568960E-01  0.2047668E+00 -0.1861123E+01  0.5861755E-01  0.1961975E+00
  0.8907410E+01 -0.4761110E+01 -0.2568960E-01  0.1853897E+00 -0.1877415E+01  0.5595737E-01  0.1767431E+00
  0.9331180E+01 -0.3865100E+01 -0.2568960E-01  0.1654473E+00 -0.1902245E+01  0.5383879E-01  0.1564423E+00
  0.9665100E+01 -0.2931870E+01 -0.2568960E-01  0.1447715E+00 -0.1941141E+01  0.5239808E-01  0.1349563E+00
  0.9905930E+01 -0.1970410E+01 -0.2568960E-01  0.1239337E+00 -0.2000302E+01  0.5160867E-01  0.1126770E+00
  0.1005140E+02 -0.9899690E+00 -0.2568960E-01  0.1036810E+00 -0.2091945E+01  0.5162037E-01  0.8991709E-01
  0.1010000E+02  0.0000000E+00 -0.1027320E+00  0.8497120E-01 -0.2233797E+01  0.5229846E-01  0.6696995E-01
  0.1005140E+02  0.9899730E+00 -0.1027320E+00  0.6979483E-01 -0.2455505E+01  0.5400239E-01  0.4421607E-01
  0.9905930E+01  0.1970410E+01 -0.1027320E+00  0.6044505E-01 -0.2777654E+01  0.5648602E-01  0.2151590E-01
  0.9665100E+01  0.2931880E+01 -0.1027320E+00  0.5970301E-01  0.3129234E+01  0.5969845E-01 -0.7378429E-03
  0.9331180E+01  0.3865100E+01 -0.1027320E+00  0.6725875E-01  0.2805256E+01  0.6349024E-01 -0.2219749E-01
  0.8907400E+01  0.4761110E+01 -0.1027320E+00  0.8003728E-01  0.2582852E+01  0.6786547E-01 -0.4242929E-01
  0.8397840E+01  0.5611260E+01 -0.1027320E+00  0.9539836E-01  0.2436949E+01  0.7267850E-01 -0.6179549E-01
  0.7807410E+01  0.6407370E+01 -0.1027320E+00  0.1114978E+00  0.2342205E+01  0.7773021E-01 -0.7993605E-01
  0.7141780E+01  0.7141780E+01 -0.1027320E+00  0.1272630E+00  0.2279094E+01  0.8278988E-01 -0.9665250E-01
  0.6407370E+01  0.7807410E+01 -0.1027320E+00  0.1416443E+00  0.2238797E+01  0.8773694E-01 -0.1111995E+00
  0.5611260E+01  0.8397840E+01 -0.1027320E+00  0.1549431E+00  0.2210582E+01  0.9250465E-01 -0.1242991E+00
  0.4761110E+01  0.8907410E+01 -0.1027320E+00  0.1667212E+00  0.2190731E+01  0.9686197E-01 -0.1356971E+00
  0.3865100E+01  0.9331180E+01 -0.1027320E+00  0.1767697E+00  0.2176393E+01  0.1006266E+00 -0.1453334E+00
  0.2931870E+01  0.9665100E+01 -0.1027320E+00  0.1841764E+00  0.2168284E+01  0.1036116E+00 -0.1522681E+00
  0.1970410E+01  0.9905930E+01 -0.1027320E+00  0.1897405E+00  0.2162790E+01  0.1058784E+00 -0.1574523E+00
  0.9899730E+00  0.1005140E+02 -0.1027320E+00  0.1932483E+00  0.2159384E+01  0.1072889E+00 -0.1607295E+00
 -0.4414850E-06  0.1010000E+02 -0.1027320E+00  0.1947336E+00  0.2157539E+01  0.1078145E+00 -0.1621641E+00
 -0.9899740E+00  0.1005140E+02 -0.1027320E+00  0.1932481E+00  0.2159385E+01  0.1072890E+00 -0.1607292E+00
 -0.1970410E+01  0.9905930E+01 -0.1027320E+00  0.1897410E+00  0.2162790E+01  0.1058786E+00 -0.1574527E+00
 -0.2931880E+01  0.9665100E+01 -0.1027320E+00  0.1841763E+00  0.2168284E+01  0.1036115E+00 -0.1522681E+00
 -0.3865100E+01  0.9331180E+01 -0.1027320E+00  0.1767694E+00  0.2176394E+01  0.1006266E+00 -0.1453331E+00
 -0.4761110E+01  0.8907400E+01 -0.1027320E+00  0.1667212E+00  0.2190731E+01  0.9686191E-01 -0.1356971E+00
 -0.5611260E+01  0.8397840E+01 -0.1027320E+00  0.1549432E+00  0.2210582E+01  0.9250472E-01 -0.1242992E+00
 -0.6407370E+01  0.7807410E+01 -0.1027320E+00  0.1416446E+00  0.2238795E+01  0.8773694E-01 -0.1111999E+00
 -0.7141780E+01  0.7141780E+01 -0.1027320E+00  0.1272632E+00  0.2279091E+01  0.8278974E-01 -0.9665294E-01
 -0.7807410E+01  0.6407370E+01 -0.1027320E+00  0.1114981E+00  0.2342205E+01  0.7773044E-01 -0.7993622E-01
 -0.8397840E+01  0.5611260E+01 -0.1027320E+00  0.9539861E-01  0.2436949E+01  0.7267871E-01 -0.6179563E-01
 -0.8907410E+01  0.4761110E+01 -0.1027320E+00  0.8003705E-01  0.2582850E+01  0.6786521E-01 -0.4242928E-01
 -0.9331180E+01  0.3865100E+01 -0.1027320E+00  0.6725872E-01  0.2805253E+01  0.6349014E-01 -0.2219766E-01
 -0.9665100E+01  0.2931880E+01 -0.1027320E+00  0.5970306E-01  0.3129228E+01  0.5969850E-01 -0.7381664E-03
 -0.9905930E+01  0.1970410E+01 -0.1027320E+00  0.6044516E-01 -0.2777659E+01  0.5648623E-01  0.2151564E-01
 -0.1005140E+02  0.9899730E+00 -0.1027320E+00  0.6979476E-01 -0.2455509E+01  0.5400252E-01  0.4421579E-01
 -0.1010000E+02 -0.8829700E-06 -0.1027320E+00  0.8497111E-01 -0.2233800E+01  0.5229861E-01  0.6696974E-01
 -0.1005140E+02 -0.9899740E+00 -0.1027320E+00  0.1034572E+00 -0.2091911E+01  0.5150587E-01  0.8972474E-01
 -0.9905930E+01 -0.1970410E+01 -0.1027320E+00  0.1236636E+00 -0.2000401E+01  0.5150735E-01  0.1124263E+00
 -0.9665100E+01 -0.2931880E+01 -0.1027320E+00  0.1444749E+00 -0.1941089E+01  0.5228378E-01  0.1346826E+00
 -0.9331180E+01 -0.3865100E+01 -0.1027320E+00  0.1651260E+00 -0.1902121E+01  0.5371478E-01  0.1561452E+00
 -0.8907400E+01 -0.4761110E+01 -0.1027320E+00  0.1850087E+00 -0.1877384E+01  0.5583693E-01  0.1763816E+00
 -0.8397840E+01 -0.5611260E+01 -0.1027320E+00  0.2043067E+00 -0.1861194E+01  0.5849987E-01  0.1957524E+00
 -0.7807400E+01 -0.6407370E+01 -0.1027320E+00  0.2225733E+00 -0.1850907E+01  0.6153299E-01  0.2138985E+00
 -0.7141780E+01 -0.7141780E+01 -0.1027320E+00  0.2395308E+00 -0.1844423E+01  0.6472721E-01  0.2306196E+00
 -0.6407370E+01 -0.7807410E+01 -0.1027320E+00  0.2544301E+00 -0.1841383E+01  0.6800834E-01  0.2451724E+00
 -0.5611260E+01 -0.8397850E+01 -0.1027320E+00  0.2679335E+00 -0.1840093E+01  0.7128476E-01  0.2582766E+00
 -0.4761110E+01 -0.8907410E+01 -0.1027320E+00  0.2797404E+00 -0.1839803E+01  0.7434779E-01  0.2696796E+00
 -0.3865100E+01 -0.9331190E+01 -0.1027320E+00  0.2897452E+00 -0.1839875E+01  0.7702673E-01  0.2793191E+00
 -0.2931870E+01 -0.9665100E+01 -0.1027320E+00  0.2970090E+00 -0.1840672E+01  0.7918612E-01  0.2862585E+00
 -0.1970410E+01 -0.9905930E+01 -0.1027320E+00  0.3024510E+00 -0.1841396E+01  0.8084787E-01  0.2914451E+00
 -0.9899710E+00 -0.1005140E+02 -0.1027320E+00  0.3058876E+00 -0.1841800E+01  0.8188557E-01  0.2947236E+00
  0.1204410E-06 -0.1010000E+02 -0.1027320E+00  0.3073734E+00 -0.1841756E+01  0.8227024E-01  0.2961588E+00
  0.9899760E+00 -0.1005140E+02 -0.1027320E+00  0.3058878E+00 -0.1841799E+01  0.8188540E-01  0.2947239E+00
  0.1970410E+01 -0.9905930E+01 -0.1027320E+00  0.3024513E+00 -0.1841396E+01  0.8084802E-01  0.2914453E+00
  0.2931880E+01 -0.9665100E+01 -0.1027320E+00  0.2970090E+00 -0.1840673E+01  0.7918626E-01  0.2862584E+00
  0.3865100E+01 -0.9331180E+01 -0.1027320E+00  0.2897457E+00 -0.1839874E+01  0.7702680E-01  0.2793196E+00
  0.4761110E+01 -0.8907410E+01 -0.1027320E+00  0.2797406E+00 -0.1839802E+01  0.7434760E-01  0.2696799E+00
  0.5611260E+01 -0.8397840E+01 -0.1027320E+00  0.2679339E+00 -0.1840092E+01  0.7128459E-01  0.2582771E+00
  0.6407370E+01 -0.7807410E+01 -0.1027320E+00  0.2544301E+00 -0.1841383E+01  0.6800826E-01  0.2451725E+00
  0.7141780E+01 -0.7141780E+01 -0.1027320E+00  0.2395308E+00 -0.1844422E+01  0.6472709E-01  0.2306197E+00
  0.7807410E+01 -0.6407370E+01 -0.1027320E+00  0.2225731E+00 -0.1850907E+01  0.6153294E-01  0.2138983E+00
  0.8397840E+01 -0.5611260E+01 -0.1027320E+00  0.2043068E+00 -0.1861193E+01  0.5849968E-01  0.1957525E+00
