 VARIABLES="X" "Y" "Z" "abs(eta) (m)" "angle(phi) (rad)" "PRE1" "PRE2"
ZONE N=   3200 ,E =    3136 ,F=FEPOINT,ET=QUADRILATERAL
  0.1010000E+02  0.0000000E+00  0.0000000E+00  0.5012856E+00 -0.1578634E+01  0.3928775E-02  0.5012702E+00
  0.1005140E+02  0.9899730E+00  0.0000000E+00  0.5367763E+00 -0.1588223E+01  0.9353690E-02  0.5366948E+00
  0.9905930E+01  0.1970410E+01  0.0000000E+00  0.5688282E+00 -0.1599952E+01  0.1658222E-01  0.5685864E+00
  0.9665100E+01  0.2931880E+01  0.0000000E+00  0.5970792E+00 -0.1611962E+01  0.2457227E-01  0.5965733E+00
  0.9331180E+01  0.3865100E+01  0.0000000E+00  0.6209061E+00 -0.1622926E+01  0.3235313E-01  0.6200626E+00
  0.8907400E+01  0.4761110E+01  0.0000000E+00  0.6412867E+00 -0.1632998E+01  0.3986360E-01  0.6400465E+00
  0.8397840E+01  0.5611260E+01  0.0000000E+00  0.6576436E+00 -0.1641958E+01  0.4675975E-01  0.6559791E+00
  0.7807410E+01  0.6407370E+01  0.0000000E+00  0.6700026E+00 -0.1649103E+01  0.5241233E-01  0.6679494E+00
  0.7141780E+01  0.7141780E+01  0.0000000E+00  0.6780342E+00 -0.1653772E+01  0.5619556E-01  0.6757015E+00
  0.6407370E+01  0.7807410E+01  0.0000000E+00  0.6826346E+00 -0.1656383E+01  0.5835288E-01  0.6801360E+00
  0.5611260E+01  0.8397840E+01  0.0000000E+00  0.6830380E+00 -0.1656570E+01  0.5851491E-01  0.6805269E+00
  0.4761110E+01  0.8907410E+01  0.0000000E+00  0.6794499E+00 -0.1654454E+01  0.5677483E-01  0.6770737E+00
  0.3865100E+01  0.9331180E+01  0.0000000E+00  0.6716914E+00 -0.1650064E+01  0.5318773E-01  0.6695822E+00
  0.2931870E+01  0.9665100E+01  0.0000000E+00  0.6604965E+00 -0.1643739E+01  0.4813562E-01  0.6587401E+00
  0.1970410E+01  0.9905930E+01  0.0000000E+00  0.6449344E+00 -0.1635067E+01  0.4142163E-01  0.6436028E+00
  0.9899730E+00  0.1005140E+02  0.0000000E+00  0.6253840E+00 -0.1624841E+01  0.3378220E-01  0.6244709E+00
 -0.4414850E-06  0.1010000E+02  0.0000000E+00  0.6018788E+00 -0.1613953E+01  0.2596670E-01  0.6013184E+00
 -0.9899740E+00  0.1005140E+02  0.0000000E+00  0.5749429E+00 -0.1602611E+01  0.1828836E-01  0.5746520E+00
 -0.1970410E+01  0.9905930E+01  0.0000000E+00  0.5436262E+00 -0.1590816E+01  0.1088273E-01  0.5435173E+00
 -0.2931880E+01  0.9665100E+01  0.0000000E+00  0.5086105E+00 -0.1580061E+01  0.4712177E-02  0.5085887E+00
 -0.3865100E+01  0.9331180E+01  0.0000000E+00  0.4703872E+00 -0.1572569E+01  0.8336095E-03  0.4703864E+00
 -0.4761110E+01  0.8907400E+01  0.0000000E+00  0.4293048E+00 -0.1569184E+01 -0.6920170E-03  0.4293043E+00
 -0.5611260E+01  0.8397840E+01  0.0000000E+00  0.3846729E+00 -0.1572210E+01  0.5437542E-03  0.3846726E+00
 -0.6407370E+01  0.7807410E+01  0.0000000E+00  0.3377949E+00 -0.1585848E+01  0.5084309E-02  0.3377567E+00
 -0.7141780E+01  0.7141780E+01  0.0000000E+00  0.2900514E+00 -0.1617594E+01  0.1356887E-01  0.2897339E+00
 -0.7807410E+01  0.6407370E+01  0.0000000E+00  0.2421305E+00 -0.1677203E+01  0.2571563E-01  0.2407611E+00
 -0.8397840E+01  0.5611260E+01  0.0000000E+00  0.1952397E+00 -0.1787101E+01  0.4190265E-01  0.1906901E+00
 -0.8907410E+01  0.4761110E+01  0.0000000E+00  0.1538959E+00 -0.1983516E+01  0.6172802E-01  0.1409738E+00
 -0.9331180E+01  0.3865100E+01  0.0000000E+00  0.1259661E+00 -0.2309992E+01  0.8486254E-01  0.9309030E-01
 -0.9665100E+01  0.2931880E+01  0.0000000E+00  0.1202759E+00 -0.2742683E+01  0.1108325E+00  0.4671679E-01
 -0.9905930E+01  0.1970410E+01  0.0000000E+00  0.1396870E+00 -0.3126502E+01  0.1396711E+00  0.2107951E-02
 -0.1005140E+02  0.9899730E+00  0.0000000E+00  0.1746966E+00  0.2912502E+01  0.1701324E+00 -0.3967218E-01
 -0.1010000E+02 -0.8829700E-06  0.0000000E+00  0.2154742E+00  0.2773548E+01  0.2010445E+00 -0.7752580E-01
 -0.1005140E+02 -0.9899740E+00  0.0000000E+00  0.2578146E+00  0.2691099E+01  0.2320930E+00 -0.1122551E+00
 -0.9905930E+01 -0.1970410E+01  0.0000000E+00  0.2994660E+00  0.2642181E+01  0.2628906E+00 -0.1434170E+00
 -0.9665100E+01 -0.2931880E+01  0.0000000E+00  0.3382842E+00  0.2612765E+01  0.2920743E+00 -0.1706716E+00
 -0.9331180E+01 -0.3865100E+01  0.0000000E+00  0.3724666E+00  0.2595419E+01  0.3182795E+00 -0.1934671E+00
 -0.8907400E+01 -0.4761110E+01  0.0000000E+00  0.4025029E+00  0.2584383E+01  0.3416178E+00 -0.2128516E+00
 -0.8397840E+01 -0.5611260E+01  0.0000000E+00  0.4274857E+00  0.2578318E+01  0.3614439E+00 -0.2282594E+00
 -0.7807400E+01 -0.6407370E+01  0.0000000E+00  0.4467947E+00  0.2575052E+01  0.3769886E+00 -0.2398020E+00
 -0.7141780E+01 -0.7141780E+01  0.0000000E+00  0.4595800E+00  0.2573540E+01  0.3874032E+00 -0.2472500E+00
 -0.6407370E+01 -0.7807410E+01  0.0000000E+00  0.4667608E+00  0.2572456E+01  0.3931836E+00 -0.2515399E+00
 -0.5611260E+01 -0.8397850E+01  0.0000000E+00  0.4673745E+00  0.2572327E+01  0.3936681E+00 -0.2519214E+00
 -0.4761110E+01 -0.8907410E+01  0.0000000E+00  0.4616628E+00  0.2572968E+01  0.3890166E+00 -0.2485932E+00
 -0.3865100E+01 -0.9331190E+01  0.0000000E+00  0.4495425E+00  0.2574850E+01  0.3792584E+00 -0.2413535E+00
 -0.2931870E+01 -0.9665100E+01  0.0000000E+00  0.4319757E+00  0.2577603E+01  0.3650753E+00 -0.2309178E+00
 -0.1970410E+01 -0.9905930E+01  0.0000000E+00  0.4080684E+00  0.2582931E+01  0.3460278E+00 -0.2162975E+00
 -0.9899710E+00 -0.1005140E+02  0.0000000E+00  0.3788333E+00  0.2592358E+01  0.3231161E+00 -0.1977643E+00
  0.1204410E-06 -0.1010000E+02  0.0000000E+00  0.3450870E+00  0.2608865E+01  0.2972667E+00 -0.1752643E+00
  0.9899760E+00 -0.1005140E+02  0.0000000E+00  0.3077455E+00  0.2634974E+01  0.2690896E+00 -0.1493253E+00
  0.1970410E+01 -0.9905930E+01  0.0000000E+00  0.2665746E+00  0.2679124E+01  0.2385719E+00 -0.1189347E+00
  0.2931880E+01 -0.9665100E+01  0.0000000E+00  0.2237506E+00  0.2753247E+01  0.2070894E+00 -0.8472483E-01
  0.3865100E+01 -0.9331180E+01  0.0000000E+00  0.1822694E+00  0.2879745E+01  0.1760564E+00 -0.4718324E-01
  0.4761110E+01 -0.8907410E+01  0.0000000E+00  0.1459399E+00  0.3095445E+01  0.1457846E+00 -0.6732332E-02
  0.5611260E+01 -0.8397840E+01  0.0000000E+00  0.1224803E+00 -0.2831622E+01  0.1166432E+00  0.3736024E-01
  0.6407370E+01 -0.7807410E+01  0.0000000E+00  0.1227884E+00 -0.2389750E+01  0.8968855E-01  0.8386275E-01
  0.7141780E+01 -0.7141780E+01  0.0000000E+00  0.1472477E+00 -0.2035812E+01  0.6603131E-01  0.1316121E+00
  0.7807410E+01 -0.6407370E+01  0.0000000E+00  0.1860739E+00 -0.1818158E+01  0.4555951E-01  0.1804101E+00
  0.8397840E+01 -0.5611260E+01  0.0000000E+00  0.2322430E+00 -0.1694841E+01  0.2873465E-01  0.2304585E+00
  0.8907410E+01 -0.4761110E+01  0.0000000E+00  0.2807497E+00 -0.1626648E+01  0.1567212E-01  0.2803120E+00
  0.9331180E+01 -0.3865100E+01  0.0000000E+00  0.3285458E+00 -0.1590808E+01  0.6574286E-02  0.3284800E+00
  0.9665100E+01 -0.2931870E+01  0.0000000E+00  0.3752291E+00 -0.1573523E+01  0.1023159E-02  0.3752277E+00
  0.9905930E+01 -0.1970410E+01  0.0000000E+00  0.4203411E+00 -0.1568982E+01 -0.7627060E-03  0.4203404E+00
  0.1005140E+02 -0.9899690E+00  0.0000000E+00  0.4627331E+00 -0.1571730E+01  0.4322586E-03  0.4627329E+00
  0.1010000E+02  0.0000000E+00 -0.2568960E-01  0.5005063E+00 -0.1578650E+01  0.3930710E-02  0.5004908E+00
  0.1005140E+02  0.9899730E+00 -0.2568960E-01  0.5359572E+00 -0.1588241E+01  0.9349351E-02  0.5358757E+00
  0.9905930E+01  0.1970410E+01 -0.2568960E-01  0.5678946E+00 -0.1599978E+01  0.1656987E-01  0.5676528E+00
  0.9665100E+01  0.2931880E+01 -0.2568960E-01  0.5961710E+00 -0.1611991E+01  0.2455191E-01  0.5956653E+00
  0.9331180E+01  0.3865100E+01 -0.2568960E-01  0.6199480E+00 -0.1622957E+01  0.3232208E-01  0.6191049E+00
  0.8907400E+01  0.4761110E+01 -0.2568960E-01  0.6403126E+00 -0.1633037E+01  0.3982767E-01  0.6390727E+00
  0.8397840E+01  0.5611260E+01 -0.2568960E-01  0.6565636E+00 -0.1641979E+01  0.4669651E-01  0.6549010E+00
  0.7807410E+01  0.6407370E+01 -0.2568960E-01  0.6689858E+00 -0.1649146E+01  0.5236151E-01  0.6669335E+00
  0.7141780E+01  0.7141780E+01 -0.2568960E-01  0.6769903E+00 -0.1653809E+01  0.5613450E-01  0.6746590E+00
  0.6407370E+01  0.7807410E+01 -0.2568960E-01  0.6815996E+00 -0.1656428E+01  0.5829541E-01  0.6791021E+00
  0.5611260E+01  0.8397840E+01 -0.2568960E-01  0.6819165E+00 -0.1656589E+01  0.5843193E-01  0.6794084E+00
  0.4761110E+01  0.8907410E+01 -0.2568960E-01  0.6784197E+00 -0.1654499E+01  0.5671914E-01  0.6760446E+00
  0.3865100E+01  0.9331180E+01 -0.2568960E-01  0.6706550E+00 -0.1650102E+01  0.5313069E-01  0.6685471E+00
  0.2931870E+01  0.9665100E+01 -0.2568960E-01  0.6594939E+00 -0.1643780E+01  0.4808960E-01  0.6577383E+00
  0.1970410E+01  0.9905930E+01 -0.2568960E-01  0.6438754E+00 -0.1635088E+01  0.4136739E-01  0.6425451E+00
  0.9899730E+00  0.1005140E+02 -0.2568960E-01  0.6244338E+00 -0.1624876E+01  0.3375290E-01  0.6235209E+00
 -0.4414850E-06  0.1010000E+02 -0.2568960E-01  0.6009481E+00 -0.1613981E+01  0.2594369E-01  0.6003878E+00
 -0.9899740E+00  0.1005140E+02 -0.2568960E-01  0.5740672E+00 -0.1602635E+01  0.1827436E-01  0.5737762E+00
 -0.1970410E+01  0.9905930E+01 -0.2568960E-01  0.5427343E+00 -0.1590844E+01  0.1087983E-01  0.5426252E+00
 -0.2931880E+01  0.9665100E+01 -0.2568960E-01  0.5078322E+00 -0.1580074E+01  0.4711444E-02  0.5078104E+00
 -0.3865100E+01  0.9331180E+01 -0.2568960E-01  0.4696529E+00 -0.1572581E+01  0.8381862E-03  0.4696521E+00
 -0.4761110E+01  0.8907400E+01 -0.2568960E-01  0.4286408E+00 -0.1569180E+01 -0.6926902E-03  0.4286403E+00
 -0.5611260E+01  0.8397840E+01 -0.2568960E-01  0.3840413E+00 -0.1572253E+01  0.5593752E-03  0.3840409E+00
 -0.6407370E+01  0.7807410E+01 -0.2568960E-01  0.3372635E+00 -0.1585828E+01  0.5069430E-02  0.3372254E+00
 -0.7141780E+01  0.7141780E+01 -0.2568960E-01  0.2895846E+00 -0.1617589E+01  0.1354544E-01  0.2892676E+00
 -0.7807410E+01  0.6407370E+01 -0.2568960E-01  0.2417339E+00 -0.1677171E+01  0.2566588E-01  0.2403675E+00
 -0.8397840E+01  0.5611260E+01 -0.2568960E-01  0.1949215E+00 -0.1787191E+01  0.4185154E-01  0.1903756E+00
 -0.8907410E+01  0.4761110E+01 -0.2568960E-01  0.1536258E+00 -0.1983541E+01  0.6162314E-01  0.1407248E+00
 -0.9331180E+01  0.3865100E+01 -0.2568960E-01  0.1257463E+00 -0.2310147E+01  0.8472886E-01  0.9291472E-01
 -0.9665100E+01  0.2931880E+01 -0.2568960E-01  0.1200691E+00 -0.2742999E+01  0.1106567E+00  0.4660150E-01
 -0.9905930E+01  0.1970410E+01 -0.2568960E-01  0.1394761E+00 -0.3126520E+01  0.1394603E+00  0.2102216E-02
 -0.1005140E+02  0.9899730E+00 -0.2568960E-01  0.1744395E+00  0.2912221E+01  0.1698708E+00 -0.3966154E-01
 -0.1010000E+02 -0.8829700E-06 -0.2568960E-01  0.2151610E+00  0.2773374E+01  0.2007387E+00 -0.7744808E-01
 -0.1005140E+02 -0.9899740E+00 -0.2568960E-01  0.2574508E+00  0.2690914E+01  0.2317448E+00 -0.1121395E+00
 -0.9905930E+01 -0.1970410E+01 -0.2568960E-01  0.2989916E+00  0.2642204E+01  0.2624773E+00 -0.1431839E+00
 -0.9665100E+01 -0.2931880E+01 -0.2568960E-01  0.3378073E+00  0.2612636E+01  0.2916406E+00 -0.1704685E+00
 -0.9331180E+01 -0.3865100E+01 -0.2568960E-01  0.3719275E+00  0.2595333E+01  0.3178021E+00 -0.1932145E+00
 -0.8907400E+01 -0.4761110E+01 -0.2568960E-01  0.4019364E+00  0.2584283E+01  0.3411158E+00 -0.2125863E+00
 -0.8397840E+01 -0.5611260E+01 -0.2568960E-01  0.4268003E+00  0.2578336E+01  0.3608685E+00 -0.2278869E+00
 -0.7807400E+01 -0.6407370E+01 -0.2568960E-01  0.4461645E+00  0.2574968E+01  0.3764368E+00 -0.2394954E+00
 -0.7141780E+01 -0.7141780E+01 -0.2568960E-01  0.4589120E+00  0.2573478E+01  0.3868246E+00 -0.2469147E+00
 -0.6407370E+01 -0.7807410E+01 -0.2568960E-01  0.4661022E+00  0.2572378E+01  0.3926092E+00 -0.2512156E+00
 -0.5611260E+01 -0.8397850E+01 -0.2568960E-01  0.4666232E+00  0.2572343E+01  0.3930394E+00 -0.2515099E+00
 -0.4761110E+01 -0.8907410E+01 -0.2568960E-01  0.4610116E+00  0.2572890E+01  0.3884484E+00 -0.2482731E+00
 -0.3865100E+01 -0.9331190E+01 -0.2568960E-01  0.4488896E+00  0.2574786E+01  0.3786921E+00 -0.2410273E+00
 -0.2931870E+01 -0.9665100E+01 -0.2568960E-01  0.4313663E+00  0.2577513E+01  0.3645396E+00 -0.2306248E+00
 -0.1970410E+01 -0.9905930E+01 -0.2568960E-01  0.4074147E+00  0.2582949E+01  0.3454774E+00 -0.2159447E+00
 -0.9899710E+00 -0.1005140E+02 -0.2568960E-01  0.3783004E+00  0.2592247E+01  0.3226397E+00 -0.1975216E+00
  0.1204410E-06 -0.1010000E+02 -0.2568960E-01  0.3445879E+00  0.2608769E+01  0.2968198E+00 -0.1750394E+00
  0.9899760E+00 -0.1005140E+02 -0.2568960E-01  0.3073113E+00  0.2634827E+01  0.2686881E+00 -0.1491541E+00
  0.1970410E+01 -0.9905930E+01 -0.2568960E-01  0.2661546E+00  0.2679147E+01  0.2381987E+00 -0.1187419E+00
  0.2931880E+01 -0.9665100E+01 -0.2568960E-01  0.2234320E+00  0.2753028E+01  0.2067760E+00 -0.8464953E-01
  0.3865100E+01 -0.9331180E+01 -0.2568960E-01  0.1820011E+00  0.2879535E+01  0.1757874E+00 -0.4715082E-01
  0.4761110E+01 -0.8907410E+01 -0.2568960E-01  0.1457148E+00  0.3095120E+01  0.1455575E+00 -0.6769286E-02
  0.5611260E+01 -0.8397840E+01 -0.2568960E-01  0.1222961E+00 -0.2831686E+01  0.1164701E+00  0.3729668E-01
  0.6407370E+01 -0.7807410E+01 -0.2568960E-01  0.1225667E+00 -0.2389945E+01  0.8954290E-01  0.8369390E-01
  0.7141780E+01 -0.7141780E+01 -0.2568960E-01  0.1469925E+00 -0.2035881E+01  0.6592584E-01  0.1313795E+00
  0.7807410E+01 -0.6407370E+01 -0.2568960E-01  0.1857577E+00 -0.1818141E+01  0.4547904E-01  0.1801043E+00
  0.8397840E+01 -0.5611260E+01 -0.2568960E-01  0.2318627E+00 -0.1694916E+01  0.2870486E-01  0.2300790E+00
  0.8907410E+01 -0.4761110E+01 -0.2568960E-01  0.2802986E+00 -0.1626618E+01  0.1563849E-01  0.2798620E+00
  0.9331180E+01 -0.3865100E+01 -0.2568960E-01  0.3280225E+00 -0.1590805E+01  0.6562882E-02  0.3279568E+00
  0.9665100E+01 -0.2931870E+01 -0.2568960E-01  0.3746445E+00 -0.1573509E+01  0.1016296E-02  0.3746431E+00
  0.9905930E+01 -0.1970410E+01 -0.2568960E-01  0.4196496E+00 -0.1569021E+01 -0.7450864E-03  0.4196489E+00
  0.1005140E+02 -0.9899690E+00 -0.2568960E-01  0.4620201E+00 -0.1571733E+01  0.4329270E-03  0.4620199E+00
  0.1010000E+02  0.0000000E+00 -0.1027320E+00  0.4982141E+00 -0.1578645E+01  0.3910486E-02  0.4981987E+00
  0.1005140E+02  0.9899730E+00 -0.1027320E+00  0.5334588E+00 -0.1588276E+01  0.9323989E-02  0.5333773E+00
  0.9905930E+01  0.1970410E+01 -0.1027320E+00  0.5652049E+00 -0.1600023E+01  0.1651651E-01  0.5649635E+00
  0.9665100E+01  0.2931880E+01 -0.1027320E+00  0.5933952E+00 -0.1612041E+01  0.2446745E-01  0.5928906E+00
  0.9331180E+01  0.3865100E+01 -0.1027320E+00  0.6171337E+00 -0.1623032E+01  0.3222160E-01  0.6162919E+00
  0.8907400E+01  0.4761110E+01 -0.1027320E+00  0.6373409E+00 -0.1633114E+01  0.3969193E-01  0.6361037E+00
  0.8397840E+01  0.5611260E+01 -0.1027320E+00  0.6534617E+00 -0.1642050E+01  0.4652207E-01  0.6518036E+00
  0.7807410E+01  0.6407370E+01 -0.1027320E+00  0.6658819E+00 -0.1649230E+01  0.5217439E-01  0.6638348E+00
  0.7141780E+01  0.7141780E+01 -0.1027320E+00  0.6739253E+00 -0.1653922E+01  0.5595585E-01  0.6715983E+00
  0.6407370E+01  0.7807410E+01 -0.1027320E+00  0.6784381E+00 -0.1656521E+01  0.5808749E-01  0.6759468E+00
  0.5611260E+01  0.8397840E+01 -0.1027320E+00  0.6786951E+00 -0.1656668E+01  0.5820904E-01  0.6761944E+00
  0.4761110E+01  0.8907410E+01 -0.1027320E+00  0.6752724E+00 -0.1654591E+01  0.5651788E-01  0.6729031E+00
  0.3865100E+01  0.9331180E+01 -0.1027320E+00  0.6676191E+00 -0.1650210E+01  0.5296217E-01  0.6655151E+00
  0.2931870E+01  0.9665100E+01 -0.1027320E+00  0.6564326E+00 -0.1643860E+01  0.4791844E-01  0.6546813E+00
  0.1970410E+01  0.9905930E+01 -0.1027320E+00  0.6408319E+00 -0.1635155E+01  0.4121460E-01  0.6395052E+00
  0.9899730E+00  0.1005140E+02 -0.1027320E+00  0.6215335E+00 -0.1624947E+01  0.3364012E-01  0.6206225E+00
 -0.4414850E-06  0.1010000E+02 -0.1027320E+00  0.5982184E+00 -0.1614043E+01  0.2586315E-01  0.5976591E+00
 -0.9899740E+00  0.1005140E+02 -0.1027320E+00  0.5713914E+00 -0.1602674E+01  0.1821182E-01  0.5711011E+00
 -0.1970410E+01  0.9905930E+01 -0.1027320E+00  0.5401613E+00 -0.1590881E+01  0.1084842E-01  0.5400523E+00
 -0.2931880E+01  0.9665100E+01 -0.1027320E+00  0.5054626E+00 -0.1580096E+01  0.4700530E-02  0.5054407E+00
 -0.3865100E+01  0.9331180E+01 -0.1027320E+00  0.4674960E+00 -0.1572554E+01  0.8218097E-03  0.4674953E+00
 -0.4761110E+01  0.8907400E+01 -0.1027320E+00  0.4266201E+00 -0.1569157E+01 -0.6994887E-03  0.4266195E+00
 -0.5611260E+01  0.8397840E+01 -0.1027320E+00  0.3822031E+00 -0.1572245E+01  0.5538186E-03  0.3822027E+00
 -0.6407370E+01  0.7807410E+01 -0.1027320E+00  0.3356616E+00 -0.1585772E+01  0.5026440E-02  0.3356240E+00
 -0.7141780E+01  0.7141780E+01 -0.1027320E+00  0.2882018E+00 -0.1617434E+01  0.1343605E-01  0.2878884E+00
 -0.7807410E+01  0.6407370E+01 -0.1027320E+00  0.2405474E+00 -0.1677086E+01  0.2551969E-01  0.2391899E+00
 -0.8397840E+01  0.5611260E+01 -0.1027320E+00  0.1939541E+00 -0.1787179E+01  0.4164158E-01  0.1894312E+00
 -0.8907410E+01  0.4761110E+01 -0.1027320E+00  0.1528383E+00 -0.1983543E+01  0.6130752E-01  0.1400033E+00
 -0.9331180E+01  0.3865100E+01 -0.1027320E+00  0.1250574E+00 -0.2310472E+01  0.8429472E-01  0.9237838E-01
 -0.9665100E+01  0.2931880E+01 -0.1027320E+00  0.1194580E+00 -0.2743655E+01  0.1101238E+00  0.4629209E-01
 -0.9905930E+01  0.1970410E+01 -0.1027320E+00  0.1388131E+00 -0.3126993E+01  0.1387983E+00  0.2026535E-02
 -0.1005140E+02  0.9899730E+00 -0.1027320E+00  0.1736375E+00  0.2911658E+01  0.1690675E+00 -0.3957447E-01
 -0.1010000E+02 -0.8829700E-06 -0.1027320E+00  0.2142214E+00  0.2772682E+01  0.1998087E+00 -0.7724811E-01
 -0.1005140E+02 -0.9899740E+00 -0.1027320E+00  0.2563114E+00  0.2690530E+01  0.2306762E+00 -0.1117318E+00
 -0.9905930E+01 -0.1970410E+01 -0.1027320E+00  0.2976325E+00  0.2642004E+01  0.2612557E+00 -0.1425851E+00
 -0.9665100E+01 -0.2931880E+01 -0.1027320E+00  0.3363087E+00  0.2612365E+01  0.2903007E+00 -0.1697912E+00
 -0.9331180E+01 -0.3865100E+01 -0.1027320E+00  0.3703461E+00  0.2594975E+01  0.3163821E+00 -0.1925062E+00
 -0.8907400E+01 -0.4761110E+01 -0.1027320E+00  0.4001628E+00  0.2584073E+01  0.3395662E+00 -0.2117193E+00
 -0.8397840E+01 -0.5611260E+01 -0.1027320E+00  0.4248583E+00  0.2578222E+01  0.3592005E+00 -0.2268910E+00
 -0.7807400E+01 -0.6407370E+01 -0.1027320E+00  0.4441888E+00  0.2574787E+01  0.3747267E+00 -0.2385028E+00
 -0.7141780E+01 -0.7141780E+01 -0.1027320E+00  0.4569640E+00  0.2573219E+01  0.3851188E+00 -0.2459666E+00
 -0.6407370E+01 -0.7807410E+01 -0.1027320E+00  0.4640409E+00  0.2572211E+01  0.3908312E+00 -0.2501698E+00
 -0.5611260E+01 -0.8397850E+01 -0.1027320E+00  0.4644997E+00  0.2572248E+01  0.3912268E+00 -0.2504027E+00
 -0.4761110E+01 -0.8907410E+01 -0.1027320E+00  0.4589742E+00  0.2572720E+01  0.3866898E+00 -0.2472414E+00
 -0.3865100E+01 -0.9331190E+01 -0.1027320E+00  0.4469838E+00  0.2574516E+01  0.3770196E+00 -0.2401056E+00
 -0.2931870E+01 -0.9665100E+01 -0.1027320E+00  0.4294569E+00  0.2577323E+01  0.3628823E+00 -0.2296729E+00
 -0.1970410E+01 -0.9905930E+01 -0.1027320E+00  0.4055618E+00  0.2582825E+01  0.3438796E+00 -0.2150052E+00
 -0.9899710E+00 -0.1005140E+02 -0.1027320E+00  0.3766318E+00  0.2592019E+01  0.3211716E+00 -0.1967239E+00
  0.1204410E-06 -0.1010000E+02 -0.1027320E+00  0.3431216E+00  0.2608373E+01  0.2954877E+00 -0.1744116E+00
  0.9899760E+00 -0.1005140E+02 -0.1027320E+00  0.3059459E+00  0.2634521E+01  0.2674488E+00 -0.1485733E+00
  0.1970410E+01 -0.9905930E+01 -0.1027320E+00  0.2649430E+00  0.2678912E+01  0.2370867E+00 -0.1182569E+00
  0.2931880E+01 -0.9665100E+01 -0.1027320E+00  0.2224379E+00  0.2752572E+01  0.2058175E+00 -0.8436679E-01
  0.3865100E+01 -0.9331180E+01 -0.1027320E+00  0.1811872E+00  0.2878720E+01  0.1749630E+00 -0.4708257E-01
  0.4761110E+01 -0.8907410E+01 -0.1027320E+00  0.1450237E+00  0.3094479E+01  0.1448628E+00 -0.6830118E-02
  0.5611260E+01 -0.8397840E+01 -0.1027320E+00  0.1216935E+00 -0.2832156E+01  0.1159137E+00  0.3705840E-01
  0.6407370E+01 -0.7807410E+01 -0.1027320E+00  0.1219216E+00 -0.2390344E+01  0.8910487E-01  0.8321784E-01
  0.7141780E+01 -0.7141780E+01 -0.1027320E+00  0.1462078E+00 -0.2035885E+01  0.6557450E-01  0.1306779E+00
  0.7807410E+01 -0.6407370E+01 -0.1027320E+00  0.1848285E+00 -0.1818066E+01  0.4523816E-01  0.1792069E+00
  0.8397840E+01 -0.5611260E+01 -0.1027320E+00  0.2307259E+00 -0.1694887E+01  0.2855743E-01  0.2289517E+00
