 VARIABLES="X" "Y" "Z" "abs(eta) (m)" "angle(phi) (rad)" "PRE1" "PRE2"
ZONE N=   3200 ,E =    3136 ,F=FEPOINT,ET=QUADRILATERAL
  0.1010000E+02  0.0000000E+00  0.0000000E+00  0.5705605E+00 -0.1710863E+01  0.7965565E-01  0.5649728E+00
  0.1005140E+02  0.9899730E+00  0.0000000E+00  0.5800648E+00 -0.1715237E+01  0.8349380E-01  0.5740244E+00
  0.9905930E+01  0.1970410E+01  0.0000000E+00  0.5862798E+00 -0.1718218E+01  0.8611754E-01  0.5799205E+00
  0.9665100E+01  0.2931880E+01  0.0000000E+00  0.5890866E+00 -0.1719444E+01  0.8724422E-01  0.5825903E+00
  0.9331180E+01  0.3865100E+01  0.0000000E+00  0.5885348E+00 -0.1718983E+01  0.8689438E-01  0.5820847E+00
  0.8907400E+01  0.4761110E+01  0.0000000E+00  0.5831074E+00 -0.1716721E+01  0.8478820E-01  0.5769100E+00
  0.8397840E+01  0.5611260E+01  0.0000000E+00  0.5743119E+00 -0.1712793E+01  0.8127680E-01  0.5685317E+00
  0.7807410E+01  0.6407370E+01  0.0000000E+00  0.5621453E+00 -0.1707345E+01  0.7652199E-01  0.5569127E+00
  0.7141780E+01  0.7141780E+01  0.0000000E+00  0.5467760E+00 -0.1700920E+01  0.7094798E-01  0.5421535E+00
  0.6407370E+01  0.7807410E+01  0.0000000E+00  0.5268239E+00 -0.1693667E+01  0.6456861E-01  0.5228521E+00
  0.5611260E+01  0.8397840E+01  0.0000000E+00  0.5036510E+00 -0.1685725E+01  0.5775646E-01  0.5003284E+00
  0.4761110E+01  0.8907410E+01  0.0000000E+00  0.4773881E+00 -0.1677920E+01  0.5104183E-01  0.4746516E+00
  0.3865100E+01  0.9331180E+01  0.0000000E+00  0.4484292E+00 -0.1671378E+01  0.4502770E-01  0.4461628E+00
  0.2931870E+01  0.9665100E+01  0.0000000E+00  0.4158039E+00 -0.1667217E+01  0.4003001E-01  0.4138725E+00
  0.1970410E+01  0.9905930E+01  0.0000000E+00  0.3805507E+00 -0.1666122E+01  0.3622141E-01  0.3788229E+00
  0.9899730E+00  0.1005140E+02  0.0000000E+00  0.3431451E+00 -0.1670660E+01  0.3421097E-01  0.3414355E+00
 -0.4414850E-06  0.1010000E+02  0.0000000E+00  0.3043266E+00 -0.1684015E+01  0.3438200E-01  0.3023781E+00
 -0.9899740E+00  0.1005140E+02  0.0000000E+00  0.2639415E+00 -0.1711966E+01  0.3713683E-01  0.2613158E+00
 -0.1970410E+01  0.9905930E+01  0.0000000E+00  0.2229534E+00 -0.1761804E+01  0.4232733E-01  0.2188987E+00
 -0.2931880E+01  0.9665100E+01  0.0000000E+00  0.1828947E+00 -0.1848936E+01  0.5021696E-01  0.1758656E+00
 -0.3865100E+01  0.9331180E+01  0.0000000E+00  0.1462320E+00 -0.1998465E+01  0.6064984E-01  0.1330616E+00
 -0.4761110E+01  0.8907400E+01  0.0000000E+00  0.1170289E+00 -0.2253089E+01  0.7379539E-01  0.9082950E-01
 -0.5611260E+01  0.8397840E+01  0.0000000E+00  0.1019261E+00 -0.2637741E+01  0.8925970E-01  0.4921017E-01
 -0.6407370E+01  0.7807410E+01  0.0000000E+00  0.1071058E+00 -0.3057323E+01  0.1067257E+00  0.9015050E-02
 -0.7141780E+01  0.7141780E+01  0.0000000E+00  0.1288694E+00  0.2913518E+01  0.1255321E+00 -0.2913770E-01
 -0.7807410E+01  0.6407370E+01  0.0000000E+00  0.1590414E+00  0.2724862E+01  0.1454302E+00 -0.6437574E-01
 -0.8397840E+01  0.5611260E+01  0.0000000E+00  0.1924879E+00  0.2611313E+01  0.1660527E+00 -0.9735542E-01
 -0.8907410E+01  0.4761110E+01  0.0000000E+00  0.2261009E+00  0.2542156E+01  0.1866811E+00 -0.1275609E+00
 -0.9331180E+01  0.3865100E+01  0.0000000E+00  0.2580526E+00  0.2498591E+01  0.2065194E+00 -0.1547285E+00
 -0.9665100E+01  0.2931880E+01  0.0000000E+00  0.2866569E+00  0.2473119E+01  0.2249594E+00 -0.1776666E+00
 -0.9905930E+01  0.1970410E+01  0.0000000E+00  0.3124045E+00  0.2456766E+01  0.2419662E+00 -0.1976079E+00
 -0.1005140E+02  0.9899730E+00  0.0000000E+00  0.3345178E+00  0.2446103E+01  0.2568226E+00 -0.2143462E+00
 -0.1010000E+02 -0.8829700E-06  0.0000000E+00  0.3525864E+00  0.2438818E+01  0.2690417E+00 -0.2278897E+00
 -0.1005140E+02 -0.9899740E+00  0.0000000E+00  0.3650869E+00  0.2435805E+01  0.2778679E+00 -0.2368076E+00
 -0.9905930E+01 -0.1970410E+01  0.0000000E+00  0.3733002E+00  0.2434095E+01  0.2837047E+00 -0.2426204E+00
 -0.9665100E+01 -0.2931880E+01  0.0000000E+00  0.3769235E+00  0.2433086E+01  0.2862111E+00 -0.2452642E+00
 -0.9331180E+01 -0.3865100E+01  0.0000000E+00  0.3760050E+00  0.2432667E+01  0.2854109E+00 -0.2447863E+00
 -0.8907400E+01 -0.4761110E+01  0.0000000E+00  0.3690904E+00  0.2434908E+01  0.2807003E+00 -0.2396562E+00
 -0.8397840E+01 -0.5611260E+01  0.0000000E+00  0.3576871E+00  0.2438125E+01  0.2727736E+00 -0.2313755E+00
 -0.7807400E+01 -0.6407370E+01  0.0000000E+00  0.3419243E+00  0.2442997E+01  0.2618271E+00 -0.2199063E+00
 -0.7141780E+01 -0.7141780E+01  0.0000000E+00  0.3222642E+00  0.2450779E+01  0.2483780E+00 -0.2053352E+00
 -0.6407370E+01 -0.7807410E+01  0.0000000E+00  0.2976468E+00  0.2465632E+01  0.2321962E+00 -0.1862218E+00
 -0.5611260E+01 -0.8397850E+01  0.0000000E+00  0.2695726E+00  0.2487985E+01  0.2140124E+00 -0.1639149E+00
 -0.4761110E+01 -0.8907410E+01  0.0000000E+00  0.2387419E+00  0.2522809E+01  0.1944755E+00 -0.1384811E+00
 -0.3865100E+01 -0.9331190E+01  0.0000000E+00  0.2062854E+00  0.2577785E+01  0.1743579E+00 -0.1102407E+00
 -0.2931870E+01 -0.9665100E+01  0.0000000E+00  0.1725695E+00  0.2671539E+01  0.1538533E+00 -0.7816269E-01
 -0.1970410E+01 -0.9905930E+01  0.0000000E+00  0.1403001E+00  0.2827698E+01  0.1334448E+00 -0.4331976E-01
 -0.9899710E+00 -0.1005140E+02  0.0000000E+00  0.1140987E+00  0.3087855E+01  0.1139340E+00 -0.6128408E-02
  0.1204410E-06 -0.1010000E+02  0.0000000E+00  0.1013600E+00 -0.2812508E+01  0.9592083E-01  0.3275723E-01
  0.9899760E+00 -0.1005140E+02  0.0000000E+00  0.1086552E+00 -0.2395941E+01  0.7982314E-01  0.7371715E-01
  0.1970410E+01 -0.9905930E+01  0.0000000E+00  0.1333762E+00 -0.2085997E+01  0.6571573E-01  0.1160632E+00
  0.2931880E+01 -0.9665100E+01  0.0000000E+00  0.1680021E+00 -0.1898588E+01  0.5408876E-01  0.1590570E+00
  0.3865100E+01 -0.9331180E+01  0.0000000E+00  0.2068188E+00 -0.1790259E+01  0.4502553E-01  0.2018581E+00
  0.4761110E+01 -0.8907410E+01  0.0000000E+00  0.2472363E+00 -0.1728562E+01  0.3884387E-01  0.2441658E+00
  0.5611260E+01 -0.8397840E+01  0.0000000E+00  0.2880604E+00 -0.1693467E+01  0.3524815E-01  0.2858957E+00
  0.6407370E+01 -0.7807410E+01  0.0000000E+00  0.3280111E+00 -0.1675120E+01  0.3415721E-01  0.3262278E+00
  0.7141780E+01 -0.7141780E+01  0.0000000E+00  0.3662277E+00 -0.1666850E+01  0.3512343E-01  0.3645395E+00
  0.7807410E+01 -0.6407370E+01  0.0000000E+00  0.4018124E+00 -0.1665918E+01  0.3816352E-01  0.3999959E+00
  0.8397840E+01 -0.5611260E+01  0.0000000E+00  0.4353221E+00 -0.1669433E+01  0.4286910E-01  0.4332062E+00
  0.8907410E+01 -0.4761110E+01  0.0000000E+00  0.4661935E+00 -0.1675499E+01  0.4872254E-01  0.4636405E+00
  0.9331180E+01 -0.3865100E+01  0.0000000E+00  0.4941081E+00 -0.1682532E+01  0.5509478E-01  0.4910269E+00
  0.9665100E+01 -0.2931870E+01  0.0000000E+00  0.5178974E+00 -0.1690239E+01  0.6171225E-01  0.5142075E+00
  0.9905930E+01 -0.1970410E+01  0.0000000E+00  0.5387236E+00 -0.1698042E+01  0.6836550E-01  0.5343681E+00
  0.1005140E+02 -0.9899690E+00  0.0000000E+00  0.5562970E+00 -0.1705086E+01  0.7448069E-01  0.5512885E+00
  0.1010000E+02  0.0000000E+00 -0.2568960E-01  0.5698658E+00 -0.1710902E+01  0.7958044E-01  0.5642818E+00
  0.1005140E+02  0.9899730E+00 -0.2568960E-01  0.5793405E+00 -0.1715275E+01  0.8341153E-01  0.5733044E+00
  0.9905930E+01  0.1970410E+01 -0.2568960E-01  0.5854457E+00 -0.1718240E+01  0.8600766E-01  0.5790936E+00
  0.9665100E+01  0.2931880E+01 -0.2568960E-01  0.5883514E+00 -0.1719484E+01  0.8715843E-01  0.5818598E+00
  0.9331180E+01  0.3865100E+01 -0.2568960E-01  0.5878193E+00 -0.1719026E+01  0.8681359E-01  0.5813733E+00
  0.8907400E+01  0.4761110E+01 -0.2568960E-01  0.5823801E+00 -0.1716760E+01  0.8470464E-01  0.5761872E+00
  0.8397840E+01  0.5611260E+01 -0.2568960E-01  0.5734951E+00 -0.1712817E+01  0.8117443E-01  0.5677212E+00
  0.7807410E+01  0.6407370E+01 -0.2568960E-01  0.5614435E+00 -0.1707380E+01  0.7644574E-01  0.5562147E+00
  0.7141780E+01  0.7141780E+01 -0.2568960E-01  0.5461084E+00 -0.1700953E+01  0.7087921E-01  0.5414891E+00
  0.6407370E+01  0.7807410E+01 -0.2568960E-01  0.5261648E+00 -0.1693695E+01  0.6450221E-01  0.5221962E+00
  0.5611260E+01  0.8397840E+01 -0.2568960E-01  0.5029357E+00 -0.1685758E+01  0.5769121E-01  0.4996159E+00
  0.4761110E+01  0.8907410E+01 -0.2568960E-01  0.4767895E+00 -0.1677939E+01  0.5098694E-01  0.4740554E+00
  0.3865100E+01  0.9331180E+01 -0.2568960E-01  0.4478776E+00 -0.1671386E+01  0.4497594E-01  0.4456137E+00
  0.2931870E+01  0.9665100E+01 -0.2568960E-01  0.4152783E+00 -0.1667224E+01  0.3998235E-01  0.4133491E+00
  0.1970410E+01  0.9905930E+01 -0.2568960E-01  0.3800142E+00 -0.1666178E+01  0.3619127E-01  0.3782869E+00
  0.9899730E+00  0.1005140E+02 -0.2568960E-01  0.3427063E+00 -0.1670655E+01  0.3416529E-01  0.3409990E+00
 -0.4414850E-06  0.1010000E+02 -0.2568960E-01  0.3039389E+00 -0.1683985E+01  0.3432903E-01  0.3019940E+00
 -0.9899740E+00  0.1005140E+02 -0.2568960E-01  0.2635955E+00 -0.1711946E+01  0.3708295E-01  0.2609740E+00
 -0.1970410E+01  0.9905930E+01 -0.2568960E-01  0.2226483E+00 -0.1761906E+01  0.4229170E-01  0.2185948E+00
 -0.2931880E+01  0.9665100E+01 -0.2568960E-01  0.1826433E+00 -0.1848917E+01  0.5014458E-01  0.1756249E+00
 -0.3865100E+01  0.9331180E+01 -0.2568960E-01  0.1460197E+00 -0.1998450E+01  0.6055981E-01  0.1328694E+00
 -0.4761110E+01  0.8907400E+01 -0.2568960E-01  0.1168555E+00 -0.2253172E+01  0.7369363E-01  0.9068882E-01
 -0.5611260E+01  0.8397840E+01 -0.2568960E-01  0.1018086E+00 -0.2637758E+01  0.8915760E-01  0.4915187E-01
 -0.6407370E+01  0.7807410E+01 -0.2568960E-01  0.1069617E+00 -0.3057620E+01  0.1065849E+00  0.8971295E-02
 -0.7141780E+01  0.7141780E+01 -0.2568960E-01  0.1287119E+00  0.2913171E+01  0.1253686E+00 -0.2914559E-01
 -0.7807410E+01  0.6407370E+01 -0.2568960E-01  0.1588550E+00  0.2724643E+01  0.1452457E+00 -0.6433205E-01
 -0.8397840E+01  0.5611260E+01 -0.2568960E-01  0.1922252E+00  0.2611441E+01  0.1658385E+00 -0.9720148E-01
 -0.8907410E+01  0.4761110E+01 -0.2568960E-01  0.2258421E+00  0.2542017E+01  0.1864496E+00 -0.1274410E+00
 -0.9331180E+01  0.3865100E+01 -0.2568960E-01  0.2577698E+00  0.2498440E+01  0.2062697E+00 -0.1545900E+00
 -0.9665100E+01  0.2931880E+01 -0.2568960E-01  0.2863296E+00  0.2473023E+01  0.2246854E+00 -0.1774855E+00
 -0.9905930E+01  0.1970410E+01 -0.2568960E-01  0.3119632E+00  0.2456848E+01  0.2416406E+00 -0.1973090E+00
 -0.1005140E+02  0.9899730E+00 -0.2568960E-01  0.3341352E+00  0.2446030E+01  0.2565134E+00 -0.2141197E+00
 -0.1010000E+02 -0.8829700E-06 -0.2568960E-01  0.3521993E+00  0.2438730E+01  0.2687263E+00 -0.2276632E+00
 -0.1005140E+02 -0.9899740E+00 -0.2568960E-01  0.3646684E+00  0.2435744E+01  0.2775351E+00 -0.2365530E+00
 -0.9905930E+01 -0.1970410E+01 -0.2568960E-01  0.3727693E+00  0.2434163E+01  0.2833177E+00 -0.2422562E+00
 -0.9665100E+01 -0.2931880E+01 -0.2568960E-01  0.3764909E+00  0.2433032E+01  0.2858691E+00 -0.2449984E+00
 -0.9331180E+01 -0.3865100E+01 -0.2568960E-01  0.3755923E+00  0.2432591E+01  0.2850791E+00 -0.2445392E+00
 -0.8907400E+01 -0.4761110E+01 -0.2568960E-01  0.3686674E+00  0.2434850E+01  0.2803647E+00 -0.2393978E+00
 -0.8397840E+01 -0.5611260E+01 -0.2568960E-01  0.3571796E+00  0.2438197E+01  0.2724032E+00 -0.2310277E+00
 -0.7807400E+01 -0.6407370E+01 -0.2568960E-01  0.3415329E+00  0.2442928E+01  0.2615123E+00 -0.2196726E+00
 -0.7141780E+01 -0.7141780E+01 -0.2568960E-01  0.3219109E+00  0.2450674E+01  0.2480840E+00 -0.2051364E+00
 -0.6407370E+01 -0.7807410E+01 -0.2568960E-01  0.2973064E+00  0.2465542E+01  0.2319137E+00 -0.1860298E+00
 -0.5611260E+01 -0.8397850E+01 -0.2568960E-01  0.2691947E+00  0.2488081E+01  0.2137281E+00 -0.1636645E+00
 -0.4761110E+01 -0.8907410E+01 -0.2568960E-01  0.2384695E+00  0.2522681E+01  0.1942359E+00 -0.1383478E+00
 -0.3865100E+01 -0.9331190E+01 -0.2568960E-01  0.2060572E+00  0.2577577E+01  0.1741421E+00 -0.1101549E+00
 -0.2931870E+01 -0.9665100E+01 -0.2568960E-01  0.1723688E+00  0.2671340E+01  0.1536588E+00 -0.7810232E-01
 -0.1970410E+01 -0.9905930E+01 -0.2568960E-01  0.1401188E+00  0.2827847E+01  0.1332788E+00 -0.4324403E-01
 -0.9899710E+00 -0.1005140E+02 -0.2568960E-01  0.1139520E+00  0.3087559E+01  0.1137857E+00 -0.6154314E-02
  0.1204410E-06 -0.1010000E+02 -0.2568960E-01  0.1012106E+00 -0.2812826E+01  0.9578993E-01  0.3267846E-01
  0.9899760E+00 -0.1005140E+02 -0.2568960E-01  0.1084934E+00 -0.2396074E+01  0.7971401E-01  0.7359686E-01
  0.1970410E+01 -0.9905930E+01 -0.2568960E-01  0.1332075E+00 -0.2086125E+01  0.6564745E-01  0.1159079E+00
  0.2931880E+01 -0.9665100E+01 -0.2568960E-01  0.1677679E+00 -0.1898577E+01  0.5401161E-01  0.1588358E+00
  0.3865100E+01 -0.9331180E+01 -0.2568960E-01  0.2065397E+00 -0.1790211E+01  0.4495513E-01  0.2015879E+00
  0.4761110E+01 -0.8907410E+01 -0.2568960E-01  0.2469101E+00 -0.1728540E+01  0.3878730E-01  0.2438445E+00
  0.5611260E+01 -0.8397840E+01 -0.2568960E-01  0.2876589E+00 -0.1693548E+01  0.3522198E-01  0.2854944E+00
  0.6407370E+01 -0.7807410E+01 -0.2568960E-01  0.3275898E+00 -0.1675110E+01  0.3411026E-01  0.3258091E+00
  0.7141780E+01 -0.7141780E+01 -0.2568960E-01  0.3657702E+00 -0.1666836E+01  0.3507460E-01  0.3640846E+00
  0.7807410E+01 -0.6407370E+01 -0.2568960E-01  0.4013039E+00 -0.1665923E+01  0.3811716E-01  0.3994896E+00
  0.8397840E+01 -0.5611260E+01 -0.2568960E-01  0.4347065E+00 -0.1669478E+01  0.4282778E-01  0.4325916E+00
  0.8907410E+01 -0.4761110E+01 -0.2568960E-01  0.4656077E+00 -0.1675515E+01  0.4866891E-01  0.4630571E+00
  0.9331180E+01 -0.3865100E+01 -0.2568960E-01  0.4935030E+00 -0.1682552E+01  0.5503687E-01  0.4904244E+00
  0.9665100E+01 -0.2931870E+01 -0.2568960E-01  0.5172486E+00 -0.1690266E+01  0.6164883E-01  0.5135616E+00
  0.9905930E+01 -0.1970410E+01 -0.2568960E-01  0.5379582E+00 -0.1698070E+01  0.6828338E-01  0.5336070E+00
  0.1005140E+02 -0.9899690E+00 -0.2568960E-01  0.5556027E+00 -0.1705120E+01  0.7440615E-01  0.5505979E+00
  0.1010000E+02  0.0000000E+00 -0.1027320E+00  0.5677184E+00 -0.1711002E+01  0.7933665E-01  0.5621476E+00
  0.1005140E+02  0.9899730E+00 -0.1027320E+00  0.5771153E+00 -0.1715373E+01  0.8314689E-01  0.5710943E+00
  0.9905930E+01  0.1970410E+01 -0.1027320E+00  0.5829862E+00 -0.1718304E+01  0.8568335E-01  0.5766552E+00
  0.9665100E+01  0.2931880E+01 -0.1027320E+00  0.5860922E+00 -0.1719584E+01  0.8688205E-01  0.5796168E+00
  0.9331180E+01  0.3865100E+01 -0.1027320E+00  0.5856050E+00 -0.1719137E+01  0.8655072E-01  0.5791737E+00
  0.8907400E+01  0.4761110E+01 -0.1027320E+00  0.5801424E+00 -0.1716858E+01  0.8443534E-01  0.5739650E+00
  0.8397840E+01  0.5611260E+01 -0.1027320E+00  0.5710865E+00 -0.1712883E+01  0.8087120E-01  0.5653315E+00
  0.7807410E+01  0.6407370E+01 -0.1027320E+00  0.5592855E+00 -0.1707470E+01  0.7620203E-01  0.5540699E+00
  0.7141780E+01  0.7141780E+01 -0.1027320E+00  0.5440485E+00 -0.1701039E+01  0.7065841E-01  0.5394406E+00
  0.6407370E+01  0.7807410E+01 -0.1027320E+00  0.5241393E+00 -0.1693768E+01  0.6429185E-01  0.5201812E+00
  0.5611260E+01  0.8397840E+01 -0.1027320E+00  0.5008256E+00 -0.1685843E+01  0.5749127E-01  0.4975148E+00
  0.4761110E+01  0.8907410E+01 -0.1027320E+00  0.4749492E+00 -0.1677996E+01  0.5081693E-01  0.4722228E+00
  0.3865100E+01  0.9331180E+01 -0.1027320E+00  0.4461755E+00 -0.1671415E+01  0.4481790E-01  0.4439189E+00
  0.2931870E+01  0.9665100E+01 -0.1027320E+00  0.4136684E+00 -0.1667250E+01  0.3983815E-01  0.4117456E+00
  0.1970410E+01  0.9905930E+01 -0.1027320E+00  0.3784276E+00 -0.1666305E+01  0.3608819E-01  0.3767029E+00
  0.9899730E+00  0.1005140E+02 -0.1027320E+00  0.3413674E+00 -0.1670656E+01  0.3403217E-01  0.3396667E+00
 -0.4414850E-06  0.1010000E+02 -0.1027320E+00  0.3027568E+00 -0.1683927E+01  0.3417792E-01  0.3008214E+00
 -0.9899740E+00  0.1005140E+02 -0.1027320E+00  0.2625474E+00 -0.1711917E+01  0.3692794E-01  0.2599374E+00
 -0.1970410E+01  0.9905930E+01 -0.1027320E+00  0.2217366E+00 -0.1762133E+01  0.4216791E-01  0.2176901E+00
 -0.2931880E+01  0.9665100E+01 -0.1027320E+00  0.1818947E+00 -0.1848893E+01  0.4993475E-01  0.1749062E+00
 -0.3865100E+01  0.9331180E+01 -0.1027320E+00  0.1453959E+00 -0.1998422E+01  0.6029738E-01  0.1323034E+00
 -0.4761110E+01  0.8907400E+01 -0.1027320E+00  0.1163520E+00 -0.2253376E+01  0.7339446E-01  0.9028311E-01
 -0.5611260E+01  0.8397840E+01 -0.1027320E+00  0.1014401E+00 -0.2637811E+01  0.8883750E-01  0.4896930E-01
 -0.6407370E+01  0.7807410E+01 -0.1027320E+00  0.1065335E+00 -0.3058233E+01  0.1061636E+00  0.8870358E-02
 -0.7141780E+01  0.7141780E+01 -0.1027320E+00  0.1282282E+00  0.2912429E+01  0.1248759E+00 -0.2912867E-01
 -0.7807410E+01  0.6407370E+01 -0.1027320E+00  0.1582747E+00  0.2724206E+01  0.1446871E+00 -0.6416022E-01
 -0.8397840E+01  0.5611260E+01 -0.1027320E+00  0.1914461E+00  0.2611721E+01  0.1651934E+00 -0.9676113E-01
 -0.8907410E+01  0.4761110E+01 -0.1027320E+00  0.2250269E+00  0.2541744E+01  0.1857420E+00 -0.1270315E+00
 -0.9331180E+01  0.3865100E+01 -0.1027320E+00  0.2568699E+00  0.2498128E+01  0.2055015E+00 -0.1541145E+00
 -0.9665100E+01  0.2931880E+01 -0.1027320E+00  0.2852983E+00  0.2472845E+01  0.2238447E+00 -0.1768861E+00
 -0.9905930E+01  0.1970410E+01 -0.1027320E+00  0.3106655E+00  0.2457036E+01  0.2406725E+00 -0.1964429E+00
 -0.1005140E+02  0.9899730E+00 -0.1027320E+00  0.3329285E+00  0.2445897E+01  0.2555586E+00 -0.2133803E+00
 -0.1010000E+02 -0.8829700E-06 -0.1027320E+00  0.3509690E+00  0.2438556E+01  0.2677481E+00 -0.2269146E+00
 -0.1005140E+02 -0.9899740E+00 -0.1027320E+00  0.3633506E+00  0.2435638E+01  0.2765071E+00 -0.2357276E+00
 -0.9905930E+01 -0.1970410E+01 -0.1027320E+00  0.3712122E+00  0.2434322E+01  0.2821725E+00 -0.2411994E+00
 -0.9665100E+01 -0.2931880E+01 -0.1027320E+00  0.3751301E+00  0.2432934E+01  0.2848121E+00 -0.2441407E+00
 -0.9331180E+01 -0.3865100E+01 -0.1027320E+00  0.3742793E+00  0.2432441E+01  0.2840460E+00 -0.2437270E+00
 -0.8907400E+01 -0.4761110E+01 -0.1027320E+00  0.3673349E+00  0.2434746E+01  0.2793264E+00 -0.2385617E+00
 -0.8397840E+01 -0.5611260E+01 -0.1027320E+00  0.3556884E+00  0.2438362E+01  0.2713037E+00 -0.2300185E+00
 -0.7807400E+01 -0.6407370E+01 -0.1027320E+00  0.3402999E+00  0.2442803E+01  0.2605410E+00 -0.2189120E+00
 -0.7141780E+01 -0.7141780E+01 -0.1027320E+00  0.3207877E+00  0.2450464E+01  0.2471755E+00 -0.2044725E+00
 -0.6407370E+01 -0.7807410E+01 -0.1027320E+00  0.2962343E+00  0.2465371E+01  0.2310459E+00 -0.1853983E+00
 -0.5611260E+01 -0.8397850E+01 -0.1027320E+00  0.2680805E+00  0.2488296E+01  0.2128785E+00 -0.1629414E+00
 -0.4761110E+01 -0.8907410E+01 -0.1027320E+00  0.2376107E+00  0.2522437E+01  0.1935026E+00 -0.1378969E+00
 -0.3865100E+01 -0.9331190E+01 -0.1027320E+00  0.2053331E+00  0.2577145E+01  0.1734827E+00 -0.1098428E+00
 -0.2931870E+01 -0.9665100E+01 -0.1027320E+00  0.1717405E+00  0.2670944E+01  0.1530679E+00 -0.7787817E-01
 -0.1970410E+01 -0.9905930E+01 -0.1027320E+00  0.1395713E+00  0.2828161E+01  0.1327716E+00 -0.4303334E-01
 -0.9899710E+00 -0.1005140E+02 -0.1027320E+00  0.1135091E+00  0.3086946E+01  0.1133396E+00 -0.6199846E-02
  0.1204410E-06 -0.1010000E+02 -0.1027320E+00  0.1007755E+00 -0.2813515E+01  0.9540045E-01  0.3247227E-01
  0.9899760E+00 -0.1005140E+02 -0.1027320E+00  0.1080252E+00 -0.2396366E+01  0.7939146E-01  0.7325603E-01
  0.1970410E+01 -0.9905930E+01 -0.1027320E+00  0.1326922E+00 -0.2086411E+01  0.6542645E-01  0.1154409E+00
  0.2931880E+01 -0.9665100E+01 -0.1027320E+00  0.1670723E+00 -0.1898571E+01  0.5378673E-01  0.1581775E+00
  0.3865100E+01 -0.9331180E+01 -0.1027320E+00  0.2057031E+00 -0.1790112E+01  0.4475310E-01  0.2007758E+00
  0.4761110E+01 -0.8907410E+01 -0.1027320E+00  0.2459249E+00 -0.1728510E+01  0.3862502E-01  0.2428727E+00
  0.5611260E+01 -0.8397840E+01 -0.1027320E+00  0.2864668E+00 -0.1693724E+01  0.3512620E-01  0.2843051E+00
  0.6407370E+01 -0.7807410E+01 -0.1027320E+00  0.3263055E+00 -0.1675102E+01  0.3397374E-01  0.3245321E+00
  0.7141780E+01 -0.7141780E+01 -0.1027320E+00  0.3643660E+00 -0.1666815E+01  0.3493233E-01  0.3626876E+00
  0.7807410E+01 -0.6407370E+01 -0.1027320E+00  0.3997461E+00 -0.1665948E+01  0.3797924E-01  0.3979378E+00
  0.8397840E+01 -0.5611260E+01 -0.1027320E+00  0.4328866E+00 -0.1669584E+01  0.4269431E-01  0.4307761E+00
