 VARIABLES="X" "Y" "Z" "abs(eta) (m)" "angle(phi) (rad)" "PRE1" "PRE2"
ZONE N=   3200 ,E =    3136 ,F=FEPOINT,ET=QUADRILATERAL
  0.1100000E+02  0.0000000E+00  0.0000000E+00  0.2092954E+00  0.1669584E+01  0.2064221E-01 -0.2082749E+00
  0.1094700E+02  0.1078190E+01  0.0000000E+00  0.2083999E+00  0.1669527E+01  0.2054213E-01 -0.2073850E+00
  0.1078860E+02  0.2145990E+01  0.0000000E+00  0.2063943E+00  0.1668996E+01  0.2023536E-01 -0.2053999E+00
  0.1052630E+02  0.3193130E+01  0.0000000E+00  0.2004060E+00  0.1669518E+01  0.1975223E-01 -0.1994302E+00
  0.1016270E+02  0.4209520E+01  0.0000000E+00  0.1933646E+00  0.1669584E+01  0.1907095E-01 -0.1924218E+00
  0.9701130E+01  0.5185360E+01  0.0000000E+00  0.1846658E+00  0.1669538E+01  0.1820469E-01 -0.1837663E+00
  0.9146170E+01  0.6111270E+01  0.0000000E+00  0.1749746E+00  0.1668995E+01  0.1715471E-01 -0.1741317E+00
  0.8503110E+01  0.6978330E+01  0.0000000E+00  0.1619056E+00  0.1669502E+01  0.1595512E-01 -0.1611175E+00
  0.7778170E+01  0.7778170E+01  0.0000000E+00  0.1479936E+00  0.1669584E+01  0.1459622E-01 -0.1472720E+00
  0.6978330E+01  0.8503110E+01  0.0000000E+00  0.1328179E+00  0.1669555E+01  0.1309568E-01 -0.1321708E+00
  0.6111270E+01  0.9146170E+01  0.0000000E+00  0.1169137E+00  0.1668996E+01  0.1146242E-01 -0.1163504E+00
  0.5185360E+01  0.9701130E+01  0.0000000E+00  0.9875380E-01  0.1669475E+01  0.9729069E-02 -0.9827338E-01
  0.4209520E+01  0.1016270E+02  0.0000000E+00  0.8009376E-01  0.1669583E+01  0.7899339E-02 -0.7970326E-01
  0.3193130E+01  0.1052630E+02  0.0000000E+00  0.6074824E-01  0.1669609E+01  0.5992953E-02 -0.6045191E-01
  0.2145990E+01  0.1078860E+02  0.0000000E+00  0.4105492E-01  0.1668991E+01  0.4024917E-02 -0.4085715E-01
  0.1078190E+01  0.1094700E+02  0.0000000E+00  0.2056828E-01  0.1669253E+01  0.2021823E-02 -0.2046867E-01
 -0.4808250E-06  0.1100000E+02  0.0000000E+00  0.2724356E-06 -0.8341380E+00 -0.1830267E-06  0.2017979E-06
 -0.1078190E+01  0.1094700E+02  0.0000000E+00  0.2056872E-01 -0.1472329E+01 -0.2022085E-02  0.2046908E-01
 -0.2145990E+01  0.1078860E+02  0.0000000E+00  0.4105536E-01 -0.1472595E+01 -0.4025215E-02  0.4085756E-01
 -0.3193130E+01  0.1052630E+02  0.0000000E+00  0.6074874E-01 -0.1471979E+01 -0.5993252E-02  0.6045238E-01
 -0.4209520E+01  0.1016270E+02  0.0000000E+00  0.8009426E-01 -0.1472007E+01 -0.7899576E-02  0.7970374E-01
 -0.5185370E+01  0.9701130E+01  0.0000000E+00  0.9875441E-01 -0.1472116E+01 -0.9729342E-02  0.9827398E-01
 -0.6111270E+01  0.9146160E+01  0.0000000E+00  0.1169140E+00 -0.1472595E+01 -0.1146262E-01  0.1163507E+00
 -0.6978330E+01  0.8503120E+01  0.0000000E+00  0.1328186E+00 -0.1472036E+01 -0.1309592E-01  0.1321714E+00
 -0.7778170E+01  0.7778170E+01  0.0000000E+00  0.1479943E+00 -0.1472007E+01 -0.1459642E-01  0.1472727E+00
 -0.8503120E+01  0.6978330E+01  0.0000000E+00  0.1619066E+00 -0.1472089E+01 -0.1595540E-01  0.1611185E+00
 -0.9146170E+01  0.6111270E+01  0.0000000E+00  0.1749748E+00 -0.1472596E+01 -0.1715491E-01  0.1741318E+00
 -0.9701130E+01  0.5185360E+01  0.0000000E+00  0.1846660E+00 -0.1472053E+01 -0.1820487E-01  0.1837665E+00
 -0.1016270E+02  0.4209520E+01  0.0000000E+00  0.1933648E+00 -0.1472008E+01 -0.1907117E-01  0.1924220E+00
 -0.1052630E+02  0.3193130E+01  0.0000000E+00  0.2004061E+00 -0.1472075E+01 -0.1975234E-01  0.1994303E+00
 -0.1078860E+02  0.2145990E+01  0.0000000E+00  0.2063943E+00 -0.1472595E+01 -0.2023553E-01  0.2053999E+00
 -0.1094700E+02  0.1078190E+01  0.0000000E+00  0.2083998E+00 -0.1472065E+01 -0.2054225E-01  0.2073849E+00
 -0.1100000E+02 -0.9616510E-06  0.0000000E+00  0.2092956E+00 -0.1472008E+01 -0.2064240E-01  0.2082751E+00
 -0.1094700E+02 -0.1078190E+01  0.0000000E+00  0.2083993E+00 -0.1472065E+01 -0.2054217E-01  0.2073844E+00
 -0.1078860E+02 -0.2146000E+01  0.0000000E+00  0.2063935E+00 -0.1472595E+01 -0.2023551E-01  0.2053991E+00
 -0.1052630E+02 -0.3193130E+01  0.0000000E+00  0.2004050E+00 -0.1472074E+01 -0.1975228E-01  0.1994292E+00
 -0.1016270E+02 -0.4209520E+01  0.0000000E+00  0.1933629E+00 -0.1472007E+01 -0.1907109E-01  0.1924201E+00
 -0.9701130E+01 -0.5185360E+01  0.0000000E+00  0.1846640E+00 -0.1472052E+01 -0.1820482E-01  0.1837644E+00
 -0.9146160E+01 -0.6111270E+01  0.0000000E+00  0.1749724E+00 -0.1472595E+01 -0.1715489E-01  0.1741294E+00
 -0.8503110E+01 -0.6978330E+01  0.0000000E+00  0.1619037E+00 -0.1472088E+01 -0.1595530E-01  0.1611156E+00
 -0.7778170E+01 -0.7778180E+01  0.0000000E+00  0.1479918E+00 -0.1472006E+01 -0.1459639E-01  0.1472702E+00
 -0.6978330E+01 -0.8503110E+01  0.0000000E+00  0.1328162E+00 -0.1472035E+01 -0.1309585E-01  0.1321690E+00
 -0.6111270E+01 -0.9146170E+01  0.0000000E+00  0.1169121E+00 -0.1472594E+01 -0.1146257E-01  0.1163488E+00
 -0.5185360E+01 -0.9701130E+01  0.0000000E+00  0.9875222E-01 -0.1472114E+01 -0.9729269E-02  0.9827178E-01
 -0.4209510E+01 -0.1016270E+02  0.0000000E+00  0.8009224E-01 -0.1472006E+01 -0.7899481E-02  0.7970172E-01
 -0.3193130E+01 -0.1052630E+02  0.0000000E+00  0.6074715E-01 -0.1471978E+01 -0.5993159E-02  0.6045080E-01
 -0.2145990E+01 -0.1078860E+02  0.0000000E+00  0.4105405E-01 -0.1472593E+01 -0.4025174E-02  0.4085625E-01
 -0.1078190E+01 -0.1094700E+02  0.0000000E+00  0.2056766E-01 -0.1472328E+01 -0.2021996E-02  0.2046803E-01
  0.1311740E-06 -0.1100000E+02  0.0000000E+00  0.4934519E-06  0.1492987E+01 -0.3835633E-07 -0.4919589E-06
  0.1078190E+01 -0.1094700E+02  0.0000000E+00  0.2056877E-01  0.1669257E+01  0.2021953E-02 -0.2046915E-01
  0.2145990E+01 -0.1078860E+02  0.0000000E+00  0.4105515E-01  0.1668993E+01  0.4025011E-02 -0.4085737E-01
  0.3193140E+01 -0.1052630E+02  0.0000000E+00  0.6074845E-01  0.1669610E+01  0.5993009E-02 -0.6045211E-01
  0.4209520E+01 -0.1016270E+02  0.0000000E+00  0.8009351E-01  0.1669583E+01  0.7899322E-02 -0.7970302E-01
  0.5185360E+01 -0.9701130E+01  0.0000000E+00  0.9875309E-01  0.1669476E+01  0.9729134E-02 -0.9827267E-01
  0.6111270E+01 -0.9146160E+01  0.0000000E+00  0.1169130E+00  0.1668996E+01  0.1146241E-01 -0.1163497E+00
  0.6978330E+01 -0.8503110E+01  0.0000000E+00  0.1328171E+00  0.1669556E+01  0.1309566E-01 -0.1321699E+00
  0.7778180E+01 -0.7778170E+01  0.0000000E+00  0.1479930E+00  0.1669585E+01  0.1459626E-01 -0.1472715E+00
  0.8503120E+01 -0.6978320E+01  0.0000000E+00  0.1619049E+00  0.1669503E+01  0.1595520E-01 -0.1611168E+00
  0.9146170E+01 -0.6111270E+01  0.0000000E+00  0.1749736E+00  0.1668996E+01  0.1715476E-01 -0.1741306E+00
  0.9701130E+01 -0.5185360E+01  0.0000000E+00  0.1846648E+00  0.1669539E+01  0.1820468E-01 -0.1837652E+00
  0.1016270E+02 -0.4209520E+01  0.0000000E+00  0.1933634E+00  0.1669585E+01  0.1907101E-01 -0.1924207E+00
  0.1052630E+02 -0.3193130E+01  0.0000000E+00  0.2004055E+00  0.1669518E+01  0.1975218E-01 -0.1994298E+00
  0.1078860E+02 -0.2145990E+01  0.0000000E+00  0.2063938E+00  0.1668996E+01  0.2023534E-01 -0.2053995E+00
  0.1094700E+02 -0.1078180E+01  0.0000000E+00  0.2083997E+00  0.1669527E+01  0.2054210E-01 -0.2073848E+00
  0.1100000E+02  0.0000000E+00 -0.2568960E-01  0.2090466E+00  0.1669635E+01  0.2062825E-01 -0.2080263E+00
  0.1094700E+02  0.1078190E+01 -0.2568960E-01  0.2081299E+00  0.1669589E+01  0.2052833E-01 -0.2071150E+00
  0.1078860E+02  0.2145990E+01 -0.2568960E-01  0.2060934E+00  0.1669076E+01  0.2022221E-01 -0.2050989E+00
  0.1052630E+02  0.3193130E+01 -0.2568960E-01  0.2001467E+00  0.1669580E+01  0.1973905E-01 -0.1991710E+00
  0.1016270E+02  0.4209520E+01 -0.2568960E-01  0.1931342E+00  0.1669635E+01  0.1905804E-01 -0.1921916E+00
  0.9701130E+01  0.5185360E+01 -0.2568960E-01  0.1844260E+00  0.1669601E+01  0.1819255E-01 -0.1835265E+00
  0.9146170E+01  0.6111270E+01 -0.2568960E-01  0.1747194E+00  0.1669075E+01  0.1714358E-01 -0.1738763E+00
  0.8503110E+01  0.6978330E+01 -0.2568960E-01  0.1616968E+00  0.1669564E+01  0.1594451E-01 -0.1609087E+00
  0.7778170E+01  0.7778170E+01 -0.2568960E-01  0.1478173E+00  0.1669636E+01  0.1458641E-01 -0.1470959E+00
  0.6978330E+01  0.8503110E+01 -0.2568960E-01  0.1326449E+00  0.1669618E+01  0.1308691E-01 -0.1319977E+00
  0.6111270E+01  0.9146170E+01 -0.2568960E-01  0.1167431E+00  0.1669075E+01  0.1145495E-01 -0.1161798E+00
  0.5185360E+01  0.9701130E+01 -0.2568960E-01  0.9862689E-01  0.1669537E+01  0.9722646E-02 -0.9814649E-01
  0.4209520E+01  0.1016270E+02 -0.2568960E-01  0.7999848E-01  0.1669634E+01  0.7893968E-02 -0.7960805E-01
  0.3193130E+01  0.1052630E+02 -0.2568960E-01  0.6066845E-01  0.1669675E+01  0.5989019E-02 -0.6037211E-01
  0.2145990E+01  0.1078860E+02 -0.2568960E-01  0.4099506E-01  0.1669073E+01  0.4022375E-02 -0.4079725E-01
  0.1078190E+01  0.1094700E+02 -0.2568960E-01  0.2054282E-01  0.1669308E+01  0.2020441E-02 -0.2044323E-01
 -0.4808250E-06  0.1100000E+02 -0.2568960E-01  0.2780618E-06 -0.9332169E+00 -0.1655169E-06  0.2234335E-06
 -0.1078190E+01  0.1094700E+02 -0.2568960E-01  0.2054330E-01 -0.1472272E+01 -0.2020742E-02  0.2044367E-01
 -0.2145990E+01  0.1078860E+02 -0.2568960E-01  0.4099552E-01 -0.1472516E+01 -0.4022558E-02  0.4079769E-01
 -0.3193130E+01  0.1052630E+02 -0.2568960E-01  0.6066894E-01 -0.1471916E+01 -0.5989196E-02  0.6037259E-01
 -0.4209520E+01  0.1016270E+02 -0.2568960E-01  0.7999907E-01 -0.1471956E+01 -0.7894278E-02  0.7960861E-01
 -0.5185370E+01  0.9701130E+01 -0.2568960E-01  0.9862764E-01 -0.1472055E+01 -0.9722831E-02  0.9814723E-01
 -0.6111270E+01  0.9146160E+01 -0.2568960E-01  0.1167437E+00 -0.1472516E+01 -0.1145518E-01  0.1161803E+00
 -0.6978330E+01  0.8503120E+01 -0.2568960E-01  0.1326457E+00 -0.1471973E+01 -0.1308715E-01  0.1319985E+00
 -0.7778170E+01  0.7778170E+01 -0.2568960E-01  0.1478182E+00 -0.1471956E+01 -0.1458659E-01  0.1470967E+00
 -0.8503120E+01  0.6978330E+01 -0.2568960E-01  0.1616975E+00 -0.1472028E+01 -0.1594470E-01  0.1609094E+00
 -0.9146170E+01  0.6111270E+01 -0.2568960E-01  0.1747200E+00 -0.1472517E+01 -0.1714374E-01  0.1738769E+00
 -0.9701130E+01  0.5185360E+01 -0.2568960E-01  0.1844265E+00 -0.1471991E+01 -0.1819270E-01  0.1835270E+00
 -0.1016270E+02  0.4209520E+01 -0.2568960E-01  0.1931343E+00 -0.1471956E+01 -0.1905829E-01  0.1921917E+00
 -0.1052630E+02  0.3193130E+01 -0.2568960E-01  0.2001471E+00 -0.1472012E+01 -0.1973918E-01  0.1991713E+00
 -0.1078860E+02  0.2145990E+01 -0.2568960E-01  0.2060936E+00 -0.1472516E+01 -0.2022241E-01  0.2050990E+00
 -0.1094700E+02  0.1078190E+01 -0.2568960E-01  0.2081299E+00 -0.1472003E+01 -0.2052851E-01  0.2071150E+00
 -0.1100000E+02 -0.9616510E-06 -0.2568960E-01  0.2090464E+00 -0.1471957E+01 -0.2062845E-01  0.2080262E+00
 -0.1094700E+02 -0.1078190E+01 -0.2568960E-01  0.2081294E+00 -0.1472002E+01 -0.2052850E-01  0.2071145E+00
 -0.1078860E+02 -0.2146000E+01 -0.2568960E-01  0.2060928E+00 -0.1472515E+01 -0.2022240E-01  0.2050982E+00
 -0.1052630E+02 -0.3193130E+01 -0.2568960E-01  0.2001456E+00 -0.1472012E+01 -0.1973914E-01  0.1991698E+00
 -0.1016270E+02 -0.4209520E+01 -0.2568960E-01  0.1931328E+00 -0.1471956E+01 -0.1905821E-01  0.1921902E+00
 -0.9701130E+01 -0.5185360E+01 -0.2568960E-01  0.1844243E+00 -0.1471990E+01 -0.1819264E-01  0.1835248E+00
 -0.9146160E+01 -0.6111270E+01 -0.2568960E-01  0.1747173E+00 -0.1472516E+01 -0.1714365E-01  0.1738742E+00
 -0.8503110E+01 -0.6978330E+01 -0.2568960E-01  0.1616948E+00 -0.1472027E+01 -0.1594461E-01  0.1609067E+00
 -0.7778170E+01 -0.7778180E+01 -0.2568960E-01  0.1478157E+00 -0.1471955E+01 -0.1458653E-01  0.1470942E+00
 -0.6978330E+01 -0.8503110E+01 -0.2568960E-01  0.1326432E+00 -0.1471972E+01 -0.1308706E-01  0.1319961E+00
 -0.6111270E+01 -0.9146170E+01 -0.2568960E-01  0.1167417E+00 -0.1472515E+01 -0.1145508E-01  0.1161784E+00
 -0.5185360E+01 -0.9701130E+01 -0.2568960E-01  0.9862539E-01 -0.1472053E+01 -0.9722771E-02  0.9814497E-01
 -0.4209510E+01 -0.1016270E+02 -0.2568960E-01  0.7999691E-01 -0.1471955E+01 -0.7894126E-02  0.7960646E-01
 -0.3193130E+01 -0.1052630E+02 -0.2568960E-01  0.6066735E-01 -0.1471915E+01 -0.5989128E-02  0.6037100E-01
 -0.2145990E+01 -0.1078860E+02 -0.2568960E-01  0.4099423E-01 -0.1472515E+01 -0.4022506E-02  0.4079640E-01
 -0.1078190E+01 -0.1094700E+02 -0.2568960E-01  0.2054222E-01 -0.1472270E+01 -0.2020675E-02  0.2044260E-01
  0.1311740E-06 -0.1100000E+02 -0.2568960E-01  0.5286824E-06  0.1446045E+01 -0.6578300E-07 -0.5245739E-06
  0.1078190E+01 -0.1094700E+02 -0.2568960E-01  0.2054333E-01  0.1669311E+01  0.2020551E-02 -0.2044372E-01
  0.2145990E+01 -0.1078860E+02 -0.2568960E-01  0.4099531E-01  0.1669073E+01  0.4022406E-02 -0.4079749E-01
  0.3193140E+01 -0.1052630E+02 -0.2568960E-01  0.6066871E-01  0.1669675E+01  0.5989050E-02 -0.6037237E-01
  0.4209520E+01 -0.1016270E+02 -0.2568960E-01  0.7999816E-01  0.1669635E+01  0.7894015E-02 -0.7960773E-01
  0.5185360E+01 -0.9701130E+01 -0.2568960E-01  0.9862629E-01  0.1669537E+01  0.9722648E-02 -0.9814589E-01
  0.6111270E+01 -0.9146160E+01 -0.2568960E-01  0.1167425E+00  0.1669076E+01  0.1145495E-01 -0.1161792E+00
  0.6978330E+01 -0.8503110E+01 -0.2568960E-01  0.1326442E+00  0.1669619E+01  0.1308697E-01 -0.1319970E+00
  0.7778180E+01 -0.7778170E+01 -0.2568960E-01  0.1478169E+00  0.1669636E+01  0.1458637E-01 -0.1470955E+00
  0.8503120E+01 -0.6978320E+01 -0.2568960E-01  0.1616960E+00  0.1669565E+01  0.1594455E-01 -0.1609080E+00
  0.9146170E+01 -0.6111270E+01 -0.2568960E-01  0.1747186E+00  0.1669075E+01  0.1714355E-01 -0.1738755E+00
  0.9701130E+01 -0.5185360E+01 -0.2568960E-01  0.1844250E+00  0.1669601E+01  0.1819248E-01 -0.1835255E+00
  0.1016270E+02 -0.4209520E+01 -0.2568960E-01  0.1931334E+00  0.1669635E+01  0.1905803E-01 -0.1921908E+00
  0.1052630E+02 -0.3193130E+01 -0.2568960E-01  0.2001463E+00  0.1669580E+01  0.1973897E-01 -0.1991705E+00
  0.1078860E+02 -0.2145990E+01 -0.2568960E-01  0.2060929E+00  0.1669077E+01  0.2022226E-01 -0.2050984E+00
  0.1094700E+02 -0.1078180E+01 -0.2568960E-01  0.2081296E+00  0.1669590E+01  0.2052840E-01 -0.2071148E+00
  0.1100000E+02  0.0000000E+00 -0.1027320E+00  0.2084739E+00  0.1669701E+01  0.2058553E-01 -0.2074551E+00
  0.1094700E+02  0.1078190E+01 -0.1027320E+00  0.2075102E+00  0.1669683E+01  0.2048648E-01 -0.2064964E+00
  0.1078860E+02  0.2145990E+01 -0.1027320E+00  0.2053579E+00  0.1669234E+01  0.2018229E-01 -0.2043638E+00
  0.1052630E+02  0.3193130E+01 -0.1027320E+00  0.1995510E+00  0.1669672E+01  0.1969865E-01 -0.1985763E+00
  0.1016270E+02  0.4209520E+01 -0.1027320E+00  0.1926054E+00  0.1669701E+01  0.1901856E-01 -0.1916641E+00
  0.9701130E+01  0.5185360E+01 -0.1027320E+00  0.1838764E+00  0.1669694E+01  0.1815538E-01 -0.1829779E+00
  0.9146170E+01  0.6111270E+01 -0.1027320E+00  0.1740960E+00  0.1669232E+01  0.1710968E-01 -0.1732532E+00
  0.8503110E+01  0.6978330E+01 -0.1027320E+00  0.1612153E+00  0.1669658E+01  0.1591201E-01 -0.1604281E+00
  0.7778170E+01  0.7778170E+01 -0.1027320E+00  0.1474126E+00  0.1669702E+01  0.1455620E-01 -0.1466921E+00
  0.6978330E+01  0.8503110E+01 -0.1027320E+00  0.1322496E+00  0.1669711E+01  0.1306009E-01 -0.1316031E+00
  0.6111270E+01  0.9146170E+01 -0.1027320E+00  0.1163268E+00  0.1669233E+01  0.1143232E-01 -0.1157637E+00
  0.5185360E+01  0.9701130E+01 -0.1027320E+00  0.9833360E-01  0.1669629E+01  0.9702777E-02 -0.9785373E-01
  0.4209520E+01  0.1016270E+02 -0.1027320E+00  0.7977943E-01  0.1669700E+01  0.7877646E-02 -0.7938955E-01
  0.3193130E+01  0.1052630E+02 -0.1027320E+00  0.6048733E-01  0.1669767E+01  0.5976678E-02 -0.6019134E-01
  0.2145990E+01  0.1078860E+02 -0.1027320E+00  0.4084882E-01  0.1669230E+01  0.4014430E-02 -0.4065108E-01
  0.1078190E+01  0.1094700E+02 -0.1027320E+00  0.2048220E-01  0.1669402E+01  0.2016383E-02 -0.2038270E-01
 -0.4808250E-06  0.1100000E+02 -0.1027320E+00  0.2513801E-06 -0.8210611E+00 -0.1713017E-06  0.1839774E-06
 -0.1078190E+01  0.1094700E+02 -0.1027320E+00  0.2048258E-01 -0.1472178E+01 -0.2016686E-02  0.2038306E-01
 -0.2145990E+01  0.1078860E+02 -0.1027320E+00  0.4084921E-01 -0.1472356E+01 -0.4014703E-02  0.4065144E-01
 -0.3193130E+01  0.1052630E+02 -0.1027320E+00  0.6048778E-01 -0.1471822E+01 -0.5976957E-02  0.6019176E-01
 -0.4209520E+01  0.1016270E+02 -0.1027320E+00  0.7977983E-01 -0.1471889E+01 -0.7877921E-02  0.7938992E-01
 -0.5185370E+01  0.9701130E+01 -0.1027320E+00  0.9833430E-01 -0.1471962E+01 -0.9703006E-02  0.9785442E-01
 -0.6111270E+01  0.9146160E+01 -0.1027320E+00  0.1163269E+00 -0.1472358E+01 -0.1143256E-01  0.1157638E+00
 -0.6978330E+01  0.8503120E+01 -0.1027320E+00  0.1322503E+00 -0.1471880E+01 -0.1306039E-01  0.1316038E+00
 -0.7778170E+01  0.7778170E+01 -0.1027320E+00  0.1474134E+00 -0.1471890E+01 -0.1455636E-01  0.1466929E+00
 -0.8503120E+01  0.6978330E+01 -0.1027320E+00  0.1612162E+00 -0.1471934E+01 -0.1591224E-01  0.1604290E+00
 -0.9146170E+01  0.6111270E+01 -0.1027320E+00  0.1740964E+00 -0.1472359E+01 -0.1710992E-01  0.1732536E+00
 -0.9701130E+01  0.5185360E+01 -0.1027320E+00  0.1838768E+00 -0.1471898E+01 -0.1815548E-01  0.1829783E+00
 -0.1016270E+02  0.4209520E+01 -0.1027320E+00  0.1926057E+00 -0.1471891E+01 -0.1901878E-01  0.1916644E+00
 -0.1052630E+02  0.3193130E+01 -0.1027320E+00  0.1995513E+00 -0.1471919E+01 -0.1969889E-01  0.1985766E+00
 -0.1078860E+02  0.2145990E+01 -0.1027320E+00  0.2053581E+00 -0.1472358E+01 -0.2018245E-01  0.2043639E+00
 -0.1094700E+02  0.1078190E+01 -0.1027320E+00  0.2075099E+00 -0.1471910E+01 -0.2048655E-01  0.2064961E+00
 -0.1100000E+02 -0.9616510E-06 -0.1027320E+00  0.2084738E+00 -0.1471891E+01 -0.2058563E-01  0.2074549E+00
 -0.1094700E+02 -0.1078190E+01 -0.1027320E+00  0.2075095E+00 -0.1471909E+01 -0.2048658E-01  0.2064958E+00
 -0.1078860E+02 -0.2146000E+01 -0.1027320E+00  0.2053574E+00 -0.1472358E+01 -0.2018242E-01  0.2043632E+00
 -0.1052630E+02 -0.3193130E+01 -0.1027320E+00  0.1995498E+00 -0.1471919E+01 -0.1969883E-01  0.1985751E+00
 -0.1016270E+02 -0.4209520E+01 -0.1027320E+00  0.1926039E+00 -0.1471890E+01 -0.1901872E-01  0.1916626E+00
 -0.9701130E+01 -0.5185360E+01 -0.1027320E+00  0.1838748E+00 -0.1471897E+01 -0.1815546E-01  0.1829763E+00
 -0.9146160E+01 -0.6111270E+01 -0.1027320E+00  0.1740939E+00 -0.1472358E+01 -0.1710988E-01  0.1732511E+00
 -0.8503110E+01 -0.6978330E+01 -0.1027320E+00  0.1612136E+00 -0.1471934E+01 -0.1591207E-01  0.1604264E+00
 -0.7778170E+01 -0.7778180E+01 -0.1027320E+00  0.1474108E+00 -0.1471889E+01 -0.1455630E-01  0.1466903E+00
 -0.6978330E+01 -0.8503110E+01 -0.1027320E+00  0.1322478E+00 -0.1471879E+01 -0.1306029E-01  0.1316013E+00
 -0.6111270E+01 -0.9146170E+01 -0.1027320E+00  0.1163250E+00 -0.1472357E+01 -0.1143249E-01  0.1157618E+00
 -0.5185360E+01 -0.9701130E+01 -0.1027320E+00  0.9833204E-01 -0.1471960E+01 -0.9702956E-02  0.9785215E-01
 -0.4209510E+01 -0.1016270E+02 -0.1027320E+00  0.7977781E-01 -0.1471889E+01 -0.7877761E-02  0.7938790E-01
 -0.3193130E+01 -0.1052630E+02 -0.1027320E+00  0.6048627E-01 -0.1471821E+01 -0.5976852E-02  0.6019025E-01
 -0.2145990E+01 -0.1078860E+02 -0.1027320E+00  0.4084791E-01 -0.1472357E+01 -0.4014562E-02  0.4065015E-01
 -0.1078190E+01 -0.1094700E+02 -0.1027320E+00  0.2048152E-01 -0.1472179E+01 -0.2016562E-02  0.2038201E-01
  0.1311740E-06 -0.1100000E+02 -0.1027320E+00  0.5408365E-06  0.1485388E+01 -0.4613571E-07 -0.5388651E-06
  0.1078190E+01 -0.1094700E+02 -0.1027320E+00  0.2048263E-01  0.1669405E+01  0.2016489E-02 -0.2038313E-01
  0.2145990E+01 -0.1078860E+02 -0.1027320E+00  0.4084897E-01  0.1669231E+01  0.4014456E-02 -0.4065123E-01
  0.3193140E+01 -0.1052630E+02 -0.1027320E+00  0.6048743E-01  0.1669767E+01  0.5976709E-02 -0.6019143E-01
  0.4209520E+01 -0.1016270E+02 -0.1027320E+00  0.7977913E-01  0.1669702E+01  0.7877717E-02 -0.7938924E-01
  0.5185360E+01 -0.9701130E+01 -0.1027320E+00  0.9833311E-01  0.1669631E+01  0.9702868E-02 -0.9785324E-01
  0.6111270E+01 -0.9146160E+01 -0.1027320E+00  0.1163259E+00  0.1669233E+01  0.1143227E-01 -0.1157628E+00
  0.6978330E+01 -0.8503110E+01 -0.1027320E+00  0.1322488E+00  0.1669712E+01  0.1306021E-01 -0.1316023E+00
  0.7778180E+01 -0.7778170E+01 -0.1027320E+00  0.1474121E+00  0.1669702E+01  0.1455616E-01 -0.1466917E+00
  0.8503120E+01 -0.6978320E+01 -0.1027320E+00  0.1612148E+00  0.1669658E+01  0.1591201E-01 -0.1604276E+00
  0.9146170E+01 -0.6111270E+01 -0.1027320E+00  0.1740950E+00  0.1669233E+01  0.1710971E-01 -0.1732522E+00
