 VARIABLES="X" "Y" "Z" "abs(eta) (m)" "angle(phi) (rad)" "PRE1" "PRE2"
ZONE N=   3200 ,E =    3136 ,F=FEPOINT,ET=QUADRILATERAL
  0.1010000E+02  0.0000000E+00  0.0000000E+00  0.3367371E+00  0.2073426E+01  0.1622169E+00 -0.2950891E+00
  0.1005140E+02  0.9899730E+00  0.0000000E+00  0.3367181E+00  0.2070467E+01  0.1613340E+00 -0.2955510E+00
  0.9905930E+01  0.1970410E+01  0.0000000E+00  0.3324097E+00  0.2069425E+01  0.1589655E+00 -0.2919351E+00
  0.9665100E+01  0.2931880E+01  0.0000000E+00  0.3239296E+00  0.2070173E+01  0.1551228E+00 -0.2843718E+00
  0.9331180E+01  0.3865100E+01  0.0000000E+00  0.3111038E+00  0.2073426E+01  0.1498685E+00 -0.2726261E+00
  0.8907400E+01  0.4761110E+01  0.0000000E+00  0.2982242E+00  0.2070823E+01  0.1429833E+00 -0.2617125E+00
  0.8397840E+01  0.5611260E+01  0.0000000E+00  0.2818043E+00  0.2069421E+01  0.1347640E+00 -0.2474921E+00
  0.7807410E+01  0.6407370E+01  0.0000000E+00  0.2618372E+00  0.2069770E+01  0.1252956E+00 -0.2299124E+00
  0.7141780E+01  0.7141780E+01  0.0000000E+00  0.2381058E+00  0.2073431E+01  0.1147041E+00 -0.2086560E+00
  0.6407370E+01  0.7807410E+01  0.0000000E+00  0.2143443E+00  0.2071336E+01  0.1028636E+00 -0.1880494E+00
  0.5611260E+01  0.8397840E+01  0.0000000E+00  0.1882923E+00  0.2069429E+01  0.9004612E-01 -0.1653654E+00
  0.4761110E+01  0.8907410E+01  0.0000000E+00  0.1598805E+00  0.2068955E+01  0.7639228E-01 -0.1404493E+00
  0.3865100E+01  0.9331180E+01  0.0000000E+00  0.1288623E+00  0.2073419E+01  0.6207622E-01 -0.1129250E+00
  0.2931870E+01  0.9665100E+01  0.0000000E+00  0.9782307E-01  0.2072959E+01  0.4708439E-01 -0.8574621E-01
  0.1970410E+01  0.9905930E+01  0.0000000E+00  0.6612241E-01  0.2069364E+01  0.3161760E-01 -0.5807324E-01
  0.9899730E+00  0.1005140E+02  0.0000000E+00  0.3358393E-01  0.2062599E+01  0.1585886E-01 -0.2960367E-01
 -0.4414850E-06  0.1010000E+02  0.0000000E+00  0.2466523E-05 -0.1954846E+00 -0.2419545E-05  0.4791023E-06
 -0.9899740E+00  0.1005140E+02  0.0000000E+00  0.3358714E-01 -0.1078887E+01 -0.1586354E-01  0.2960480E-01
 -0.1970410E+01  0.9905930E+01  0.0000000E+00  0.6612571E-01 -0.1072173E+01 -0.3162245E-01  0.5807436E-01
 -0.2931880E+01  0.9665100E+01  0.0000000E+00  0.9782691E-01 -0.1068597E+01 -0.4708942E-01  0.8574784E-01
 -0.3865100E+01  0.9331180E+01  0.0000000E+00  0.1288659E+00 -0.1068147E+01 -0.6208099E-01  0.1129264E+00
 -0.4761110E+01  0.8907400E+01  0.0000000E+00  0.1598838E+00 -0.1072614E+01 -0.7639721E-01  0.1404504E+00
 -0.5611260E+01  0.8397840E+01  0.0000000E+00  0.1882962E+00 -0.1072146E+01 -0.9005090E-01  0.1653672E+00
 -0.6407370E+01  0.7807410E+01  0.0000000E+00  0.2143487E+00 -0.1070241E+01 -0.1028686E+00  0.1880516E+00
 -0.7141780E+01  0.7141780E+01  0.0000000E+00  0.2381104E+00 -0.1068148E+01 -0.1147091E+00  0.2086585E+00
 -0.7807410E+01  0.6407370E+01  0.0000000E+00  0.2618420E+00 -0.1071811E+01 -0.1253005E+00  0.2299152E+00
 -0.8397840E+01  0.5611260E+01  0.0000000E+00  0.2818094E+00 -0.1072162E+01 -0.1347689E+00  0.2474953E+00
 -0.8907410E+01  0.4761110E+01  0.0000000E+00  0.2982304E+00 -0.1070762E+01 -0.1429883E+00  0.2617168E+00
 -0.9331180E+01  0.3865100E+01  0.0000000E+00  0.3111090E+00 -0.1068157E+01 -0.1498735E+00  0.2726293E+00
 -0.9665100E+01  0.2931880E+01  0.0000000E+00  0.3239353E+00 -0.1071412E+01 -0.1551278E+00  0.2843755E+00
 -0.9905930E+01  0.1970410E+01  0.0000000E+00  0.3324153E+00 -0.1072159E+01 -0.1589706E+00  0.2919388E+00
 -0.1005140E+02  0.9899730E+00  0.0000000E+00  0.3367240E+00 -0.1071118E+01 -0.1613390E+00  0.2955551E+00
 -0.1010000E+02 -0.8829700E-06  0.0000000E+00  0.3367433E+00 -0.1068159E+01 -0.1622221E+00  0.2950933E+00
 -0.1005140E+02 -0.9899740E+00  0.0000000E+00  0.3367240E+00 -0.1071119E+01 -0.1613388E+00  0.2955551E+00
 -0.9905930E+01 -0.1970410E+01  0.0000000E+00  0.3324154E+00 -0.1072159E+01 -0.1589708E+00  0.2919388E+00
 -0.9665100E+01 -0.2931880E+01  0.0000000E+00  0.3239352E+00 -0.1071411E+01 -0.1551280E+00  0.2843753E+00
 -0.9331180E+01 -0.3865100E+01  0.0000000E+00  0.3111094E+00 -0.1068158E+01 -0.1498737E+00  0.2726297E+00
 -0.8907400E+01 -0.4761110E+01  0.0000000E+00  0.2982292E+00 -0.1070759E+01 -0.1429884E+00  0.2617155E+00
 -0.8397840E+01 -0.5611260E+01  0.0000000E+00  0.2818091E+00 -0.1072161E+01 -0.1347689E+00  0.2474949E+00
 -0.7807400E+01 -0.6407370E+01  0.0000000E+00  0.2618411E+00 -0.1071809E+01 -0.1253004E+00  0.2299142E+00
 -0.7141780E+01 -0.7141780E+01  0.0000000E+00  0.2381104E+00 -0.1068148E+01 -0.1147092E+00  0.2086585E+00
 -0.6407370E+01 -0.7807410E+01  0.0000000E+00  0.2143486E+00 -0.1070240E+01 -0.1028688E+00  0.1880514E+00
 -0.5611260E+01 -0.8397850E+01  0.0000000E+00  0.1882969E+00 -0.1072147E+01 -0.9005104E-01  0.1653679E+00
 -0.4761110E+01 -0.8907410E+01  0.0000000E+00  0.1598846E+00 -0.1072616E+01 -0.7639731E-01  0.1404511E+00
 -0.3865100E+01 -0.9331190E+01  0.0000000E+00  0.1288665E+00 -0.1068147E+01 -0.6208122E-01  0.1129269E+00
 -0.2931870E+01 -0.9665100E+01  0.0000000E+00  0.9782682E-01 -0.1068596E+01 -0.4708945E-01  0.8574772E-01
 -0.1970410E+01 -0.9905930E+01  0.0000000E+00  0.6612632E-01 -0.1072171E+01 -0.3162283E-01  0.5807484E-01
 -0.9899710E+00 -0.1005140E+02  0.0000000E+00  0.3358768E-01 -0.1078884E+01 -0.1586389E-01  0.2960523E-01
  0.1204410E-06 -0.1010000E+02  0.0000000E+00  0.3080247E-05 -0.4005173E+00 -0.2836475E-05  0.1200972E-05
  0.9899760E+00 -0.1005140E+02  0.0000000E+00  0.3358305E-01  0.2062597E+01  0.1585838E-01 -0.2960292E-01
  0.1970410E+01 -0.9905930E+01  0.0000000E+00  0.6612127E-01  0.2069366E+01  0.3161721E-01 -0.5807215E-01
  0.2931880E+01 -0.9665100E+01  0.0000000E+00  0.9782236E-01  0.2072959E+01  0.4708412E-01 -0.8574555E-01
  0.3865100E+01 -0.9331180E+01  0.0000000E+00  0.1288610E+00  0.2073419E+01  0.6207561E-01 -0.1129238E+00
  0.4761110E+01 -0.8907410E+01  0.0000000E+00  0.1598793E+00  0.2068955E+01  0.7639176E-01 -0.1404482E+00
  0.5611260E+01 -0.8397840E+01  0.0000000E+00  0.1882912E+00  0.2069428E+01  0.9004545E-01 -0.1653645E+00
  0.6407370E+01 -0.7807410E+01  0.0000000E+00  0.2143433E+00  0.2071335E+01  0.1028630E+00 -0.1880485E+00
  0.7141780E+01 -0.7141780E+01  0.0000000E+00  0.2381051E+00  0.2073430E+01  0.1147036E+00 -0.2086555E+00
  0.7807410E+01 -0.6407370E+01  0.0000000E+00  0.2618365E+00  0.2069769E+01  0.1252950E+00 -0.2299119E+00
  0.8397840E+01 -0.5611260E+01  0.0000000E+00  0.2818036E+00  0.2069420E+01  0.1347633E+00 -0.2474916E+00
  0.8907410E+01 -0.4761110E+01  0.0000000E+00  0.2982246E+00  0.2070821E+01  0.1429829E+00 -0.2617132E+00
  0.9331180E+01 -0.3865100E+01  0.0000000E+00  0.3111036E+00  0.2073425E+01  0.1498682E+00 -0.2726260E+00
  0.9665100E+01 -0.2931870E+01  0.0000000E+00  0.3239285E+00  0.2070173E+01  0.1551224E+00 -0.2843707E+00
  0.9905930E+01 -0.1970410E+01  0.0000000E+00  0.3324091E+00  0.2069426E+01  0.1589654E+00 -0.2919345E+00
  0.1005140E+02 -0.9899690E+00  0.0000000E+00  0.3367179E+00  0.2070467E+01  0.1613337E+00 -0.2955510E+00
  0.1010000E+02  0.0000000E+00 -0.2568960E-01  0.3359710E+00  0.2073977E+01  0.1620102E+00 -0.2943284E+00
  0.1005140E+02  0.9899730E+00 -0.2568960E-01  0.3360009E+00  0.2070925E+01  0.1611253E+00 -0.2948479E+00
  0.9905930E+01  0.1970410E+01 -0.2568960E-01  0.3319699E+00  0.2069380E+01  0.1587420E+00 -0.2915561E+00
  0.9665100E+01  0.2931880E+01 -0.2568960E-01  0.3232384E+00  0.2070633E+01  0.1549226E+00 -0.2836936E+00
  0.9331180E+01  0.3865100E+01 -0.2568960E-01  0.3103957E+00  0.2073979E+01  0.1496778E+00 -0.2719228E+00
  0.8907400E+01  0.4761110E+01 -0.2568960E-01  0.2975898E+00  0.2071279E+01  0.1427982E+00 -0.2610908E+00
  0.8397840E+01  0.5611260E+01 -0.2568960E-01  0.2814318E+00  0.2069376E+01  0.1345745E+00 -0.2471711E+00
  0.7807410E+01  0.6407370E+01 -0.2568960E-01  0.2612775E+00  0.2070231E+01  0.1251334E+00 -0.2293633E+00
  0.7141780E+01  0.7141780E+01 -0.2568960E-01  0.2375640E+00  0.2073984E+01  0.1145582E+00 -0.2081179E+00
  0.6407370E+01  0.7807410E+01 -0.2568960E-01  0.2138896E+00  0.2071790E+01  0.1027306E+00 -0.1876038E+00
  0.5611260E+01  0.8397840E+01 -0.2568960E-01  0.1880435E+00  0.2069383E+01  0.8991950E-01 -0.1651510E+00
  0.4761110E+01  0.8907410E+01 -0.2568960E-01  0.1595374E+00  0.2069420E+01  0.7629348E-01 -0.1401124E+00
  0.3865100E+01  0.9331180E+01 -0.2568960E-01  0.1285689E+00  0.2073970E+01  0.6199698E-01 -0.1126337E+00
  0.2931870E+01  0.9665100E+01 -0.2568960E-01  0.9761719E-01  0.2073405E+01  0.4702350E-01 -0.8554476E-01
  0.1970410E+01  0.9905930E+01 -0.2568960E-01  0.6603500E-01  0.2069317E+01  0.3157310E-01 -0.5799793E-01
  0.9899730E+00  0.1005140E+02 -0.2568960E-01  0.3350959E-01  0.2063090E+01  0.1583826E-01 -0.2953037E-01
 -0.4414850E-06  0.1010000E+02 -0.2568960E-01  0.2450018E-05 -0.2016179E+00 -0.2400390E-05  0.4906277E-06
 -0.9899740E+00  0.1005140E+02 -0.2568960E-01  0.3351285E-01 -0.1078394E+01 -0.1584299E-01  0.2953152E-01
 -0.1970410E+01  0.9905930E+01 -0.2568960E-01  0.6603825E-01 -0.1072219E+01 -0.3157794E-01  0.5799900E-01
 -0.2931880E+01  0.9665100E+01 -0.2568960E-01  0.9762105E-01 -0.1068151E+01 -0.4702849E-01  0.8554643E-01
 -0.3865100E+01  0.9331180E+01 -0.2568960E-01  0.1285726E+00 -0.1067595E+01 -0.6200182E-01  0.1126352E+00
 -0.4761110E+01  0.8907400E+01 -0.2568960E-01  0.1595407E+00 -0.1072151E+01 -0.7629820E-01  0.1401136E+00
 -0.5611260E+01  0.8397840E+01 -0.2568960E-01  0.1880473E+00 -0.1072192E+01 -0.8992428E-01  0.1651527E+00
 -0.6407370E+01  0.7807410E+01 -0.2568960E-01  0.2138941E+00 -0.1069788E+01 -0.1027356E+00  0.1876062E+00
 -0.7141780E+01  0.7141780E+01 -0.2568960E-01  0.2375684E+00 -0.1067596E+01 -0.1145630E+00  0.2081203E+00
 -0.7807410E+01  0.6407370E+01 -0.2568960E-01  0.2612820E+00 -0.1071350E+01 -0.1251382E+00  0.2293659E+00
 -0.8397840E+01  0.5611260E+01 -0.2568960E-01  0.2814368E+00 -0.1072207E+01 -0.1345793E+00  0.2471742E+00
 -0.8907410E+01  0.4761110E+01 -0.2568960E-01  0.2975961E+00 -0.1070306E+01 -0.1428033E+00  0.2610951E+00
 -0.9331180E+01  0.3865100E+01 -0.2568960E-01  0.3104009E+00 -0.1067605E+01 -0.1496826E+00  0.2719262E+00
 -0.9665100E+01  0.2931880E+01 -0.2568960E-01  0.3232439E+00 -0.1070952E+01 -0.1549273E+00  0.2836973E+00
 -0.9905930E+01  0.1970410E+01 -0.2568960E-01  0.3319757E+00 -0.1072205E+01 -0.1587470E+00  0.2915600E+00
 -0.1005140E+02  0.9899730E+00 -0.2568960E-01  0.3360069E+00 -0.1070661E+01 -0.1611303E+00  0.2948519E+00
 -0.1010000E+02 -0.8829700E-06 -0.2568960E-01  0.3359773E+00 -0.1067608E+01 -0.1620154E+00  0.2943327E+00
 -0.1005140E+02 -0.9899740E+00 -0.2568960E-01  0.3360068E+00 -0.1070661E+01 -0.1611302E+00  0.2948519E+00
 -0.9905930E+01 -0.1970410E+01 -0.2568960E-01  0.3319755E+00 -0.1072205E+01 -0.1587471E+00  0.2915598E+00
 -0.9665100E+01 -0.2931880E+01 -0.2568960E-01  0.3232442E+00 -0.1070953E+01 -0.1549270E+00  0.2836977E+00
 -0.9331180E+01 -0.3865100E+01 -0.2568960E-01  0.3104013E+00 -0.1067605E+01 -0.1496829E+00  0.2719264E+00
 -0.8907400E+01 -0.4761110E+01 -0.2568960E-01  0.2975950E+00 -0.1070303E+01 -0.1428034E+00  0.2610939E+00
 -0.8397840E+01 -0.5611260E+01 -0.2568960E-01  0.2814366E+00 -0.1072207E+01 -0.1345793E+00  0.2471739E+00
 -0.7807400E+01 -0.6407370E+01 -0.2568960E-01  0.2612813E+00 -0.1071349E+01 -0.1251382E+00  0.2293651E+00
 -0.7141780E+01 -0.7141780E+01 -0.2568960E-01  0.2375684E+00 -0.1067596E+01 -0.1145631E+00  0.2081203E+00
 -0.6407370E+01 -0.7807410E+01 -0.2568960E-01  0.2138942E+00 -0.1069787E+01 -0.1027357E+00  0.1876062E+00
 -0.5611260E+01 -0.8397850E+01 -0.2568960E-01  0.1880479E+00 -0.1072194E+01 -0.8992427E-01  0.1651533E+00
 -0.4761110E+01 -0.8907410E+01 -0.2568960E-01  0.1595412E+00 -0.1072150E+01 -0.7629861E-01  0.1401140E+00
 -0.3865100E+01 -0.9331190E+01 -0.2568960E-01  0.1285731E+00 -0.1067595E+01 -0.6200210E-01  0.1126356E+00
 -0.2931870E+01 -0.9665100E+01 -0.2568960E-01  0.9762093E-01 -0.1068149E+01 -0.4702864E-01  0.8554621E-01
 -0.1970410E+01 -0.9905930E+01 -0.2568960E-01  0.6603879E-01 -0.1072218E+01 -0.3157829E-01  0.5799944E-01
 -0.9899710E+00 -0.1005140E+02 -0.2568960E-01  0.3351346E-01 -0.1078389E+01 -0.1584345E-01  0.2953197E-01
  0.1204410E-06 -0.1010000E+02 -0.2568960E-01  0.3097770E-05 -0.4272143E+00 -0.2819353E-05  0.1283521E-05
  0.9899760E+00 -0.1005140E+02 -0.2568960E-01  0.3350877E-01  0.2063090E+01  0.1583787E-01 -0.2952964E-01
  0.1970410E+01 -0.9905930E+01 -0.2568960E-01  0.6603383E-01  0.2069319E+01  0.3157263E-01 -0.5799686E-01
  0.2931880E+01 -0.9665100E+01 -0.2568960E-01  0.9761652E-01  0.2073406E+01  0.4702321E-01 -0.8554415E-01
  0.3865100E+01 -0.9331180E+01 -0.2568960E-01  0.1285678E+00  0.2073971E+01  0.6199662E-01 -0.1126326E+00
  0.4761110E+01 -0.8907410E+01 -0.2568960E-01  0.1595360E+00  0.2069419E+01  0.7629280E-01 -0.1401112E+00
  0.5611260E+01 -0.8397840E+01 -0.2568960E-01  0.1880423E+00  0.2069382E+01  0.8991887E-01 -0.1651499E+00
  0.6407370E+01 -0.7807410E+01 -0.2568960E-01  0.2138888E+00  0.2071789E+01  0.1027301E+00 -0.1876032E+00
  0.7141780E+01 -0.7141780E+01 -0.2568960E-01  0.2375630E+00  0.2073983E+01  0.1145575E+00 -0.2081171E+00
  0.7807410E+01 -0.6407370E+01 -0.2568960E-01  0.2612768E+00  0.2070230E+01  0.1251330E+00 -0.2293628E+00
  0.8397840E+01 -0.5611260E+01 -0.2568960E-01  0.2814308E+00  0.2069374E+01  0.1345737E+00 -0.2471704E+00
  0.8907410E+01 -0.4761110E+01 -0.2568960E-01  0.2975904E+00  0.2071277E+01  0.1427980E+00 -0.2610915E+00
  0.9331180E+01 -0.3865100E+01 -0.2568960E-01  0.3103954E+00  0.2073978E+01  0.1496774E+00 -0.2719227E+00
  0.9665100E+01 -0.2931870E+01 -0.2568960E-01  0.3232377E+00  0.2070632E+01  0.1549219E+00 -0.2836932E+00
  0.9905930E+01 -0.1970410E+01 -0.2568960E-01  0.3319694E+00  0.2069380E+01  0.1587417E+00 -0.2915557E+00
  0.1005140E+02 -0.9899690E+00 -0.2568960E-01  0.3360007E+00  0.2070924E+01  0.1611249E+00 -0.2948479E+00
  0.1010000E+02  0.0000000E+00 -0.1027320E+00  0.3341687E+00  0.2074789E+01  0.1613787E+00 -0.2926185E+00
  0.1005140E+02  0.9899730E+00 -0.1027320E+00  0.3343454E+00  0.2071463E+01  0.1604892E+00 -0.2933089E+00
  0.9905930E+01  0.1970410E+01 -0.1027320E+00  0.3308706E+00  0.2068906E+01  0.1580786E+00 -0.2906656E+00
  0.9665100E+01  0.2931880E+01 -0.1027320E+00  0.3216402E+00  0.2071180E+01  0.1543109E+00 -0.2822066E+00
  0.9331180E+01  0.3865100E+01 -0.1027320E+00  0.3087310E+00  0.2074791E+01  0.1490946E+00 -0.2703436E+00
  0.8907400E+01  0.4761110E+01 -0.1027320E+00  0.2961295E+00  0.2071807E+01  0.1422346E+00 -0.2597345E+00
  0.8397840E+01  0.5611260E+01 -0.1027320E+00  0.2805000E+00  0.2068902E+01  0.1340122E+00 -0.2464162E+00
  0.7807410E+01  0.6407370E+01 -0.1027320E+00  0.2599792E+00  0.2070792E+01  0.1246398E+00 -0.2281537E+00
  0.7141780E+01  0.7141780E+01 -0.1027320E+00  0.2362897E+00  0.2074795E+01  0.1141115E+00 -0.2069091E+00
  0.6407370E+01  0.7807410E+01 -0.1027320E+00  0.2128472E+00  0.2072301E+01  0.1023254E+00 -0.1866372E+00
  0.5611260E+01  0.8397840E+01 -0.1027320E+00  0.1874206E+00  0.2068910E+01  0.8954377E-01 -0.1646463E+00
  0.4761110E+01  0.8907410E+01 -0.1027320E+00  0.1587367E+00  0.2070007E+01  0.7599247E-01 -0.1393646E+00
  0.3865100E+01  0.9331180E+01 -0.1027320E+00  0.1278792E+00  0.2074783E+01  0.6175547E-01 -0.1119793E+00
  0.2931870E+01  0.9665100E+01 -0.1027320E+00  0.9715101E-01  0.2073863E+01  0.4683794E-01 -0.8511478E-01
  0.1970410E+01  0.9905930E+01 -0.1027320E+00  0.6581616E-01  0.2068847E+01  0.3144131E-01 -0.5782051E-01
  0.9899730E+00  0.1005140E+02 -0.1027320E+00  0.3332876E-01  0.2063877E+01  0.1577589E-01 -0.2935860E-01
 -0.4414850E-06  0.1010000E+02 -0.1027320E+00  0.2426721E-05 -0.2230116E+00 -0.2366625E-05  0.5367121E-06
 -0.9899740E+00  0.1005140E+02 -0.1027320E+00  0.3333186E-01 -0.1077605E+01 -0.1578061E-01  0.2935959E-01
 -0.1970410E+01  0.9905930E+01 -0.1027320E+00  0.6581957E-01 -0.1072691E+01 -0.3144608E-01  0.5782179E-01
 -0.2931880E+01  0.9665100E+01 -0.1027320E+00  0.9715499E-01 -0.1067694E+01 -0.4684290E-01  0.8511660E-01
 -0.3865100E+01  0.9331180E+01 -0.1027320E+00  0.1278828E+00 -0.1066784E+01 -0.6176012E-01  0.1119808E+00
 -0.4761110E+01  0.8907400E+01 -0.1027320E+00  0.1587400E+00 -0.1071562E+01 -0.7599727E-01  0.1393657E+00
 -0.5611260E+01  0.8397840E+01 -0.1027320E+00  0.1874248E+00 -0.1072665E+01 -0.8954866E-01  0.1646484E+00
 -0.6407370E+01  0.7807410E+01 -0.1027320E+00  0.2128514E+00 -0.1069277E+01 -0.1023301E+00  0.1866395E+00
 -0.7141780E+01  0.7141780E+01 -0.1027320E+00  0.2362942E+00 -0.1066784E+01 -0.1141165E+00  0.2069115E+00
 -0.7807410E+01  0.6407370E+01 -0.1027320E+00  0.2599838E+00 -0.1070789E+01 -0.1246446E+00  0.2281563E+00
 -0.8397840E+01  0.5611260E+01 -0.1027320E+00  0.2805049E+00 -0.1072681E+01 -0.1340171E+00  0.2464192E+00
 -0.8907410E+01  0.4761110E+01 -0.1027320E+00  0.2961363E+00 -0.1069779E+01 -0.1422397E+00  0.2597394E+00
 -0.9331180E+01  0.3865100E+01 -0.1027320E+00  0.3087364E+00 -0.1066793E+01 -0.1490995E+00  0.2703470E+00
 -0.9665100E+01  0.2931880E+01 -0.1027320E+00  0.3216456E+00 -0.1070403E+01 -0.1543160E+00  0.2822099E+00
 -0.9905930E+01  0.1970410E+01 -0.1027320E+00  0.3308766E+00 -0.1072678E+01 -0.1580840E+00  0.2906695E+00
 -0.1005140E+02  0.9899730E+00 -0.1027320E+00  0.3343518E+00 -0.1070123E+01 -0.1604944E+00  0.2933132E+00
 -0.1010000E+02 -0.8829700E-06 -0.1027320E+00  0.3341750E+00 -0.1066796E+01 -0.1613840E+00  0.2926228E+00
 -0.1005140E+02 -0.9899740E+00 -0.1027320E+00  0.3343517E+00 -0.1070123E+01 -0.1604944E+00  0.2933132E+00
 -0.9905930E+01 -0.1970410E+01 -0.1027320E+00  0.3308763E+00 -0.1072677E+01 -0.1580840E+00  0.2906692E+00
 -0.9665100E+01 -0.2931880E+01 -0.1027320E+00  0.3216460E+00 -0.1070404E+01 -0.1543161E+00  0.2822104E+00
 -0.9331180E+01 -0.3865100E+01 -0.1027320E+00  0.3087361E+00 -0.1066793E+01 -0.1490994E+00  0.2703468E+00
 -0.8907400E+01 -0.4761110E+01 -0.1027320E+00  0.2961350E+00 -0.1069775E+01 -0.1422400E+00  0.2597378E+00
 -0.8397840E+01 -0.5611260E+01 -0.1027320E+00  0.2805044E+00 -0.1072680E+01 -0.1340171E+00  0.2464186E+00
 -0.7807400E+01 -0.6407370E+01 -0.1027320E+00  0.2599832E+00 -0.1070787E+01 -0.1246447E+00  0.2281556E+00
 -0.7141780E+01 -0.7141780E+01 -0.1027320E+00  0.2362940E+00 -0.1066783E+01 -0.1141167E+00  0.2069112E+00
 -0.6407370E+01 -0.7807410E+01 -0.1027320E+00  0.2128514E+00 -0.1069276E+01 -0.1023302E+00  0.1866394E+00
 -0.5611260E+01 -0.8397850E+01 -0.1027320E+00  0.1874250E+00 -0.1072665E+01 -0.8954877E-01  0.1646486E+00
 -0.4761110E+01 -0.8907410E+01 -0.1027320E+00  0.1587406E+00 -0.1071563E+01 -0.7599743E-01  0.1393663E+00
 -0.3865100E+01 -0.9331190E+01 -0.1027320E+00  0.1278836E+00 -0.1066784E+01 -0.6176047E-01  0.1119815E+00
 -0.2931870E+01 -0.9665100E+01 -0.1027320E+00  0.9715474E-01 -0.1067692E+01 -0.4684292E-01  0.8511630E-01
 -0.1970410E+01 -0.9905930E+01 -0.1027320E+00  0.6582013E-01 -0.1072690E+01 -0.3144639E-01  0.5782226E-01
 -0.9899710E+00 -0.1005140E+02 -0.1027320E+00  0.3333255E-01 -0.1077605E+01 -0.1578095E-01  0.2936019E-01
  0.1204410E-06 -0.1010000E+02 -0.1027320E+00  0.3118340E-05 -0.4345431E+00 -0.2828529E-05  0.1312809E-05
  0.9899760E+00 -0.1005140E+02 -0.1027320E+00  0.3332772E-01  0.2063876E+01  0.1577538E-01 -0.2935770E-01
  0.1970410E+01 -0.9905930E+01 -0.1027320E+00  0.6581517E-01  0.2068847E+01  0.3144083E-01 -0.5781964E-01
  0.2931880E+01 -0.9665100E+01 -0.1027320E+00  0.9715029E-01  0.2073864E+01  0.4683762E-01 -0.8511413E-01
  0.3865100E+01 -0.9331180E+01 -0.1027320E+00  0.1278780E+00  0.2074783E+01  0.6175493E-01 -0.1119782E+00
  0.4761110E+01 -0.8907410E+01 -0.1027320E+00  0.1587355E+00  0.2070007E+01  0.7599182E-01 -0.1393635E+00
  0.5611260E+01 -0.8397840E+01 -0.1027320E+00  0.1874195E+00  0.2068910E+01  0.8954324E-01 -0.1646453E+00
  0.6407370E+01 -0.7807410E+01 -0.1027320E+00  0.2128462E+00  0.2072300E+01  0.1023247E+00 -0.1866364E+00
  0.7141780E+01 -0.7141780E+01 -0.1027320E+00  0.2362887E+00  0.2074794E+01  0.1141110E+00 -0.2069083E+00
  0.7807410E+01 -0.6407370E+01 -0.1027320E+00  0.2599785E+00  0.2070791E+01  0.1246391E+00 -0.2281533E+00
  0.8397840E+01 -0.5611260E+01 -0.1027320E+00  0.2804987E+00  0.2068902E+01  0.1340118E+00 -0.2464151E+00
