 VARIABLES="X" "Y" "Z" "abs(eta) (m)" "angle(phi) (rad)" "PRE1" "PRE2"
ZONE N=   3200 ,E =    3136 ,F=FEPOINT,ET=QUADRILATERAL
  0.1010000E+02  0.0000000E+00  0.0000000E+00  0.5897384E+00 -0.1719544E+01  0.8739933E-01  0.5832261E+00
  0.1005140E+02  0.9899730E+00  0.0000000E+00  0.5872928E+00 -0.1718629E+01  0.8650538E-01  0.5808870E+00
  0.9905930E+01  0.1970410E+01  0.0000000E+00  0.5814884E+00 -0.1716019E+01  0.8414897E-01  0.5753675E+00
  0.9665100E+01  0.2931880E+01  0.0000000E+00  0.5722862E+00 -0.1711745E+01  0.8039615E-01  0.5666109E+00
  0.9331180E+01  0.3865100E+01  0.0000000E+00  0.5598297E+00 -0.1706262E+01  0.7560581E-01  0.5547009E+00
  0.8907400E+01  0.4761110E+01  0.0000000E+00  0.5426989E+00 -0.1699629E+01  0.6972391E-01  0.5382013E+00
  0.8397840E+01  0.5611260E+01  0.0000000E+00  0.5222840E+00 -0.1691976E+01  0.6313563E-01  0.5184540E+00
  0.7807410E+01  0.6407370E+01  0.0000000E+00  0.4986996E+00 -0.1683969E+01  0.5631860E-01  0.4955094E+00
  0.7141780E+01  0.7141780E+01  0.0000000E+00  0.4722683E+00 -0.1676577E+01  0.4986357E-01  0.4696286E+00
  0.6407370E+01  0.7807410E+01  0.0000000E+00  0.4419186E+00 -0.1670616E+01  0.4403896E-01  0.4397188E+00
  0.5611260E+01  0.8397840E+01  0.0000000E+00  0.4087691E+00 -0.1666528E+01  0.3907245E-01  0.4068974E+00
  0.4761110E+01  0.8907410E+01  0.0000000E+00  0.3731869E+00 -0.1666304E+01  0.3558795E-01  0.3714862E+00
  0.3865100E+01  0.9331180E+01  0.0000000E+00  0.3358331E+00 -0.1672354E+01  0.3404796E-01  0.3341027E+00
  0.2931870E+01  0.9665100E+01  0.0000000E+00  0.2963304E+00 -0.1688716E+01  0.3486221E-01  0.2942725E+00
  0.1970410E+01  0.9905930E+01  0.0000000E+00  0.2555616E+00 -0.1719838E+01  0.3794850E-01  0.2527284E+00
  0.9899730E+00  0.1005140E+02  0.0000000E+00  0.2146712E+00 -0.1775648E+01  0.4366891E-01  0.2101827E+00
 -0.4414850E-06  0.1010000E+02  0.0000000E+00  0.1753370E+00 -0.1871818E+01  0.5198677E-01  0.1674528E+00
 -0.9899740E+00  0.1005140E+02  0.0000000E+00  0.1398298E+00 -0.2039302E+01  0.6314063E-01  0.1247623E+00
 -0.1970410E+01  0.9905930E+01  0.0000000E+00  0.1125392E+00 -0.2321471E+01  0.7676665E-01  0.8229186E-01
 -0.2931880E+01  0.9665100E+01  0.0000000E+00  0.1012733E+00 -0.2726371E+01  0.9266780E-01  0.4085293E-01
 -0.3865100E+01  0.9331180E+01  0.0000000E+00  0.1102625E+00 -0.3131114E+01  0.1102565E+00  0.1155349E-02
 -0.4761110E+01  0.8907400E+01  0.0000000E+00  0.1342954E+00  0.2869972E+01  0.1293718E+00 -0.3603055E-01
 -0.5611260E+01  0.8397840E+01  0.0000000E+00  0.1657065E+00  0.2697287E+01  0.1496179E+00 -0.7122577E-01
 -0.6407370E+01  0.7807410E+01  0.0000000E+00  0.1994707E+00  0.2594144E+01  0.1703191E+00 -0.1038266E+00
 -0.7141780E+01  0.7141780E+01  0.0000000E+00  0.2327752E+00  0.2530706E+01  0.1906754E+00 -0.1335185E+00
 -0.7807410E+01  0.6407370E+01  0.0000000E+00  0.2635996E+00  0.2493387E+01  0.2101332E+00 -0.1591502E+00
 -0.8397840E+01  0.5611260E+01  0.0000000E+00  0.2920952E+00  0.2469516E+01  0.2285734E+00 -0.1818621E+00
 -0.8907410E+01  0.4761110E+01  0.0000000E+00  0.3173511E+00  0.2454041E+01  0.2452497E+00 -0.2014058E+00
 -0.9331180E+01  0.3865100E+01  0.0000000E+00  0.3388104E+00  0.2443629E+01  0.2595803E+00 -0.2177396E+00
 -0.9665100E+01  0.2931880E+01  0.0000000E+00  0.3549782E+00  0.2438627E+01  0.2708230E+00 -0.2294873E+00
 -0.9905930E+01  0.1970410E+01  0.0000000E+00  0.3670264E+00  0.2435591E+01  0.2792931E+00 -0.2381255E+00
 -0.1005140E+02  0.9899730E+00  0.0000000E+00  0.3745715E+00  0.2433620E+01  0.2845551E+00 -0.2435819E+00
 -0.1010000E+02 -0.8829700E-06  0.0000000E+00  0.3775876E+00  0.2432333E+01  0.2865301E+00 -0.2459124E+00
 -0.1005140E+02 -0.9899740E+00  0.0000000E+00  0.3745717E+00  0.2433621E+01  0.2845555E+00 -0.2435819E+00
 -0.9905930E+01 -0.1970410E+01  0.0000000E+00  0.3670259E+00  0.2435590E+01  0.2792926E+00 -0.2381253E+00
 -0.9665100E+01 -0.2931880E+01  0.0000000E+00  0.3549778E+00  0.2438627E+01  0.2708227E+00 -0.2294870E+00
 -0.9331180E+01 -0.3865100E+01  0.0000000E+00  0.3388106E+00  0.2443629E+01  0.2595806E+00 -0.2177397E+00
 -0.8907400E+01 -0.4761110E+01  0.0000000E+00  0.3173516E+00  0.2454041E+01  0.2452501E+00 -0.2014062E+00
 -0.8397840E+01 -0.5611260E+01  0.0000000E+00  0.2920953E+00  0.2469515E+01  0.2285733E+00 -0.1818623E+00
 -0.7807400E+01 -0.6407370E+01  0.0000000E+00  0.2636001E+00  0.2493387E+01  0.2101337E+00 -0.1591504E+00
 -0.7141780E+01 -0.7141780E+01  0.0000000E+00  0.2327753E+00  0.2530706E+01  0.1906755E+00 -0.1335184E+00
 -0.6407370E+01 -0.7807410E+01  0.0000000E+00  0.1994706E+00  0.2594142E+01  0.1703188E+00 -0.1038269E+00
 -0.5611260E+01 -0.8397850E+01  0.0000000E+00  0.1657062E+00  0.2697288E+01  0.1496177E+00 -0.7122551E-01
 -0.4761110E+01 -0.8907410E+01  0.0000000E+00  0.1342957E+00  0.2869973E+01  0.1293721E+00 -0.3603043E-01
 -0.3865100E+01 -0.9331190E+01  0.0000000E+00  0.1102626E+00 -0.3131112E+01  0.1102566E+00  0.1155584E-02
 -0.2931870E+01 -0.9665100E+01  0.0000000E+00  0.1012736E+00 -0.2726370E+01  0.9266803E-01  0.4085310E-01
 -0.1970410E+01 -0.9905930E+01  0.0000000E+00  0.1125391E+00 -0.2321473E+01  0.7676669E-01  0.8229170E-01
 -0.9899710E+00 -0.1005140E+02  0.0000000E+00  0.1398299E+00 -0.2039304E+01  0.6314093E-01  0.1247622E+00
  0.1204410E-06 -0.1010000E+02  0.0000000E+00  0.1753369E+00 -0.1871821E+01  0.5198712E-01  0.1674526E+00
  0.9899760E+00 -0.1005140E+02  0.0000000E+00  0.2146711E+00 -0.1775650E+01  0.4366925E-01  0.2101825E+00
  0.1970410E+01 -0.9905930E+01  0.0000000E+00  0.2555617E+00 -0.1719839E+01  0.3794867E-01  0.2527285E+00
  0.2931880E+01 -0.9665100E+01  0.0000000E+00  0.2963306E+00 -0.1688716E+01  0.3486231E-01  0.2942728E+00
  0.3865100E+01 -0.9331180E+01  0.0000000E+00  0.3358337E+00 -0.1672355E+01  0.3404810E-01  0.3341033E+00
  0.4761110E+01 -0.8907410E+01  0.0000000E+00  0.3731866E+00 -0.1666304E+01  0.3558816E-01  0.3714859E+00
  0.5611260E+01 -0.8397840E+01  0.0000000E+00  0.4087688E+00 -0.1666528E+01  0.3907254E-01  0.4068971E+00
  0.6407370E+01 -0.7807410E+01  0.0000000E+00  0.4419187E+00 -0.1670616E+01  0.4403911E-01  0.4397189E+00
  0.7141780E+01 -0.7141780E+01  0.0000000E+00  0.4722678E+00 -0.1676577E+01  0.4986360E-01  0.4696280E+00
  0.7807410E+01 -0.6407370E+01  0.0000000E+00  0.4986992E+00 -0.1683969E+01  0.5631892E-01  0.4955089E+00
  0.8397840E+01 -0.5611260E+01  0.0000000E+00  0.5222843E+00 -0.1691977E+01  0.6313576E-01  0.5184543E+00
  0.8907410E+01 -0.4761110E+01  0.0000000E+00  0.5426981E+00 -0.1699629E+01  0.6972403E-01  0.5382005E+00
  0.9331180E+01 -0.3865100E+01  0.0000000E+00  0.5598298E+00 -0.1706262E+01  0.7560574E-01  0.5547010E+00
  0.9665100E+01 -0.2931870E+01  0.0000000E+00  0.5722867E+00 -0.1711745E+01  0.8039638E-01  0.5666114E+00
  0.9905930E+01 -0.1970410E+01  0.0000000E+00  0.5814882E+00 -0.1716019E+01  0.8414879E-01  0.5753673E+00
  0.1005140E+02 -0.9899690E+00  0.0000000E+00  0.5872925E+00 -0.1718630E+01  0.8650547E-01  0.5808866E+00
  0.1010000E+02  0.0000000E+00 -0.2568960E-01  0.5890208E+00 -0.1719587E+01  0.8731805E-01  0.5825127E+00
  0.1005140E+02  0.9899730E+00 -0.2568960E-01  0.5865595E+00 -0.1718669E+01  0.8642029E-01  0.5801582E+00
  0.9905930E+01  0.1970410E+01 -0.2568960E-01  0.5806614E+00 -0.1716042E+01  0.8404212E-01  0.5745473E+00
  0.9665100E+01  0.2931880E+01 -0.2568960E-01  0.5715723E+00 -0.1711782E+01  0.8031660E-01  0.5659012E+00
  0.9331180E+01  0.3865100E+01 -0.2568960E-01  0.5591482E+00 -0.1706297E+01  0.7553350E-01  0.5540229E+00
  0.8907400E+01  0.4761110E+01 -0.2568960E-01  0.5420200E+00 -0.1699660E+01  0.6965333E-01  0.5375260E+00
  0.8397840E+01  0.5611260E+01 -0.2568960E-01  0.5215426E+00 -0.1692007E+01  0.6306186E-01  0.5177161E+00
  0.7807410E+01  0.6407370E+01 -0.2568960E-01  0.4980745E+00 -0.1683992E+01  0.5625968E-01  0.4948869E+00
  0.7141780E+01  0.7141780E+01 -0.2568960E-01  0.4716887E+00 -0.1676590E+01  0.4980877E-01  0.4690515E+00
  0.6407370E+01  0.7807410E+01 -0.2568960E-01  0.4413623E+00 -0.1670628E+01  0.4398867E-01  0.4391647E+00
  0.5611260E+01  0.8397840E+01 -0.2568960E-01  0.4081912E+00 -0.1666578E+01  0.3903738E-01  0.4063202E+00
  0.4761110E+01  0.8907410E+01 -0.2568960E-01  0.3727120E+00 -0.1666304E+01  0.3554263E-01  0.3710134E+00
  0.3865100E+01  0.9331180E+01 -0.2568960E-01  0.3354100E+00 -0.1672333E+01  0.3399780E-01  0.3336825E+00
  0.2931870E+01  0.9665100E+01 -0.2568960E-01  0.2959462E+00 -0.1688700E+01  0.3481250E-01  0.2938916E+00
  0.1970410E+01  0.9905930E+01 -0.2568960E-01  0.2552080E+00 -0.1719929E+01  0.3791894E-01  0.2523752E+00
  0.9899730E+00  0.1005140E+02 -0.2568960E-01  0.2143826E+00 -0.1775626E+01  0.4360549E-01  0.2099011E+00
 -0.4414850E-06  0.1010000E+02 -0.2568960E-01  0.1750926E+00 -0.1871777E+01  0.5190744E-01  0.1672215E+00
 -0.9899740E+00  0.1005140E+02 -0.2568960E-01  0.1396287E+00 -0.2039321E+01  0.6305219E-01  0.1245816E+00
 -0.1970410E+01  0.9905930E+01 -0.2568960E-01  0.1124042E+00 -0.2321569E+01  0.7668258E-01  0.8218564E-01
 -0.2931880E+01  0.9665100E+01 -0.2568960E-01  0.1011270E+00 -0.2726614E+01  0.9254385E-01  0.4077141E-01
 -0.3865100E+01  0.9331180E+01 -0.2568960E-01  0.1101151E+00 -0.3131487E+01  0.1101095E+00  0.1112717E-02
 -0.4761110E+01  0.8907400E+01 -0.2568960E-01  0.1341328E+00  0.2869709E+01  0.1292057E+00 -0.3602080E-01
 -0.5611260E+01  0.8397840E+01 -0.2568960E-01  0.1654851E+00  0.2697428E+01  0.1494280E+00 -0.7110954E-01
 -0.6407370E+01  0.7807410E+01 -0.2568960E-01  0.1992410E+00  0.2593975E+01  0.1701055E+00 -0.1037357E+00
 -0.7141780E+01  0.7141780E+01 -0.2568960E-01  0.2325191E+00  0.2530530E+01  0.1904422E+00 -0.1334051E+00
 -0.7807410E+01  0.6407370E+01 -0.2568960E-01  0.2632989E+00  0.2493277E+01  0.2098761E+00 -0.1589917E+00
 -0.8397840E+01  0.5611260E+01 -0.2568960E-01  0.2916839E+00  0.2469604E+01  0.2282675E+00 -0.1815858E+00
 -0.8907410E+01  0.4761110E+01 -0.2568960E-01  0.3169888E+00  0.2453961E+01  0.2449535E+00 -0.2011956E+00
 -0.9331180E+01  0.3865100E+01 -0.2568960E-01  0.3384389E+00  0.2443531E+01  0.2592744E+00 -0.2175262E+00
 -0.9665100E+01  0.2931880E+01 -0.2568960E-01  0.3545712E+00  0.2438564E+01  0.2704981E+00 -0.2292412E+00
 -0.9905930E+01  0.1970410E+01 -0.2568960E-01  0.3665048E+00  0.2435660E+01  0.2789127E+00 -0.2377677E+00
 -0.1005140E+02  0.9899730E+00 -0.2568960E-01  0.3741419E+00  0.2433563E+01  0.2842149E+00 -0.2433188E+00
 -0.1010000E+02 -0.8829700E-06 -0.2568960E-01  0.3771726E+00  0.2432256E+01  0.2861963E+00 -0.2456642E+00
 -0.1005140E+02 -0.9899740E+00 -0.2568960E-01  0.3741421E+00  0.2433564E+01  0.2842153E+00 -0.2433187E+00
 -0.9905930E+01 -0.1970410E+01 -0.2568960E-01  0.3665045E+00  0.2435660E+01  0.2789124E+00 -0.2377675E+00
 -0.9665100E+01 -0.2931880E+01 -0.2568960E-01  0.3545705E+00  0.2438563E+01  0.2704973E+00 -0.2292411E+00
 -0.9331180E+01 -0.3865100E+01 -0.2568960E-01  0.3384390E+00  0.2443532E+01  0.2592748E+00 -0.2175259E+00
 -0.8907400E+01 -0.4761110E+01 -0.2568960E-01  0.3169890E+00  0.2453960E+01  0.2449536E+00 -0.2011959E+00
 -0.8397840E+01 -0.5611260E+01 -0.2568960E-01  0.2916839E+00  0.2469603E+01  0.2282674E+00 -0.1815861E+00
 -0.7807400E+01 -0.6407370E+01 -0.2568960E-01  0.2632991E+00  0.2493277E+01  0.2098763E+00 -0.1589918E+00
 -0.7141780E+01 -0.7141780E+01 -0.2568960E-01  0.2325191E+00  0.2530530E+01  0.1904421E+00 -0.1334051E+00
 -0.6407370E+01 -0.7807410E+01 -0.2568960E-01  0.1992411E+00  0.2593976E+01  0.1701056E+00 -0.1037357E+00
 -0.5611260E+01 -0.8397850E+01 -0.2568960E-01  0.1654847E+00  0.2697428E+01  0.1494277E+00 -0.7110935E-01
 -0.4761110E+01 -0.8907410E+01 -0.2568960E-01  0.1341328E+00  0.2869710E+01  0.1292057E+00 -0.3602073E-01
 -0.3865100E+01 -0.9331190E+01 -0.2568960E-01  0.1101153E+00 -0.3131486E+01  0.1101097E+00  0.1112829E-02
 -0.2931870E+01 -0.9665100E+01 -0.2568960E-01  0.1011270E+00 -0.2726612E+01  0.9254380E-01  0.4077157E-01
 -0.1970410E+01 -0.9905930E+01 -0.2568960E-01  0.1124041E+00 -0.2321570E+01  0.7668264E-01  0.8218552E-01
 -0.9899710E+00 -0.1005140E+02 -0.2568960E-01  0.1396284E+00 -0.2039321E+01  0.6305211E-01  0.1245814E+00
  0.1204410E-06 -0.1010000E+02 -0.2568960E-01  0.1750924E+00 -0.1871778E+01  0.5190757E-01  0.1672212E+00
  0.9899760E+00 -0.1005140E+02 -0.2568960E-01  0.2143828E+00 -0.1775626E+01  0.4360548E-01  0.2099013E+00
  0.1970410E+01 -0.9905930E+01 -0.2568960E-01  0.2552080E+00 -0.1719930E+01  0.3791908E-01  0.2523753E+00
  0.2931880E+01 -0.9665100E+01 -0.2568960E-01  0.2959463E+00 -0.1688701E+01  0.3481269E-01  0.2938916E+00
  0.3865100E+01 -0.9331180E+01 -0.2568960E-01  0.3354104E+00 -0.1672333E+01  0.3399814E-01  0.3336829E+00
  0.4761110E+01 -0.8907410E+01 -0.2568960E-01  0.3727119E+00 -0.1666304E+01  0.3554260E-01  0.3710133E+00
  0.5611260E+01 -0.8397840E+01 -0.2568960E-01  0.4081918E+00 -0.1666578E+01  0.3903767E-01  0.4063208E+00
  0.6407370E+01 -0.7807410E+01 -0.2568960E-01  0.4413619E+00 -0.1670628E+01  0.4398884E-01  0.4391644E+00
  0.7141780E+01 -0.7141780E+01 -0.2568960E-01  0.4716886E+00 -0.1676591E+01  0.4980896E-01  0.4690514E+00
  0.7807410E+01 -0.6407370E+01 -0.2568960E-01  0.4980737E+00 -0.1683992E+01  0.5625967E-01  0.4948861E+00
  0.8397840E+01 -0.5611260E+01 -0.2568960E-01  0.5215427E+00 -0.1692007E+01  0.6306205E-01  0.5177161E+00
  0.8907410E+01 -0.4761110E+01 -0.2568960E-01  0.5420196E+00 -0.1699660E+01  0.6965330E-01  0.5375255E+00
  0.9331180E+01 -0.3865100E+01 -0.2568960E-01  0.5591475E+00 -0.1706297E+01  0.7553337E-01  0.5540222E+00
  0.9665100E+01 -0.2931870E+01 -0.2568960E-01  0.5715717E+00 -0.1711782E+01  0.8031679E-01  0.5659006E+00
  0.9905930E+01 -0.1970410E+01 -0.2568960E-01  0.5806608E+00 -0.1716042E+01  0.8404212E-01  0.5745466E+00
  0.1005140E+02 -0.9899690E+00 -0.2568960E-01  0.5865598E+00 -0.1718669E+01  0.8642027E-01  0.5801585E+00
  0.1010000E+02  0.0000000E+00 -0.1027320E+00  0.5868021E+00 -0.1719699E+01  0.8705375E-01  0.5803088E+00
  0.1005140E+02  0.9899730E+00 -0.1027320E+00  0.5843062E+00 -0.1718769E+01  0.8614602E-01  0.5779210E+00
  0.9905930E+01  0.1970410E+01 -0.1027320E+00  0.5782227E+00 -0.1716107E+01  0.8372661E-01  0.5721288E+00
  0.9665100E+01  0.2931880E+01 -0.1027320E+00  0.5693753E+00 -0.1711876E+01  0.8006112E-01  0.5637184E+00
  0.9331180E+01  0.3865100E+01 -0.1027320E+00  0.5570396E+00 -0.1706391E+01  0.7530054E-01  0.5519266E+00
  0.8907400E+01  0.4761110E+01 -0.1027320E+00  0.5399352E+00 -0.1699739E+01  0.6942809E-01  0.5354528E+00
  0.8397840E+01  0.5611260E+01 -0.1027320E+00  0.5193543E+00 -0.1692087E+01  0.6283834E-01  0.5155388E+00
  0.7807410E+01  0.6407370E+01 -0.1027320E+00  0.4961544E+00 -0.1684057E+01  0.5607468E-01  0.4929755E+00
  0.7141780E+01  0.7141780E+01 -0.1027320E+00  0.4699012E+00 -0.1676633E+01  0.4964019E-01  0.4672718E+00
  0.6407370E+01  0.7807410E+01 -0.1027320E+00  0.4396548E+00 -0.1670665E+01  0.4383474E-01  0.4374641E+00
  0.5611260E+01  0.8397840E+01 -0.1027320E+00  0.4064848E+00 -0.1666694E+01  0.3892116E-01  0.4046172E+00
  0.4761110E+01  0.8907410E+01 -0.1027320E+00  0.3712612E+00 -0.1666317E+01  0.3540922E-01  0.3695688E+00
  0.3865100E+01  0.9331180E+01 -0.1027320E+00  0.3341157E+00 -0.1672294E+01  0.3385360E-01  0.3323962E+00
  0.2931870E+01  0.9665100E+01 -0.1027320E+00  0.2947789E+00 -0.1688681E+01  0.3466934E-01  0.2927330E+00
  0.1970410E+01  0.9905930E+01 -0.1027320E+00  0.2541557E+00 -0.1720128E+01  0.3781269E-01  0.2513272E+00
  0.9899730E+00  0.1005140E+02 -0.1027320E+00  0.2135175E+00 -0.1775591E+01  0.4342224E-01  0.2090556E+00
 -0.4414850E-06  0.1010000E+02 -0.1027320E+00  0.1743662E+00 -0.1871691E+01  0.5167768E-01  0.1665323E+00
 -0.9899740E+00  0.1005140E+02 -0.1027320E+00  0.1390372E+00 -0.2039382E+01  0.6279263E-01  0.1240501E+00
 -0.1970410E+01  0.9905930E+01 -0.1027320E+00  0.1119854E+00 -0.2321793E+01  0.7641520E-01  0.8186232E-01
 -0.2931880E+01  0.9665100E+01 -0.1027320E+00  0.1007000E+00 -0.2727122E+01  0.9217370E-01  0.4055247E-01
 -0.3865100E+01  0.9331180E+01 -0.1027320E+00  0.1096749E+00 -0.3132290E+01  0.1096701E+00  0.1020284E-02
 -0.4761110E+01  0.8907400E+01 -0.1027320E+00  0.1336323E+00  0.2869177E+01  0.1287044E+00 -0.3595489E-01
 -0.5611260E+01  0.8397840E+01 -0.1027320E+00  0.1648235E+00  0.2697731E+01  0.1488521E+00 -0.7078017E-01
 -0.6407370E+01  0.7807410E+01 -0.1027320E+00  0.1985196E+00  0.2593649E+01  0.1694559E+00 -0.1034154E+00
 -0.7141780E+01  0.7141780E+01 -0.1027320E+00  0.2317058E+00  0.2530166E+01  0.1897277E+00 -0.1330075E+00
 -0.7807410E+01  0.6407370E+01 -0.1027320E+00  0.2623513E+00  0.2493069E+01  0.2090879E+00 -0.1584628E+00
 -0.8397840E+01  0.5611260E+01 -0.1027320E+00  0.2904739E+00  0.2469805E+01  0.2273570E+00 -0.1807869E+00
 -0.8907410E+01  0.4761110E+01 -0.1027320E+00  0.3158443E+00  0.2453810E+01  0.2440388E+00 -0.2005061E+00
 -0.9331180E+01  0.3865100E+01 -0.1027320E+00  0.3372576E+00  0.2443342E+01  0.2583286E+00 -0.2168156E+00
 -0.9665100E+01  0.2931880E+01 -0.1027320E+00  0.3532903E+00  0.2438450E+01  0.2694948E+00 -0.2284438E+00
 -0.9905930E+01  0.1970410E+01 -0.1027320E+00  0.3649741E+00  0.2435821E+01  0.2777857E+00 -0.2367301E+00
 -0.1005140E+02  0.9899730E+00 -0.1027320E+00  0.3727899E+00  0.2433464E+01  0.2831639E+00 -0.2424675E+00
 -0.1010000E+02 -0.8829700E-06 -0.1027320E+00  0.3758544E+00  0.2432108E+01  0.2851599E+00 -0.2448477E+00
 -0.1005140E+02 -0.9899740E+00 -0.1027320E+00  0.3727891E+00  0.2433463E+01  0.2831630E+00 -0.2424673E+00
 -0.9905930E+01 -0.1970410E+01 -0.1027320E+00  0.3649741E+00  0.2435822E+01  0.2777860E+00 -0.2367299E+00
 -0.9665100E+01 -0.2931880E+01 -0.1027320E+00  0.3532904E+00  0.2438451E+01  0.2694950E+00 -0.2284438E+00
 -0.9331180E+01 -0.3865100E+01 -0.1027320E+00  0.3372578E+00  0.2443343E+01  0.2583288E+00 -0.2168157E+00
 -0.8907400E+01 -0.4761110E+01 -0.1027320E+00  0.3158449E+00  0.2453810E+01  0.2440393E+00 -0.2005064E+00
 -0.8397840E+01 -0.5611260E+01 -0.1027320E+00  0.2904737E+00  0.2469803E+01  0.2273564E+00 -0.1807873E+00
 -0.7807400E+01 -0.6407370E+01 -0.1027320E+00  0.2623513E+00  0.2493069E+01  0.2090878E+00 -0.1584628E+00
 -0.7141780E+01 -0.7141780E+01 -0.1027320E+00  0.2317058E+00  0.2530166E+01  0.1897277E+00 -0.1330075E+00
 -0.6407370E+01 -0.7807410E+01 -0.1027320E+00  0.1985196E+00  0.2593649E+01  0.1694559E+00 -0.1034154E+00
 -0.5611260E+01 -0.8397850E+01 -0.1027320E+00  0.1648234E+00  0.2697733E+01  0.1488522E+00 -0.7077986E-01
 -0.4761110E+01 -0.8907410E+01 -0.1027320E+00  0.1336323E+00  0.2869178E+01  0.1287045E+00 -0.3595477E-01
 -0.3865100E+01 -0.9331190E+01 -0.1027320E+00  0.1096747E+00 -0.3132287E+01  0.1096700E+00  0.1020554E-02
 -0.2931870E+01 -0.9665100E+01 -0.1027320E+00  0.1007000E+00 -0.2727120E+01  0.9217366E-01  0.4055261E-01
 -0.1970410E+01 -0.9905930E+01 -0.1027320E+00  0.1119853E+00 -0.2321793E+01  0.7641515E-01  0.8186225E-01
 -0.9899710E+00 -0.1005140E+02 -0.1027320E+00  0.1390374E+00 -0.2039383E+01  0.6279283E-01  0.1240502E+00
  0.1204410E-06 -0.1010000E+02 -0.1027320E+00  0.1743664E+00 -0.1871693E+01  0.5167817E-01  0.1665323E+00
  0.9899760E+00 -0.1005140E+02 -0.1027320E+00  0.2135176E+00 -0.1775592E+01  0.4342236E-01  0.2090556E+00
  0.1970410E+01 -0.9905930E+01 -0.1027320E+00  0.2541556E+00 -0.1720129E+01  0.3781291E-01  0.2513270E+00
  0.2931880E+01 -0.9665100E+01 -0.1027320E+00  0.2947792E+00 -0.1688681E+01  0.3466957E-01  0.2927333E+00
  0.3865100E+01 -0.9331180E+01 -0.1027320E+00  0.3341156E+00 -0.1672294E+01  0.3385391E-01  0.3323961E+00
  0.4761110E+01 -0.8907410E+01 -0.1027320E+00  0.3712611E+00 -0.1666318E+01  0.3540954E-01  0.3695686E+00
  0.5611260E+01 -0.8397840E+01 -0.1027320E+00  0.4064848E+00 -0.1666694E+01  0.3892126E-01  0.4046172E+00
  0.6407370E+01 -0.7807410E+01 -0.1027320E+00  0.4396543E+00 -0.1670666E+01  0.4383498E-01  0.4374636E+00
  0.7141780E+01 -0.7141780E+01 -0.1027320E+00  0.4699008E+00 -0.1676634E+01  0.4964033E-01  0.4672714E+00
  0.7807410E+01 -0.6407370E+01 -0.1027320E+00  0.4961541E+00 -0.1684057E+01  0.5607476E-01  0.4929752E+00
  0.8397840E+01 -0.5611260E+01 -0.1027320E+00  0.5193544E+00 -0.1692087E+01  0.6283846E-01  0.5155389E+00
