 VARIABLES="X" "Y" "Z" "abs(eta) (m)" "angle(phi) (rad)" "PRE1" "PRE2"
ZONE N=   3200 ,E =    3136 ,F=FEPOINT,ET=QUADRILATERAL
  0.1100000E+02  0.0000000E+00  0.0000000E+00  0.5218344E+00 -0.1564381E+01 -0.3347494E-02  0.5218236E+00
  0.1094700E+02  0.1078190E+01  0.0000000E+00  0.4917868E+00 -0.1556361E+01 -0.7098620E-02  0.4917356E+00
  0.1078860E+02  0.2145990E+01  0.0000000E+00  0.4586076E+00 -0.1550800E+01 -0.9170042E-02  0.4585159E+00
  0.1052630E+02  0.3193130E+01  0.0000000E+00  0.4220798E+00 -0.1549148E+01 -0.9136463E-02  0.4219809E+00
  0.1016270E+02  0.4209520E+01  0.0000000E+00  0.3826734E+00 -0.1553317E+01 -0.6688545E-02  0.3826149E+00
  0.9701130E+01  0.5185360E+01  0.0000000E+00  0.3414536E+00 -0.1566063E+01 -0.1616228E-02  0.3414498E+00
  0.9146170E+01  0.6111270E+01  0.0000000E+00  0.2988650E+00 -0.1593013E+01  0.6639370E-02  0.2987913E+00
  0.8503110E+01  0.6978330E+01  0.0000000E+00  0.2555440E+00 -0.1642519E+01  0.1831256E-01  0.2548870E+00
  0.7778170E+01  0.7778170E+01  0.0000000E+00  0.2128363E+00 -0.1728076E+01  0.3333702E-01  0.2102092E+00
  0.6978330E+01  0.8503110E+01  0.0000000E+00  0.1733494E+00 -0.1871354E+01  0.5132067E-01  0.1655784E+00
  0.6111270E+01  0.9146170E+01  0.0000000E+00  0.1416806E+00 -0.2106066E+01  0.7226742E-01  0.1218640E+00
  0.5185360E+01  0.9701130E+01  0.0000000E+00  0.1246592E+00 -0.2449288E+01  0.9595983E-01  0.7957158E-01
  0.4209520E+01  0.1016270E+02  0.0000000E+00  0.1280001E+00 -0.2832849E+01  0.1219478E+00  0.3889440E-01
  0.3193130E+01  0.1052630E+02  0.0000000E+00  0.1494256E+00 -0.3141121E+01  0.1494256E+00  0.7041013E-04
  0.2145990E+01  0.1078860E+02  0.0000000E+00  0.1812923E+00  0.2942588E+01  0.1777143E+00 -0.3584030E-01
  0.1078190E+01  0.1094700E+02  0.0000000E+00  0.2172240E+00  0.2821544E+01  0.2061934E+00 -0.6834134E-01
 -0.4808250E-06  0.1100000E+02  0.0000000E+00  0.2538698E+00  0.2746639E+01  0.2343255E+00 -0.9768022E-01
 -0.1078190E+01  0.1094700E+02  0.0000000E+00  0.2894559E+00  0.2697729E+01  0.2614074E+00 -0.1243015E+00
 -0.2145990E+01  0.1078860E+02  0.0000000E+00  0.3219931E+00  0.2666757E+01  0.2863704E+00 -0.1472127E+00
 -0.3193130E+01  0.1052630E+02  0.0000000E+00  0.3503288E+00  0.2647900E+01  0.3084957E+00 -0.1660140E+00
 -0.4209520E+01  0.1016270E+02  0.0000000E+00  0.3743047E+00  0.2636144E+01  0.3275007E+00 -0.1812383E+00
 -0.5185370E+01  0.9701130E+01  0.0000000E+00  0.3941508E+00  0.2627680E+01  0.3432375E+00 -0.1937598E+00
 -0.6111270E+01  0.9146160E+01  0.0000000E+00  0.4085165E+00  0.2622566E+01  0.3547160E+00 -0.2026384E+00
 -0.6978330E+01  0.8503120E+01  0.0000000E+00  0.4167168E+00  0.2620531E+01  0.3614148E+00 -0.2074421E+00
 -0.7778170E+01  0.7778170E+01  0.0000000E+00  0.4191449E+00  0.2620327E+01  0.3634780E+00 -0.2087252E+00
 -0.8503120E+01  0.6978330E+01  0.0000000E+00  0.4167171E+00  0.2620531E+01  0.3614151E+00 -0.2074423E+00
 -0.9146170E+01  0.6111270E+01  0.0000000E+00  0.4085157E+00  0.2622568E+01  0.3547155E+00 -0.2026376E+00
 -0.9701130E+01  0.5185360E+01  0.0000000E+00  0.3941506E+00  0.2627680E+01  0.3432372E+00 -0.1937599E+00
 -0.1016270E+02  0.4209520E+01  0.0000000E+00  0.3743044E+00  0.2636144E+01  0.3275004E+00 -0.1812380E+00
 -0.1052630E+02  0.3193130E+01  0.0000000E+00  0.3503282E+00  0.2647899E+01  0.3084950E+00 -0.1660143E+00
 -0.1078860E+02  0.2145990E+01  0.0000000E+00  0.3219927E+00  0.2666755E+01  0.2863697E+00 -0.1472130E+00
 -0.1094700E+02  0.1078190E+01  0.0000000E+00  0.2894550E+00  0.2697729E+01  0.2614065E+00 -0.1243013E+00
 -0.1100000E+02 -0.9616510E-06  0.0000000E+00  0.2538694E+00  0.2746639E+01  0.2343251E+00 -0.9768028E-01
 -0.1094700E+02 -0.1078190E+01  0.0000000E+00  0.2172238E+00  0.2821544E+01  0.2061932E+00 -0.6834128E-01
 -0.1078860E+02 -0.2146000E+01  0.0000000E+00  0.1812921E+00  0.2942591E+01  0.1777142E+00 -0.3583968E-01
 -0.1052630E+02 -0.3193130E+01  0.0000000E+00  0.1494259E+00 -0.3141120E+01  0.1494259E+00  0.7057606E-04
 -0.1016270E+02 -0.4209520E+01  0.0000000E+00  0.1279999E+00 -0.2832848E+01  0.1219475E+00  0.3889444E-01
 -0.9701130E+01 -0.5185360E+01  0.0000000E+00  0.1246592E+00 -0.2449286E+01  0.9595961E-01  0.7957179E-01
 -0.9146160E+01 -0.6111270E+01  0.0000000E+00  0.1416808E+00 -0.2106067E+01  0.7226764E-01  0.1218640E+00
 -0.8503110E+01 -0.6978330E+01  0.0000000E+00  0.1733495E+00 -0.1871353E+01  0.5132043E-01  0.1655786E+00
 -0.7778170E+01 -0.7778180E+01  0.0000000E+00  0.2128366E+00 -0.1728075E+01  0.3333687E-01  0.2102096E+00
 -0.6978330E+01 -0.8503110E+01  0.0000000E+00  0.2555441E+00 -0.1642519E+01  0.1831259E-01  0.2548871E+00
 -0.6111270E+01 -0.9146170E+01  0.0000000E+00  0.2988653E+00 -0.1593013E+01  0.6639250E-02  0.2987915E+00
 -0.5185360E+01 -0.9701130E+01  0.0000000E+00  0.3414535E+00 -0.1566063E+01 -0.1616291E-02  0.3414496E+00
 -0.4209510E+01 -0.1016270E+02  0.0000000E+00  0.3826740E+00 -0.1553317E+01 -0.6688592E-02  0.3826156E+00
 -0.3193130E+01 -0.1052630E+02  0.0000000E+00  0.4220804E+00 -0.1549148E+01 -0.9136415E-02  0.4219815E+00
 -0.2145990E+01 -0.1078860E+02  0.0000000E+00  0.4586072E+00 -0.1550800E+01 -0.9169821E-02  0.4585155E+00
 -0.1078190E+01 -0.1094700E+02  0.0000000E+00  0.4917866E+00 -0.1556362E+01 -0.7098504E-02  0.4917354E+00
  0.1311740E-06 -0.1100000E+02  0.0000000E+00  0.5218347E+00 -0.1564382E+01 -0.3347388E-02  0.5218240E+00
  0.1078190E+01 -0.1094700E+02  0.0000000E+00  0.5491553E+00 -0.1573431E+01  0.1446949E-02  0.5491534E+00
  0.2145990E+01 -0.1078860E+02  0.0000000E+00  0.5727862E+00 -0.1582491E+01  0.6698137E-02  0.5727470E+00
  0.3193140E+01 -0.1052630E+02  0.0000000E+00  0.5923300E+00 -0.1591013E+01  0.1197388E-01  0.5922089E+00
  0.4209520E+01 -0.1016270E+02  0.0000000E+00  0.6082538E+00 -0.1598727E+01  0.1698679E-01  0.6080166E+00
  0.5185360E+01 -0.9701130E+01  0.0000000E+00  0.6213567E+00 -0.1605347E+01  0.2146407E-01  0.6209859E+00
  0.6111270E+01 -0.9146160E+01  0.0000000E+00  0.6306839E+00 -0.1610186E+01  0.2483604E-01  0.6301947E+00
  0.6978330E+01 -0.8503110E+01  0.0000000E+00  0.6357906E+00 -0.1612969E+01  0.2680513E-01  0.6352254E+00
  0.7778180E+01 -0.7778170E+01  0.0000000E+00  0.6371842E+00 -0.1613794E+01  0.2738887E-01  0.6365953E+00
  0.8503120E+01 -0.6978320E+01  0.0000000E+00  0.6357903E+00 -0.1612969E+01  0.2680523E-01  0.6352251E+00
  0.9146170E+01 -0.6111270E+01  0.0000000E+00  0.6306836E+00 -0.1610186E+01  0.2483571E-01  0.6301944E+00
  0.9701130E+01 -0.5185360E+01  0.0000000E+00  0.6213566E+00 -0.1605347E+01  0.2146411E-01  0.6209857E+00
  0.1016270E+02 -0.4209520E+01  0.0000000E+00  0.6082541E+00 -0.1598727E+01  0.1698683E-01  0.6080168E+00
  0.1052630E+02 -0.3193130E+01  0.0000000E+00  0.5923302E+00 -0.1591012E+01  0.1197378E-01  0.5922091E+00
  0.1078860E+02 -0.2145990E+01  0.0000000E+00  0.5727862E+00 -0.1582490E+01  0.6697847E-02  0.5727471E+00
  0.1094700E+02 -0.1078180E+01  0.0000000E+00  0.5491546E+00 -0.1573431E+01  0.1446883E-02  0.5491527E+00
  0.1100000E+02  0.0000000E+00 -0.2568960E-01  0.5210246E+00 -0.1564410E+01 -0.3327323E-02  0.5210140E+00
  0.1094700E+02  0.1078190E+01 -0.2568960E-01  0.4910044E+00 -0.1556394E+01 -0.7071244E-02  0.4909535E+00
  0.1078860E+02  0.2145990E+01 -0.2568960E-01  0.4578558E+00 -0.1550838E+01 -0.9137600E-02  0.4577646E+00
  0.1052630E+02  0.3193130E+01 -0.2568960E-01  0.4214017E+00 -0.1549175E+01 -0.9110485E-02  0.4213032E+00
  0.1016270E+02  0.4209520E+01 -0.2568960E-01  0.3820711E+00 -0.1553331E+01 -0.6672794E-02  0.3820128E+00
  0.9701130E+01  0.5185360E+01 -0.2568960E-01  0.3409057E+00 -0.1566098E+01 -0.1601829E-02  0.3409020E+00
  0.9146170E+01  0.6111270E+01 -0.2568960E-01  0.2983747E+00 -0.1593080E+01  0.6648289E-02  0.2983007E+00
  0.8503110E+01  0.6978330E+01 -0.2568960E-01  0.2551237E+00 -0.1642563E+01  0.1829361E-01  0.2544670E+00
  0.7778170E+01  0.7778170E+01 -0.2568960E-01  0.2124842E+00 -0.1728097E+01  0.3328625E-01  0.2098608E+00
  0.6978330E+01  0.8503110E+01 -0.2568960E-01  0.1730647E+00 -0.1871426E+01  0.5124815E-01  0.1653028E+00
  0.6111270E+01  0.9146170E+01 -0.2568960E-01  0.1414563E+00 -0.2106206E+01  0.7217005E-01  0.1216609E+00
  0.5185360E+01  0.9701130E+01 -0.2568960E-01  0.1244563E+00 -0.2449488E+01  0.9581949E-01  0.7942283E-01
  0.4209520E+01  0.1016270E+02 -0.2568960E-01  0.1277937E+00 -0.2833126E+01  0.1217619E+00  0.3879790E-01
  0.3193130E+01  0.1052630E+02 -0.2568960E-01  0.1491983E+00 -0.3141254E+01  0.1491983E+00  0.5058596E-04
  0.2145990E+01  0.1078860E+02 -0.2568960E-01  0.1810161E+00  0.2942586E+01  0.1774434E+00 -0.3578613E-01
  0.1078190E+01  0.1094700E+02 -0.2568960E-01  0.2169021E+00  0.2821451E+01  0.2058815E+00 -0.6825937E-01
 -0.4808250E-06  0.1100000E+02 -0.2568960E-01  0.2535034E+00  0.2746495E+01  0.2339732E+00 -0.9757306E-01
 -0.1078190E+01  0.1094700E+02 -0.2568960E-01  0.2890174E+00  0.2697671E+01  0.2610043E+00 -0.1241283E+00
 -0.2145990E+01  0.1078860E+02 -0.2568960E-01  0.3214835E+00  0.2666768E+01  0.2859187E+00 -0.1469767E+00
 -0.3193130E+01  0.1052630E+02 -0.2568960E-01  0.3498008E+00  0.2647856E+01  0.3080234E+00 -0.1657774E+00
 -0.4209520E+01  0.1016270E+02 -0.2568960E-01  0.3737632E+00  0.2636059E+01  0.3270114E+00 -0.1810041E+00
 -0.5185370E+01  0.9701130E+01 -0.2568960E-01  0.3935511E+00  0.2627643E+01  0.3427082E+00 -0.1934777E+00
 -0.6111270E+01  0.9146160E+01 -0.2568960E-01  0.4078646E+00  0.2622577E+01  0.3541521E+00 -0.2023111E+00
 -0.6978330E+01  0.8503120E+01 -0.2568960E-01  0.4160844E+00  0.2620498E+01  0.3608595E+00 -0.2071392E+00
 -0.7778170E+01  0.7778170E+01 -0.2568960E-01  0.4185368E+00  0.2620255E+01  0.3629357E+00 -0.2084482E+00
 -0.8503120E+01  0.6978330E+01 -0.2568960E-01  0.4160840E+00  0.2620497E+01  0.3608591E+00 -0.2071392E+00
 -0.9146170E+01  0.6111270E+01 -0.2568960E-01  0.4078639E+00  0.2622578E+01  0.3541517E+00 -0.2023106E+00
 -0.9701130E+01  0.5185360E+01 -0.2568960E-01  0.3935510E+00  0.2627643E+01  0.3427080E+00 -0.1934777E+00
 -0.1016270E+02  0.4209520E+01 -0.2568960E-01  0.3737636E+00  0.2636060E+01  0.3270119E+00 -0.1810040E+00
 -0.1052630E+02  0.3193130E+01 -0.2568960E-01  0.3498012E+00  0.2647855E+01  0.3080237E+00 -0.1657780E+00
 -0.1078860E+02  0.2145990E+01 -0.2568960E-01  0.3214839E+00  0.2666768E+01  0.2859190E+00 -0.1469768E+00
 -0.1094700E+02  0.1078190E+01 -0.2568960E-01  0.2890171E+00  0.2697671E+01  0.2610040E+00 -0.1241282E+00
 -0.1100000E+02 -0.9616510E-06 -0.2568960E-01  0.2535031E+00  0.2746495E+01  0.2339730E+00 -0.9757297E-01
 -0.1094700E+02 -0.1078190E+01 -0.2568960E-01  0.2169015E+00  0.2821450E+01  0.2058809E+00 -0.6825925E-01
 -0.1078860E+02 -0.2146000E+01 -0.2568960E-01  0.1810157E+00  0.2942588E+01  0.1774432E+00 -0.3578561E-01
 -0.1052630E+02 -0.3193130E+01 -0.2568960E-01  0.1491982E+00 -0.3141253E+01  0.1491982E+00  0.5061631E-04
 -0.1016270E+02 -0.4209520E+01 -0.2568960E-01  0.1277942E+00 -0.2833127E+01  0.1217624E+00  0.3879801E-01
 -0.9701130E+01 -0.5185360E+01 -0.2568960E-01  0.1244564E+00 -0.2449488E+01  0.9581952E-01  0.7942294E-01
 -0.9146160E+01 -0.6111270E+01 -0.2568960E-01  0.1414564E+00 -0.2106204E+01  0.7216983E-01  0.1216611E+00
 -0.8503110E+01 -0.6978330E+01 -0.2568960E-01  0.1730650E+00 -0.1871427E+01  0.5124841E-01  0.1653030E+00
 -0.7778170E+01 -0.7778180E+01 -0.2568960E-01  0.2124847E+00 -0.1728096E+01  0.3328610E-01  0.2098613E+00
 -0.6978330E+01 -0.8503110E+01 -0.2568960E-01  0.2551240E+00 -0.1642563E+01  0.1829356E-01  0.2544673E+00
 -0.6111270E+01 -0.9146170E+01 -0.2568960E-01  0.2983748E+00 -0.1593081E+01  0.6648546E-02  0.2983007E+00
 -0.5185360E+01 -0.9701130E+01 -0.2568960E-01  0.3409055E+00 -0.1566098E+01 -0.1601718E-02  0.3409018E+00
 -0.4209510E+01 -0.1016270E+02 -0.2568960E-01  0.3820714E+00 -0.1553331E+01 -0.6672789E-02  0.3820132E+00
 -0.3193130E+01 -0.1052630E+02 -0.2568960E-01  0.4214017E+00 -0.1549175E+01 -0.9110459E-02  0.4213032E+00
 -0.2145990E+01 -0.1078860E+02 -0.2568960E-01  0.4578557E+00 -0.1550838E+01 -0.9137603E-02  0.4577645E+00
 -0.1078190E+01 -0.1094700E+02 -0.2568960E-01  0.4910046E+00 -0.1556395E+01 -0.7071032E-02  0.4909537E+00
  0.1311740E-06 -0.1100000E+02 -0.2568960E-01  0.5210247E+00 -0.1564411E+01 -0.3327104E-02  0.5210141E+00
  0.1078190E+01 -0.1094700E+02 -0.2568960E-01  0.5482795E+00 -0.1573458E+01  0.1459252E-02  0.5482776E+00
  0.2145990E+01 -0.1078860E+02 -0.2568960E-01  0.5718483E+00 -0.1582515E+01  0.6701266E-02  0.5718090E+00
  0.3193140E+01 -0.1052630E+02 -0.2568960E-01  0.5913895E+00 -0.1591045E+01  0.1197386E-01  0.5912683E+00
  0.4209520E+01 -0.1016270E+02 -0.2568960E-01  0.6073135E+00 -0.1598766E+01  0.1698429E-01  0.6070759E+00
  0.5185360E+01 -0.9701130E+01 -0.2568960E-01  0.6203681E+00 -0.1605377E+01  0.2144833E-01  0.6199973E+00
  0.6111270E+01 -0.9146160E+01 -0.2568960E-01  0.6296508E+00 -0.1610206E+01  0.2480765E-01  0.6291620E+00
  0.6978330E+01 -0.8503110E+01 -0.2568960E-01  0.6347804E+00 -0.1613001E+01  0.2678274E-01  0.6342151E+00
  0.7778180E+01 -0.7778170E+01 -0.2568960E-01  0.6361997E+00 -0.1613836E+01  0.2737355E-01  0.6356105E+00
  0.8503120E+01 -0.6978320E+01 -0.2568960E-01  0.6347802E+00 -0.1613001E+01  0.2678265E-01  0.6342150E+00
  0.9146170E+01 -0.6111270E+01 -0.2568960E-01  0.6296512E+00 -0.1610205E+01  0.2480717E-01  0.6291623E+00
  0.9701130E+01 -0.5185360E+01 -0.2568960E-01  0.6203684E+00 -0.1605377E+01  0.2144820E-01  0.6199976E+00
  0.1016270E+02 -0.4209520E+01 -0.2568960E-01  0.6073135E+00 -0.1598766E+01  0.1698434E-01  0.6070760E+00
  0.1052630E+02 -0.3193130E+01 -0.2568960E-01  0.5913887E+00 -0.1591045E+01  0.1197416E-01  0.5912675E+00
  0.1078860E+02 -0.2145990E+01 -0.2568960E-01  0.5718477E+00 -0.1582515E+01  0.6701196E-02  0.5718085E+00
  0.1094700E+02 -0.1078180E+01 -0.2568960E-01  0.5482789E+00 -0.1573458E+01  0.1459343E-02  0.5482770E+00
  0.1100000E+02  0.0000000E+00 -0.1027320E+00  0.5186254E+00 -0.1564465E+01 -0.3283460E-02  0.5186151E+00
  0.1094700E+02  0.1078190E+01 -0.1027320E+00  0.4886948E+00 -0.1556451E+01 -0.7010303E-02  0.4886445E+00
  0.1078860E+02  0.2145990E+01 -0.1027320E+00  0.4556418E+00 -0.1550893E+01 -0.9068131E-02  0.4555516E+00
  0.1052630E+02  0.3193130E+01 -0.1027320E+00  0.4193951E+00 -0.1549185E+01 -0.9063185E-02  0.4192972E+00
  0.1016270E+02  0.4209520E+01 -0.1027320E+00  0.3802836E+00 -0.1553293E+01 -0.6656019E-02  0.3802253E+00
  0.9701130E+01  0.5185360E+01 -0.1027320E+00  0.3392855E+00 -0.1566099E+01 -0.1593825E-02  0.3392817E+00
  0.9146170E+01  0.6111270E+01 -0.1027320E+00  0.2969204E+00 -0.1593144E+01  0.6634959E-02  0.2968462E+00
  0.8503110E+01  0.6978330E+01 -0.1027320E+00  0.2538707E+00 -0.1642546E+01  0.1819945E-01  0.2532175E+00
  0.7778170E+01  0.7778170E+01 -0.1027320E+00  0.2114294E+00 -0.1727991E+01  0.3309882E-01  0.2088226E+00
  0.6978330E+01  0.8503110E+01 -0.1027320E+00  0.1722039E+00 -0.1871435E+01  0.5099478E-01  0.1644801E+00
  0.6111270E+01  0.9146170E+01 -0.1027320E+00  0.1407598E+00 -0.2106424E+01  0.7184110E-01  0.1210462E+00
  0.5185360E+01  0.9701130E+01 -0.1027320E+00  0.1238195E+00 -0.2449991E+01  0.9536894E-01  0.7896854E-01
  0.4209520E+01  0.1016270E+02 -0.1027320E+00  0.1271498E+00 -0.2833943E+01  0.1211799E+00  0.3850345E-01
  0.3193130E+01  0.1052630E+02 -0.1027320E+00  0.1484936E+00  0.3141436E+01  0.1484936E+00 -0.2328737E-04
  0.2145990E+01  0.1078860E+02 -0.1027320E+00  0.1801775E+00  0.2942408E+01  0.1766150E+00 -0.3565169E-01
  0.1078190E+01  0.1094700E+02 -0.1027320E+00  0.2159347E+00  0.2821052E+01  0.2049361E+00 -0.6803656E-01
 -0.4808250E-06  0.1100000E+02 -0.1027320E+00  0.2524046E+00  0.2745991E+01  0.2329101E+00 -0.9726755E-01
 -0.1078190E+01  0.1094700E+02 -0.1027320E+00  0.2877165E+00  0.2697413E+01  0.2597975E+00 -0.1236368E+00
 -0.2145990E+01  0.1078860E+02 -0.1027320E+00  0.3199884E+00  0.2666700E+01  0.2845790E+00 -0.1463125E+00
 -0.3193130E+01  0.1052630E+02 -0.1027320E+00  0.3482451E+00  0.2647656E+01  0.3066206E+00 -0.1651014E+00
 -0.4209520E+01  0.1016270E+02 -0.1027320E+00  0.3721602E+00  0.2635762E+01  0.3255554E+00 -0.1803243E+00
 -0.5185370E+01  0.9701130E+01 -0.1027320E+00  0.3917888E+00  0.2627478E+01  0.3411416E+00 -0.1926677E+00
 -0.6111270E+01  0.9146160E+01 -0.1027320E+00  0.4059609E+00  0.2622534E+01  0.3524905E+00 -0.2013821E+00
 -0.6978330E+01  0.8503120E+01 -0.1027320E+00  0.4142262E+00  0.2620348E+01  0.3592170E+00 -0.2062681E+00
 -0.7778170E+01  0.7778170E+01 -0.1027320E+00  0.4167421E+00  0.2620008E+01  0.3613282E+00 -0.2076438E+00
 -0.8503120E+01  0.6978330E+01 -0.1027320E+00  0.4142266E+00  0.2620348E+01  0.3592174E+00 -0.2062681E+00
 -0.9146170E+01  0.6111270E+01 -0.1027320E+00  0.4059605E+00  0.2622535E+01  0.3524902E+00 -0.2013816E+00
 -0.9701130E+01  0.5185360E+01 -0.1027320E+00  0.3917887E+00  0.2627478E+01  0.3411415E+00 -0.1926677E+00
 -0.1016270E+02  0.4209520E+01 -0.1027320E+00  0.3721604E+00  0.2635762E+01  0.3255556E+00 -0.1803244E+00
 -0.1052630E+02  0.3193130E+01 -0.1027320E+00  0.3482446E+00  0.2647656E+01  0.3066201E+00 -0.1651013E+00
 -0.1078860E+02  0.2145990E+01 -0.1027320E+00  0.3199883E+00  0.2666701E+01  0.2845790E+00 -0.1463122E+00
 -0.1094700E+02  0.1078190E+01 -0.1027320E+00  0.2877171E+00  0.2697414E+01  0.2597981E+00 -0.1236368E+00
 -0.1100000E+02 -0.9616510E-06 -0.1027320E+00  0.2524043E+00  0.2745991E+01  0.2329098E+00 -0.9726748E-01
 -0.1094700E+02 -0.1078190E+01 -0.1027320E+00  0.2159350E+00  0.2821053E+01  0.2049365E+00 -0.6803655E-01
 -0.1078860E+02 -0.2146000E+01 -0.1027320E+00  0.1801773E+00  0.2942410E+01  0.1766149E+00 -0.3565142E-01
 -0.1052630E+02 -0.3193130E+01 -0.1027320E+00  0.1484935E+00  0.3141436E+01  0.1484935E+00 -0.2329578E-04
 -0.1016270E+02 -0.4209520E+01 -0.1027320E+00  0.1271498E+00 -0.2833941E+01  0.1211797E+00  0.3850365E-01
 -0.9701130E+01 -0.5185360E+01 -0.1027320E+00  0.1238196E+00 -0.2449991E+01  0.9536901E-01  0.7896867E-01
 -0.9146160E+01 -0.6111270E+01 -0.1027320E+00  0.1407602E+00 -0.2106423E+01  0.7184120E-01  0.1210466E+00
 -0.8503110E+01 -0.6978330E+01 -0.1027320E+00  0.1722040E+00 -0.1871434E+01  0.5099468E-01  0.1644803E+00
 -0.7778170E+01 -0.7778180E+01 -0.1027320E+00  0.2114300E+00 -0.1727989E+01  0.3309861E-01  0.2088231E+00
 -0.6978330E+01 -0.8503110E+01 -0.1027320E+00  0.2538708E+00 -0.1642546E+01  0.1819948E-01  0.2532177E+00
 -0.6111270E+01 -0.9146170E+01 -0.1027320E+00  0.2969207E+00 -0.1593144E+01  0.6634839E-02  0.2968466E+00
 -0.5185360E+01 -0.9701130E+01 -0.1027320E+00  0.3392853E+00 -0.1566099E+01 -0.1593877E-02  0.3392815E+00
 -0.4209510E+01 -0.1016270E+02 -0.1027320E+00  0.3802846E+00 -0.1553293E+01 -0.6655816E-02  0.3802263E+00
 -0.3193130E+01 -0.1052630E+02 -0.1027320E+00  0.4193952E+00 -0.1549184E+01 -0.9063322E-02  0.4192972E+00
 -0.2145990E+01 -0.1078860E+02 -0.1027320E+00  0.4556423E+00 -0.1550893E+01 -0.9068038E-02  0.4555521E+00
 -0.1078190E+01 -0.1094700E+02 -0.1027320E+00  0.4886952E+00 -0.1556451E+01 -0.7010305E-02  0.4886449E+00
  0.1311740E-06 -0.1100000E+02 -0.1027320E+00  0.5186257E+00 -0.1564465E+01 -0.3283490E-02  0.5186154E+00
  0.1078190E+01 -0.1094700E+02 -0.1027320E+00  0.5456954E+00 -0.1573515E+01  0.1483332E-02  0.5456934E+00
  0.2145990E+01 -0.1078860E+02 -0.1027320E+00  0.5690924E+00 -0.1582578E+01  0.6704441E-02  0.5690529E+00
  0.3193140E+01 -0.1052630E+02 -0.1027320E+00  0.5886146E+00 -0.1591136E+01  0.1197137E-01  0.5884929E+00
  0.4209520E+01 -0.1016270E+02 -0.1027320E+00  0.6045301E+00 -0.1598878E+01  0.1697393E-01  0.6042917E+00
  0.5185360E+01 -0.9701130E+01 -0.1027320E+00  0.6174555E+00 -0.1605466E+01  0.2140272E-01  0.6170844E+00
  0.6111270E+01 -0.9146160E+01 -0.1027320E+00  0.6266195E+00 -0.1610273E+01  0.2473037E-01  0.6261312E+00
  0.6978330E+01 -0.8503110E+01 -0.1027320E+00  0.6318030E+00 -0.1613103E+01  0.2672127E-01  0.6312377E+00
  0.7778180E+01 -0.7778170E+01 -0.1027320E+00  0.6332863E+00 -0.1613968E+01  0.2733124E-01  0.6326963E+00
  0.8503120E+01 -0.6978320E+01 -0.1027320E+00  0.6318026E+00 -0.1613103E+01  0.2672124E-01  0.6312372E+00
  0.9146170E+01 -0.6111270E+01 -0.1027320E+00  0.6266193E+00 -0.1610272E+01  0.2473006E-01  0.6261312E+00
