 VARIABLES="X" "Y" "Z" "abs(eta) (m)" "angle(phi) (rad)" "PRE1" "PRE2"
ZONE N=   3200 ,E =    3136 ,F=FEPOINT,ET=QUADRILATERAL
  0.1010000E+02  0.0000000E+00  0.0000000E+00  0.9987606E-01 -0.2353427E+01  0.7042735E-01  0.7081819E-01
  0.1005140E+02  0.9899730E+00  0.0000000E+00  0.1235947E+00 -0.2107623E+01  0.6320772E-01  0.1062094E+00
  0.9905930E+01  0.1970410E+01  0.0000000E+00  0.1535143E+00 -0.1957008E+01  0.5782598E-01  0.1422068E+00
  0.9665100E+01  0.2931880E+01  0.0000000E+00  0.1861167E+00 -0.1865955E+01  0.5413978E-01  0.1780682E+00
  0.9331180E+01  0.3865100E+01  0.0000000E+00  0.2193003E+00 -0.1811866E+01  0.5235608E-01  0.2129588E+00
  0.8907400E+01  0.4761110E+01  0.0000000E+00  0.2524520E+00 -0.1778973E+01  0.5217576E-01  0.2470014E+00
  0.8397840E+01  0.5611260E+01  0.0000000E+00  0.2848799E+00 -0.1760550E+01  0.5373319E-01  0.2797665E+00
  0.7807410E+01  0.6407370E+01  0.0000000E+00  0.3161443E+00 -0.1750678E+01  0.5656252E-01  0.3110433E+00
  0.7141780E+01  0.7141780E+01  0.0000000E+00  0.3450979E+00 -0.1746917E+01  0.6046533E-01  0.3397595E+00
  0.6407370E+01  0.7807410E+01  0.0000000E+00  0.3722724E+00 -0.1746725E+01  0.6515624E-01  0.3665261E+00
  0.5611260E+01  0.8397840E+01  0.0000000E+00  0.3969081E+00 -0.1749392E+01  0.7050984E-01  0.3905949E+00
  0.4761110E+01  0.8907410E+01  0.0000000E+00  0.4193385E+00 -0.1753211E+01  0.7606997E-01  0.4123810E+00
  0.3865100E+01  0.9331180E+01  0.0000000E+00  0.4383572E+00 -0.1757547E+01  0.8138842E-01  0.4307353E+00
  0.2931870E+01  0.9665100E+01  0.0000000E+00  0.4549069E+00 -0.1761856E+01  0.8638643E-01  0.4466292E+00
  0.1970410E+01  0.9905930E+01  0.0000000E+00  0.4680035E+00 -0.1765984E+01  0.9076962E-01  0.4591167E+00
  0.9899730E+00  0.1005140E+02  0.0000000E+00  0.4784520E+00 -0.1769342E+01  0.9437156E-01  0.4690526E+00
 -0.4414850E-06  0.1010000E+02  0.0000000E+00  0.4850715E+00 -0.1771664E+01  0.9678113E-01  0.4753186E+00
 -0.9899740E+00  0.1005140E+02  0.0000000E+00  0.4889542E+00 -0.1772933E+01  0.9816378E-01  0.4789990E+00
 -0.1970410E+01  0.9905930E+01  0.0000000E+00  0.4890049E+00 -0.1773046E+01  0.9822822E-01  0.4790376E+00
 -0.2931880E+01  0.9665100E+01  0.0000000E+00  0.4863035E+00 -0.1771982E+01  0.9717847E-01  0.4764950E+00
 -0.3865100E+01  0.9331180E+01  0.0000000E+00  0.4798063E+00 -0.1769852E+01  0.9487855E-01  0.4703320E+00
 -0.4761110E+01  0.8907400E+01  0.0000000E+00  0.4706047E+00 -0.1766771E+01  0.9163737E-01  0.4615966E+00
 -0.5611260E+01  0.8397840E+01  0.0000000E+00  0.4576116E+00 -0.1762813E+01  0.8733027E-01  0.4492013E+00
 -0.6407370E+01  0.7807410E+01  0.0000000E+00  0.4420314E+00 -0.1758311E+01  0.8240235E-01  0.4342829E+00
 -0.7141780E+01  0.7141780E+01  0.0000000E+00  0.4231339E+00 -0.1754006E+01  0.7708937E-01  0.4160523E+00
 -0.7807410E+01  0.6407370E+01  0.0000000E+00  0.4018589E+00 -0.1750088E+01  0.7166453E-01  0.3954172E+00
 -0.8397840E+01  0.5611260E+01  0.0000000E+00  0.3773329E+00 -0.1747308E+01  0.6625840E-01  0.3714699E+00
 -0.8907410E+01  0.4761110E+01  0.0000000E+00  0.3507383E+00 -0.1746435E+01  0.6128702E-01  0.3453422E+00
 -0.9331180E+01  0.3865100E+01  0.0000000E+00  0.3218781E+00 -0.1749578E+01  0.5723976E-01  0.3167477E+00
 -0.9665100E+01  0.2931880E+01  0.0000000E+00  0.2914599E+00 -0.1757813E+01  0.5419066E-01  0.2863778E+00
 -0.9905930E+01  0.1970410E+01  0.0000000E+00  0.2590703E+00 -0.1774646E+01  0.5244644E-01  0.2537061E+00
 -0.1005140E+02  0.9899730E+00  0.0000000E+00  0.2258900E+00 -0.1803682E+01  0.5213239E-01  0.2197920E+00
 -0.1010000E+02 -0.8829700E-06  0.0000000E+00  0.1925837E+00 -0.1853223E+01  0.5367054E-01  0.1849540E+00
 -0.1005140E+02 -0.9899740E+00  0.0000000E+00  0.1599942E+00 -0.1934256E+01  0.5687956E-01  0.1495422E+00
 -0.9905930E+01 -0.1970410E+01  0.0000000E+00  0.1293848E+00 -0.2070800E+01  0.6203083E-01  0.1135456E+00
 -0.9665100E+01 -0.2931880E+01  0.0000000E+00  0.1038061E+00 -0.2295841E+01  0.6884096E-01  0.7769573E-01
 -0.9331180E+01 -0.3865100E+01  0.0000000E+00  0.8843037E-01 -0.2635904E+01  0.7736252E-01  0.4283657E-01
 -0.8907400E+01 -0.4761110E+01  0.0000000E+00  0.8770980E-01 -0.3040741E+01  0.8726413E-01  0.8830672E-02
 -0.8397840E+01 -0.5611260E+01  0.0000000E+00  0.1014287E+00  0.2903939E+01  0.9857780E-01 -0.2387868E-01
 -0.7807400E+01 -0.6407370E+01  0.0000000E+00  0.1237083E+00  0.2680015E+01  0.1107623E+00 -0.5509493E-01
 -0.7141780E+01 -0.7141780E+01  0.0000000E+00  0.1491517E+00  0.2545486E+01  0.1234272E+00 -0.8373750E-01
 -0.6407370E+01 -0.7807410E+01  0.0000000E+00  0.1754370E+00  0.2460712E+01  0.1363178E+00 -0.1104337E+00
 -0.5611260E+01 -0.8397850E+01  0.0000000E+00  0.2007979E+00  0.2408126E+01  0.1491644E+00 -0.1344239E+00
 -0.4761110E+01 -0.8907410E+01  0.0000000E+00  0.2246466E+00  0.2373126E+01  0.1615158E+00 -0.1561369E+00
 -0.3865100E+01 -0.9331190E+01  0.0000000E+00  0.2454641E+00  0.2351304E+01  0.1727184E+00 -0.1744160E+00
 -0.2931870E+01 -0.9665100E+01  0.0000000E+00  0.2638286E+00  0.2336190E+01  0.1827860E+00 -0.1902493E+00
 -0.1970410E+01 -0.9905930E+01  0.0000000E+00  0.2786745E+00  0.2327213E+01  0.1912598E+00 -0.2026799E+00
 -0.9899710E+00 -0.1005140E+02  0.0000000E+00  0.2905394E+00  0.2320849E+01  0.1980541E+00 -0.2125740E+00
  0.1204410E-06 -0.1010000E+02  0.0000000E+00  0.2981829E+00  0.2317697E+01  0.2025757E+00 -0.2188061E+00
  0.9899760E+00 -0.1005140E+02  0.0000000E+00  0.3026072E+00  0.2315647E+01  0.2051259E+00 -0.2224735E+00
  0.1970410E+01 -0.9905930E+01  0.0000000E+00  0.3027205E+00  0.2315883E+01  0.2052552E+00 -0.2225083E+00
  0.2931880E+01 -0.9665100E+01  0.0000000E+00  0.2995475E+00  0.2316840E+01  0.2033146E+00 -0.2199816E+00
  0.3865100E+01 -0.9331180E+01  0.0000000E+00  0.2921344E+00  0.2320339E+01  0.1990323E+00 -0.2138425E+00
  0.4761110E+01 -0.8907410E+01  0.0000000E+00  0.2815843E+00  0.2325371E+01  0.1928793E+00 -0.2051519E+00
  0.5611260E+01 -0.8397840E+01  0.0000000E+00  0.2669322E+00  0.2334455E+01  0.1846020E+00 -0.1928079E+00
  0.6407370E+01 -0.7807410E+01  0.0000000E+00  0.2494693E+00  0.2347353E+01  0.1748350E+00 -0.1779541E+00
  0.7141780E+01 -0.7141780E+01  0.0000000E+00  0.2287922E+00  0.2368427E+01  0.1637474E+00 -0.1597894E+00
  0.7807410E+01 -0.6407370E+01  0.0000000E+00  0.2059637E+00  0.2399265E+01  0.1517741E+00 -0.1392325E+00
  0.8397840E+01 -0.5611260E+01  0.0000000E+00  0.1806091E+00  0.2448748E+01  0.1389664E+00 -0.1153603E+00
  0.8907410E+01 -0.4761110E+01  0.0000000E+00  0.1543961E+00  0.2524767E+01  0.1259439E+00 -0.8931023E-01
  0.9331180E+01 -0.3865100E+01  0.0000000E+00  0.1284931E+00  0.2648862E+01  0.1132081E+00 -0.6078157E-01
  0.9665100E+01 -0.2931870E+01  0.0000000E+00  0.1054713E+00  0.2848420E+01  0.1009711E+00 -0.3048029E-01
  0.9905930E+01 -0.1970410E+01  0.0000000E+00  0.8954567E-01 -0.3117711E+01  0.8952014E-01  0.2138329E-02
  0.1005140E+02 -0.9899690E+00  0.0000000E+00  0.8697221E-01 -0.2714747E+01  0.7916875E-01  0.3600659E-01
  0.1010000E+02  0.0000000E+00 -0.2568960E-01  0.9974703E-01 -0.2353359E+01  0.7033153E-01  0.7073151E-01
  0.1005140E+02  0.9899730E+00 -0.2568960E-01  0.1234563E+00 -0.2107606E+01  0.6313518E-01  0.1060915E+00
  0.9905930E+01  0.1970410E+01 -0.2568960E-01  0.1533411E+00 -0.1957057E+01  0.5776775E-01  0.1420436E+00
  0.9665100E+01  0.2931880E+01 -0.2568960E-01  0.1859025E+00 -0.1865960E+01  0.5407847E-01  0.1778631E+00
  0.9331180E+01  0.3865100E+01 -0.2568960E-01  0.2190590E+00 -0.1811783E+01  0.5228089E-01  0.2127288E+00
  0.8907400E+01  0.4761110E+01 -0.2568960E-01  0.2521519E+00 -0.1778988E+01  0.5211740E-01  0.2467070E+00
  0.8397840E+01  0.5611260E+01 -0.2568960E-01  0.2845246E+00 -0.1760598E+01  0.5367967E-01  0.2794150E+00
  0.7807410E+01  0.6407370E+01 -0.2568960E-01  0.3157662E+00 -0.1750701E+01  0.5650179E-01  0.3106700E+00
  0.7141780E+01  0.7141780E+01 -0.2568960E-01  0.3447314E+00 -0.1746896E+01  0.6039396E-01  0.3393999E+00
  0.6407370E+01  0.7807410E+01 -0.2568960E-01  0.3718214E+00 -0.1746750E+01  0.6508618E-01  0.3660805E+00
  0.5611260E+01  0.8397840E+01 -0.2568960E-01  0.3963999E+00 -0.1749432E+01  0.7043504E-01  0.3900920E+00
  0.4761110E+01  0.8907410E+01 -0.2568960E-01  0.4188308E+00 -0.1753242E+01  0.7599073E-01  0.4118794E+00
  0.3865100E+01  0.9331180E+01 -0.2568960E-01  0.4378958E+00 -0.1757565E+01  0.8131041E-01  0.4302805E+00
  0.2931870E+01  0.9665100E+01 -0.2568960E-01  0.4543516E+00 -0.1761889E+01  0.8629599E-01  0.4460811E+00
  0.1970410E+01  0.9905930E+01 -0.2568960E-01  0.4673980E+00 -0.1766022E+01  0.9066953E-01  0.4585193E+00
  0.9899730E+00  0.1005140E+02 -0.2568960E-01  0.4778686E+00 -0.1769379E+01  0.9427410E-01  0.4684771E+00
 -0.4414850E-06  0.1010000E+02 -0.2568960E-01  0.4845605E+00 -0.1771701E+01  0.9669681E-01  0.4748143E+00
 -0.9899740E+00  0.1005140E+02 -0.2568960E-01  0.4883563E+00 -0.1772971E+01  0.9806187E-01  0.4784096E+00
 -0.1970410E+01  0.9905930E+01 -0.2568960E-01  0.4883696E+00 -0.1773084E+01  0.9811868E-01  0.4784115E+00
 -0.2931880E+01  0.9665100E+01 -0.2568960E-01  0.4857093E+00 -0.1772019E+01  0.9707767E-01  0.4759091E+00
 -0.3865100E+01  0.9331180E+01 -0.2568960E-01  0.4793012E+00 -0.1769886E+01  0.9479494E-01  0.4698336E+00
 -0.4761110E+01  0.8907400E+01 -0.2568960E-01  0.4700311E+00 -0.1766808E+01  0.9154260E-01  0.4610306E+00
 -0.5611260E+01  0.8397840E+01 -0.2568960E-01  0.4570199E+00 -0.1762852E+01  0.8723460E-01  0.4486171E+00
 -0.6407370E+01  0.7807410E+01 -0.2568960E-01  0.4414927E+00 -0.1758343E+01  0.8231578E-01  0.4337510E+00
 -0.7141780E+01  0.7141780E+01 -0.2568960E-01  0.4226869E+00 -0.1754018E+01  0.7701289E-01  0.4156119E+00
 -0.7807410E+01  0.6407370E+01 -0.2568960E-01  0.4013730E+00 -0.1750118E+01  0.7158983E-01  0.3949369E+00
 -0.8397840E+01  0.5611260E+01 -0.2568960E-01  0.3768514E+00 -0.1747349E+01  0.6618901E-01  0.3709933E+00
 -0.8907410E+01  0.4761110E+01 -0.2568960E-01  0.3503146E+00 -0.1746457E+01  0.6122056E-01  0.3449238E+00
 -0.9331180E+01  0.3865100E+01 -0.2568960E-01  0.3215342E+00 -0.1749547E+01  0.5716890E-01  0.3164110E+00
 -0.9665100E+01  0.2931880E+01 -0.2568960E-01  0.2911140E+00 -0.1757832E+01  0.5413190E-01  0.2860369E+00
 -0.9905930E+01  0.1970410E+01 -0.2568960E-01  0.2587510E+00 -0.1774697E+01  0.5239467E-01  0.2533907E+00
 -0.1005140E+02  0.9899730E+00 -0.2568960E-01  0.2256228E+00 -0.1803696E+01  0.5207368E-01  0.2195313E+00
 -0.1010000E+02 -0.8829700E-06 -0.2568960E-01  0.1923683E+00 -0.1853126E+01  0.5359260E-01  0.1847522E+00
 -0.1005140E+02 -0.9899740E+00 -0.2568960E-01  0.1598130E+00 -0.1934253E+01  0.5681461E-01  0.1493730E+00
 -0.9905930E+01 -0.1970410E+01 -0.2568960E-01  0.1292456E+00 -0.2070829E+01  0.6196734E-01  0.1134217E+00
 -0.9665100E+01 -0.2931880E+01 -0.2568960E-01  0.1036921E+00 -0.2295801E+01  0.6876227E-01  0.7761320E-01
 -0.9331180E+01 -0.3865100E+01 -0.2568960E-01  0.8831273E-01 -0.2635925E+01  0.7726049E-01  0.4277798E-01
 -0.8907400E+01 -0.4761110E+01 -0.2568960E-01  0.8761084E-01 -0.3040543E+01  0.8716393E-01  0.8837965E-02
 -0.8397840E+01 -0.5611260E+01 -0.2568960E-01  0.1013080E+00  0.2904299E+01  0.9846909E-01 -0.2381472E-01
 -0.7807400E+01 -0.6407370E+01 -0.2568960E-01  0.1235586E+00  0.2680180E+01  0.1106373E+00 -0.5500998E-01
 -0.7141780E+01 -0.7141780E+01 -0.2568960E-01  0.1489966E+00  0.2545355E+01  0.1232878E+00 -0.8366653E-01
 -0.6407370E+01 -0.7807410E+01 -0.2568960E-01  0.1752175E+00  0.2460857E+01  0.1361633E+00 -0.1102757E+00
 -0.5611260E+01 -0.8397850E+01 -0.2568960E-01  0.2005262E+00  0.2408352E+01  0.1489928E+00 -0.1342084E+00
 -0.4761110E+01 -0.8907410E+01 -0.2568960E-01  0.2243683E+00  0.2373254E+01  0.1613357E+00 -0.1559229E+00
 -0.3865100E+01 -0.9331190E+01 -0.2568960E-01  0.2452219E+00  0.2351269E+01  0.1725419E+00 -0.1742500E+00
 -0.2931870E+01 -0.9665100E+01 -0.2568960E-01  0.2634996E+00  0.2336313E+01  0.1825813E+00 -0.1899897E+00
 -0.1970410E+01 -0.9905930E+01 -0.2568960E-01  0.2782953E+00  0.2327393E+01  0.1910359E+00 -0.2023699E+00
 -0.9899710E+00 -0.1005140E+02 -0.2568960E-01  0.2901788E+00  0.2320970E+01  0.1978339E+00 -0.2122863E+00
  0.1204410E-06 -0.1010000E+02 -0.2568960E-01  0.2978905E+00  0.2317697E+01  0.2023772E+00 -0.2185915E+00
  0.9899760E+00 -0.1005140E+02 -0.2568960E-01  0.3022310E+00  0.2315766E+01  0.2048974E+00 -0.2221725E+00
  0.1970410E+01 -0.9905930E+01 -0.2568960E-01  0.3023088E+00  0.2316053E+01  0.2050139E+00 -0.2221709E+00
  0.2931880E+01 -0.9665100E+01 -0.2568960E-01  0.2991748E+00  0.2316960E+01  0.2030880E+00 -0.2196836E+00
  0.3865100E+01 -0.9331180E+01 -0.2568960E-01  0.2918479E+00  0.2320336E+01  0.1988365E+00 -0.2136334E+00
  0.4761110E+01 -0.8907410E+01 -0.2568960E-01  0.2812350E+00  0.2325492E+01  0.1926649E+00 -0.2048740E+00
  0.5611260E+01 -0.8397840E+01 -0.2568960E-01  0.2665690E+00  0.2334640E+01  0.1843864E+00 -0.1925115E+00
  0.6407370E+01 -0.7807410E+01 -0.2568960E-01  0.2491576E+00  0.2347477E+01  0.1746386E+00 -0.1777101E+00
  0.7141780E+01 -0.7141780E+01 -0.2568960E-01  0.2285652E+00  0.2368380E+01  0.1635773E+00 -0.1596386E+00
  0.7807410E+01 -0.6407370E+01 -0.2568960E-01  0.2057086E+00  0.2399397E+01  0.1516044E+00 -0.1390400E+00
  0.8397840E+01 -0.5611260E+01 -0.2568960E-01  0.1803660E+00  0.2448993E+01  0.1388076E+00 -0.1151709E+00
  0.8907410E+01 -0.4761110E+01 -0.2568960E-01  0.1542037E+00  0.2524924E+01  0.1258008E+00 -0.8917914E-01
  0.9331180E+01 -0.3865100E+01 -0.2568960E-01  0.1283552E+00  0.2648701E+01  0.1130769E+00 -0.6073450E-01
  0.9665100E+01 -0.2931870E+01 -0.2568960E-01  0.1053464E+00  0.2848595E+01  0.1008568E+00 -0.3042649E-01
  0.9905930E+01 -0.1970410E+01 -0.2568960E-01  0.8944894E-01 -0.3117369E+01  0.8942270E-01  0.2166567E-02
  0.1005140E+02 -0.9899690E+00 -0.2568960E-01  0.8687830E-01 -0.2714592E+01  0.7907767E-01  0.3598000E-01
  0.1010000E+02  0.0000000E+00 -0.1027320E+00  0.9935310E-01 -0.2353289E+01  0.7004882E-01  0.7045709E-01
  0.1005140E+02  0.9899730E+00 -0.1027320E+00  0.1230210E+00 -0.2107529E+01  0.6290446E-01  0.1057222E+00
  0.9905930E+01  0.1970410E+01 -0.1027320E+00  0.1528181E+00 -0.1956859E+01  0.5754270E-01  0.1415705E+00
  0.9665100E+01  0.2931880E+01 -0.1027320E+00  0.1852889E+00 -0.1865834E+01  0.5387759E-01  0.1772828E+00
  0.9331180E+01  0.3865100E+01 -0.1027320E+00  0.2183629E+00 -0.1811510E+01  0.5205683E-01  0.2120671E+00
  0.8907400E+01  0.4761110E+01 -0.1027320E+00  0.2513127E+00 -0.1778904E+01  0.5192352E-01  0.2458903E+00
  0.8397840E+01  0.5611260E+01 -0.1027320E+00  0.2836110E+00 -0.1760491E+01  0.5347731E-01  0.2785236E+00
  0.7807410E+01  0.6407370E+01 -0.1027320E+00  0.3147410E+00 -0.1750653E+01  0.5630356E-01  0.3096640E+00
  0.7141780E+01  0.7141780E+01 -0.1027320E+00  0.3436979E+00 -0.1746774E+01  0.6017139E-01  0.3383898E+00
  0.6407370E+01  0.7807410E+01 -0.1027320E+00  0.3706039E+00 -0.1746714E+01  0.6485990E-01  0.3648841E+00
  0.5611260E+01  0.8397840E+01 -0.1027320E+00  0.3951468E+00 -0.1749396E+01  0.7019838E-01  0.3888614E+00
  0.4761110E+01  0.8907410E+01 -0.1027320E+00  0.4174749E+00 -0.1753236E+01  0.7574224E-01  0.4105465E+00
  0.3865100E+01  0.9331180E+01 -0.1027320E+00  0.4366069E+00 -0.1757533E+01  0.8105736E-01  0.4290166E+00
  0.2931870E+01  0.9665100E+01 -0.1027320E+00  0.4528735E+00 -0.1761885E+01  0.8601325E-01  0.4446304E+00
  0.1970410E+01  0.9905930E+01 -0.1027320E+00  0.4659279E+00 -0.1766025E+01  0.9038582E-01  0.4570768E+00
  0.9899730E+00  0.1005140E+02 -0.1027320E+00  0.4763205E+00 -0.1769391E+01  0.9397394E-01  0.4669584E+00
 -0.4414850E-06  0.1010000E+02 -0.1027320E+00  0.4831434E+00 -0.1771710E+01  0.9641822E-01  0.4734249E+00
 -0.9899740E+00  0.1005140E+02 -0.1027320E+00  0.4867732E+00 -0.1772982E+01  0.9774941E-01  0.4768576E+00
 -0.1970410E+01  0.9905930E+01 -0.1027320E+00  0.4868371E+00 -0.1773097E+01  0.9781712E-01  0.4769089E+00
 -0.2931880E+01  0.9665100E+01 -0.1027320E+00  0.4841338E+00 -0.1772029E+01  0.9676731E-01  0.4743645E+00
 -0.3865100E+01  0.9331180E+01 -0.1027320E+00  0.4778978E+00 -0.1769891E+01  0.9451958E-01  0.4684575E+00
 -0.4761110E+01  0.8907400E+01 -0.1027320E+00  0.4685096E+00 -0.1766817E+01  0.9125040E-01  0.4595374E+00
 -0.5611260E+01  0.8397840E+01 -0.1027320E+00  0.4555819E+00 -0.1762849E+01  0.8695885E-01  0.4472058E+00
 -0.6407370E+01  0.7807410E+01 -0.1027320E+00  0.4400549E+00 -0.1758334E+01  0.8204377E-01  0.4323392E+00
 -0.7141780E+01  0.7141780E+01 -0.1027320E+00  0.4214402E+00 -0.1753972E+01  0.7676677E-01  0.4143896E+00
 -0.7807410E+01  0.6407370E+01 -0.1027320E+00  0.4000725E+00 -0.1750105E+01  0.7135285E-01  0.3936582E+00
 -0.8397840E+01  0.5611260E+01 -0.1027320E+00  0.3756581E+00 -0.1747301E+01  0.6596167E-01  0.3698216E+00
 -0.8907410E+01  0.4761110E+01 -0.1027320E+00  0.3491658E+00 -0.1746413E+01  0.6100448E-01  0.3437953E+00
 -0.9331180E+01  0.3865100E+01 -0.1027320E+00  0.3205637E+00 -0.1749399E+01  0.5694957E-01  0.3154645E+00
 -0.9665100E+01  0.2931880E+01 -0.1027320E+00  0.2901673E+00 -0.1757772E+01  0.5393878E-01  0.2851099E+00
 -0.9905930E+01  0.1970410E+01 -0.1027320E+00  0.2579151E+00 -0.1774570E+01  0.5219345E-01  0.2525788E+00
 -0.1005140E+02  0.9899730E+00 -0.1027320E+00  0.2248672E+00 -0.1803604E+01  0.5187910E-01  0.2188008E+00
 -0.1010000E+02 -0.8829700E-06 -0.1027320E+00  0.1917416E+00 -0.1852820E+01  0.5336171E-01  0.1841667E+00
 -0.1005140E+02 -0.9899740E+00 -0.1027320E+00  0.1592806E+00 -0.1934106E+01  0.5660344E-01  0.1488837E+00
 -0.9905930E+01 -0.1970410E+01 -0.1027320E+00  0.1287925E+00 -0.2070640E+01  0.6172880E-01  0.1130357E+00
 -0.9665100E+01 -0.2931880E+01 -0.1027320E+00  0.1033195E+00 -0.2295790E+01  0.6851435E-01  0.7733501E-01
 -0.9331180E+01 -0.3865100E+01 -0.1027320E+00  0.8795308E-01 -0.2636235E+01  0.7695907E-01  0.4257987E-01
 -0.8907400E+01 -0.4761110E+01 -0.1027320E+00  0.8729821E-01 -0.3040662E+01  0.8685393E-01  0.8796101E-02
 -0.8397840E+01 -0.5611260E+01 -0.1027320E+00  0.1009635E+00  0.2903800E+01  0.9812237E-01 -0.2378278E-01
 -0.7807400E+01 -0.6407370E+01 -0.1027320E+00  0.1231574E+00  0.2679893E+01  0.1102624E+00 -0.5486296E-01
 -0.7141780E+01 -0.7141780E+01 -0.1027320E+00  0.1485680E+00  0.2544611E+01  0.1228711E+00 -0.8351727E-01
 -0.6407370E+01 -0.7807410E+01 -0.1027320E+00  0.1746479E+00  0.2460696E+01  0.1357029E+00 -0.1099391E+00
 -0.5611260E+01 -0.8397850E+01 -0.1027320E+00  0.1999145E+00  0.2408088E+01  0.1485031E+00 -0.1338382E+00
 -0.4761110E+01 -0.8907410E+01 -0.1027320E+00  0.2236596E+00  0.2373133E+01  0.1608073E+00 -0.1554499E+00
 -0.3865100E+01 -0.9331190E+01 -0.1027320E+00  0.2445600E+00  0.2350873E+01  0.1720075E+00 -0.1738478E+00
 -0.2931870E+01 -0.9665100E+01 -0.1027320E+00  0.2626592E+00  0.2336223E+01  0.1819821E+00 -0.1894000E+00
 -0.1970410E+01 -0.9905930E+01 -0.1027320E+00  0.2774564E+00  0.2327237E+01  0.1904287E+00 -0.2017894E+00
 -0.9899710E+00 -0.1005140E+02 -0.1027320E+00  0.2892619E+00  0.2320900E+01  0.1971941E+00 -0.2116292E+00
  0.1204410E-06 -0.1010000E+02 -0.1027320E+00  0.2970926E+00  0.2317411E+01  0.2017727E+00 -0.2180637E+00
  0.9899760E+00 -0.1005140E+02 -0.1027320E+00  0.3012735E+00  0.2315702E+01  0.2042340E+00 -0.2214817E+00
  0.1970410E+01 -0.9905930E+01 -0.1027320E+00  0.3013988E+00  0.2315924E+01  0.2043681E+00 -0.2215286E+00
  0.2931880E+01 -0.9665100E+01 -0.1027320E+00  0.2982261E+00  0.2316894E+01  0.2024294E+00 -0.2190003E+00
  0.3865100E+01 -0.9331180E+01 -0.1027320E+00  0.2910655E+00  0.2320038E+01  0.1982399E+00 -0.2131198E+00
  0.4761110E+01 -0.8907410E+01 -0.1027320E+00  0.2803467E+00  0.2325418E+01  0.1920410E+00 -0.2042413E+00
  0.5611260E+01 -0.8397840E+01 -0.1027320E+00  0.2657645E+00  0.2334472E+01  0.1837976E+00 -0.1919614E+00
  0.6407370E+01 -0.7807410E+01 -0.1027320E+00  0.2483614E+00  0.2347379E+01  0.1740631E+00 -0.1771593E+00
  0.7141780E+01 -0.7141780E+01 -0.1027320E+00  0.2279457E+00  0.2367941E+01  0.1630642E+00 -0.1592775E+00
  0.7807410E+01 -0.6407370E+01 -0.1027320E+00  0.2050583E+00  0.2399255E+01  0.1511054E+00 -0.1386220E+00
  0.8397840E+01 -0.5611260E+01 -0.1027320E+00  0.1798120E+00  0.2448689E+01  0.1383464E+00 -0.1148592E+00
