 VARIABLES="X" "Y" "Z" "abs(eta) (m)" "angle(phi) (rad)" "PRE1" "PRE2"
ZONE N=   3200 ,E =    3136 ,F=FEPOINT,ET=QUADRILATERAL
  0.1010000E+02  0.0000000E+00  0.0000000E+00  0.4516956E+00 -0.1761103E+01  0.8544295E-01  0.4435408E+00
  0.1005140E+02  0.9899730E+00  0.0000000E+00  0.4658133E+00 -0.1765144E+01  0.8996101E-01  0.4570438E+00
  0.9905930E+01  0.1970410E+01  0.0000000E+00  0.4763668E+00 -0.1768696E+01  0.9365860E-01  0.4670689E+00
  0.9665100E+01  0.2931880E+01  0.0000000E+00  0.4842332E+00 -0.1771309E+01  0.9644570E-01  0.4745314E+00
  0.9331180E+01  0.3865100E+01  0.0000000E+00  0.4882380E+00 -0.1772780E+01  0.9794699E-01  0.4783124E+00
  0.8907400E+01  0.4761110E+01  0.0000000E+00  0.4894970E+00 -0.1773139E+01  0.9837176E-01  0.4795105E+00
  0.8397840E+01  0.5611260E+01  0.0000000E+00  0.4868911E+00 -0.1772298E+01  0.9744690E-01  0.4770398E+00
  0.7807410E+01  0.6407370E+01  0.0000000E+00  0.4815481E+00 -0.1770319E+01  0.9544344E-01  0.4719948E+00
  0.7141780E+01  0.7141780E+01  0.0000000E+00  0.4724668E+00 -0.1767414E+01  0.9229778E-01  0.4633638E+00
  0.6407370E+01  0.7807410E+01  0.0000000E+00  0.4607171E+00 -0.1763704E+01  0.8832549E-01  0.4521713E+00
  0.5611260E+01  0.8397840E+01  0.0000000E+00  0.4452454E+00 -0.1759343E+01  0.8345284E-01  0.4373547E+00
  0.4761110E+01  0.8907410E+01  0.0000000E+00  0.4272498E+00 -0.1754721E+01  0.7813929E-01  0.4200436E+00
  0.3865100E+01  0.9331180E+01  0.0000000E+00  0.4060961E+00 -0.1750767E+01  0.7269157E-01  0.3995372E+00
  0.2931870E+01  0.9665100E+01  0.0000000E+00  0.3826833E+00 -0.1747720E+01  0.6735291E-01  0.3767096E+00
  0.1970410E+01  0.9905930E+01  0.0000000E+00  0.3561934E+00 -0.1746604E+01  0.6229936E-01  0.3507029E+00
  0.9899730E+00  0.1005140E+02  0.0000000E+00  0.3278154E+00 -0.1748386E+01  0.5791114E-01  0.3226596E+00
 -0.4414850E-06  0.1010000E+02  0.0000000E+00  0.2974726E+00 -0.1755698E+01  0.5469018E-01  0.2924020E+00
 -0.9899740E+00  0.1005140E+02  0.0000000E+00  0.2658348E+00 -0.1770210E+01  0.5266039E-01  0.2605667E+00
 -0.1970410E+01  0.9905930E+01  0.0000000E+00  0.2326512E+00 -0.1796831E+01  0.5214065E-01  0.2267331E+00
 -0.2931880E+01  0.9665100E+01  0.0000000E+00  0.1991314E+00 -0.1841110E+01  0.5317476E-01  0.1919004E+00
 -0.3865100E+01  0.9331180E+01  0.0000000E+00  0.1662823E+00 -0.1915129E+01  0.5613165E-01  0.1565217E+00
 -0.4761110E+01  0.8907400E+01  0.0000000E+00  0.1352811E+00 -0.2036808E+01  0.6078542E-01  0.1208557E+00
 -0.5611260E+01  0.8397840E+01  0.0000000E+00  0.1084519E+00 -0.2241107E+01  0.6737356E-01  0.8498602E-01
 -0.6407370E+01  0.7807410E+01  0.0000000E+00  0.9034947E-01 -0.2560880E+01  0.7553864E-01  0.4956753E-01
 -0.7141780E+01  0.7141780E+01  0.0000000E+00  0.8663934E-01 -0.2961777E+01  0.8524243E-01  0.1549529E-01
 -0.7807410E+01  0.6407370E+01  0.0000000E+00  0.9772244E-01  0.2961940E+01  0.9614968E-01 -0.1746179E-01
 -0.8397840E+01  0.5611260E+01  0.0000000E+00  0.1187138E+00  0.2718137E+01  0.1082283E+00 -0.4878111E-01
 -0.8907410E+01  0.4761110E+01  0.0000000E+00  0.1441252E+00  0.2566361E+01  0.1209306E+00 -0.7840829E-01
 -0.9331180E+01  0.3865100E+01  0.0000000E+00  0.1702068E+00  0.2475152E+01  0.1337871E+00 -0.1052206E+00
 -0.9665100E+01  0.2931880E+01  0.0000000E+00  0.1958909E+00  0.2416314E+01  0.1465880E+00 -0.1299430E+00
 -0.9905930E+01  0.1970410E+01  0.0000000E+00  0.2198177E+00  0.2379501E+01  0.1590147E+00 -0.1517700E+00
 -0.1005140E+02  0.9899730E+00  0.0000000E+00  0.2417547E+00  0.2354561E+01  0.1706669E+00 -0.1712255E+00
 -0.1010000E+02 -0.8829700E-06  0.0000000E+00  0.2602904E+00  0.2339114E+01  0.1808826E+00 -0.1871699E+00
 -0.1005140E+02 -0.9899740E+00  0.0000000E+00  0.2761282E+00  0.2328314E+01  0.1897333E+00 -0.2006193E+00
 -0.9905930E+01 -0.1970410E+01  0.0000000E+00  0.2882022E+00  0.2322207E+01  0.1967470E+00 -0.2105970E+00
 -0.9665100E+01 -0.2931880E+01  0.0000000E+00  0.2971736E+00  0.2317879E+01  0.2019300E+00 -0.2180286E+00
 -0.9331180E+01 -0.3865100E+01  0.0000000E+00  0.3018340E+00  0.2316226E+01  0.2047303E+00 -0.2217866E+00
 -0.8907400E+01 -0.4761110E+01  0.0000000E+00  0.3032351E+00  0.2315419E+01  0.2055007E+00 -0.2229820E+00
 -0.8397840E+01 -0.5611260E+01  0.0000000E+00  0.3002826E+00  0.2316844E+01  0.2038142E+00 -0.2205208E+00
 -0.7807400E+01 -0.6407370E+01  0.0000000E+00  0.2940761E+00  0.2319150E+01  0.2000993E+00 -0.2155019E+00
 -0.7141780E+01 -0.7141780E+01  0.0000000E+00  0.2837469E+00  0.2324446E+01  0.1941694E+00 -0.2069071E+00
 -0.6407370E+01 -0.7807410E+01  0.0000000E+00  0.2703861E+00  0.2331961E+01  0.1865028E+00 -0.1957685E+00
 -0.5611260E+01 -0.8397850E+01  0.0000000E+00  0.2531023E+00  0.2344730E+01  0.1769068E+00 -0.1810104E+00
 -0.4761110E+01 -0.8907410E+01  0.0000000E+00  0.2332136E+00  0.2363059E+01  0.1660349E+00 -0.1637711E+00
 -0.3865100E+01 -0.9331190E+01  0.0000000E+00  0.2104866E+00  0.2392515E+01  0.1541430E+00 -0.1433337E+00
 -0.2931870E+01 -0.9665100E+01  0.0000000E+00  0.1860134E+00  0.2436285E+01  0.1416328E+00 -0.1205866E+00
 -0.1970410E+01 -0.9905930E+01  0.0000000E+00  0.1596884E+00  0.2507135E+01  0.1286120E+00 -0.9465389E-01
 -0.9899710E+00 -0.1005140E+02  0.0000000E+00  0.1335111E+00  0.2618608E+01  0.1156650E+00 -0.6668449E-01
  0.1204410E-06 -0.1010000E+02  0.0000000E+00  0.1095746E+00  0.2802106E+01  0.1033207E+00 -0.3648872E-01
  0.9899760E+00 -0.1005140E+02  0.0000000E+00  0.9185436E-01  0.3090247E+01  0.9173330E-01 -0.4714231E-02
  0.1970410E+01 -0.9905930E+01  0.0000000E+00  0.8626392E-01 -0.2797810E+01  0.8121632E-01  0.2907532E-01
  0.2931880E+01 -0.9665100E+01  0.0000000E+00  0.9624241E-01 -0.2415892E+01  0.7199264E-01  0.6387223E-01
  0.3865100E+01 -0.9331180E+01  0.0000000E+00  0.1183752E+00 -0.2147403E+01  0.6453609E-01  0.9923603E-01
  0.4761110E+01 -0.8907410E+01  0.0000000E+00  0.1471123E+00 -0.1981249E+01  0.5870141E-01  0.1348932E+00
  0.5611260E+01 -0.8397840E+01  0.0000000E+00  0.1793476E+00 -0.1881216E+01  0.5478325E-01  0.1707758E+00
  0.6407370E+01 -0.7807410E+01  0.0000000E+00  0.2128088E+00 -0.1820339E+01  0.5255550E-01  0.2062171E+00
  0.7141780E+01 -0.7141780E+01  0.0000000E+00  0.2459231E+00 -0.1784439E+01  0.5214098E-01  0.2403321E+00
  0.7807410E+01 -0.6407370E+01  0.0000000E+00  0.2784695E+00 -0.1763117E+01  0.5322585E-01  0.2733354E+00
  0.8397840E+01 -0.5611260E+01  0.0000000E+00  0.3098016E+00 -0.1752198E+01  0.5589071E-01  0.3047183E+00
  0.8907410E+01 -0.4761110E+01  0.0000000E+00  0.3396896E+00 -0.1747300E+01  0.5964561E-01  0.3344120E+00
  0.9331180E+01 -0.3865100E+01  0.0000000E+00  0.3669651E+00 -0.1746707E+01  0.6422075E-01  0.3613019E+00
  0.9665100E+01 -0.2931870E+01  0.0000000E+00  0.3922770E+00 -0.1748547E+01  0.6936098E-01  0.3860962E+00
  0.9905930E+01 -0.1970410E+01  0.0000000E+00  0.4148190E+00 -0.1752347E+01  0.7489773E-01  0.4080014E+00
  0.1005140E+02 -0.9899690E+00  0.0000000E+00  0.4350241E+00 -0.1756710E+01  0.8041199E-01  0.4275276E+00
  0.1010000E+02  0.0000000E+00 -0.2568960E-01  0.4512203E+00 -0.1761127E+01  0.8536328E-01  0.4430721E+00
  0.1005140E+02  0.9899730E+00 -0.2568960E-01  0.4652437E+00 -0.1765179E+01  0.8986697E-01  0.4564818E+00
  0.9905930E+01  0.1970410E+01 -0.2568960E-01  0.4757501E+00 -0.1768733E+01  0.9355488E-01  0.4664608E+00
  0.9665100E+01  0.2931880E+01 -0.2568960E-01  0.4836426E+00 -0.1771347E+01  0.9634598E-01  0.4739490E+00
  0.9331180E+01  0.3865100E+01 -0.2568960E-01  0.4877249E+00 -0.1772818E+01  0.9786206E-01  0.4778060E+00
  0.8907400E+01  0.4761110E+01 -0.2568960E-01  0.4888977E+00 -0.1773178E+01  0.9826963E-01  0.4789197E+00
  0.8397840E+01  0.5611260E+01 -0.2568960E-01  0.4862593E+00 -0.1772336E+01  0.9733856E-01  0.4764172E+00
  0.7807410E+01  0.6407370E+01 -0.2568960E-01  0.4809586E+00 -0.1770356E+01  0.9534424E-01  0.4714134E+00
  0.7141780E+01  0.7141780E+01 -0.2568960E-01  0.4719699E+00 -0.1767445E+01  0.9221519E-01  0.4628735E+00
  0.6407370E+01  0.7807410E+01 -0.2568960E-01  0.4601562E+00 -0.1763739E+01  0.8823410E-01  0.4516177E+00
  0.5611260E+01  0.8397840E+01 -0.2568960E-01  0.4446708E+00 -0.1759381E+01  0.8336201E-01  0.4367870E+00
  0.4761110E+01  0.8907410E+01 -0.2568960E-01  0.4267296E+00 -0.1754751E+01  0.7805683E-01  0.4195299E+00
  0.3865100E+01  0.9331180E+01 -0.2568960E-01  0.4056675E+00 -0.1750772E+01  0.7261680E-01  0.3991151E+00
  0.2931870E+01  0.9665100E+01 -0.2568960E-01  0.3822215E+00 -0.1747747E+01  0.6728204E-01  0.3762531E+00
  0.1970410E+01  0.9905930E+01 -0.2568960E-01  0.3557402E+00 -0.1746646E+01  0.6223488E-01  0.3502540E+00
  0.9899730E+00  0.1005140E+02 -0.2568960E-01  0.3274196E+00 -0.1748407E+01  0.5784787E-01  0.3222689E+00
 -0.4414850E-06  0.1010000E+02 -0.2568960E-01  0.2971542E+00 -0.1755655E+01  0.5461910E-01  0.2920914E+00
 -0.9899740E+00  0.1005140E+02 -0.2568960E-01  0.2655207E+00 -0.1770226E+01  0.5260240E-01  0.2602580E+00
 -0.1970410E+01  0.9905930E+01 -0.2568960E-01  0.2323681E+00 -0.1796885E+01  0.5208927E-01  0.2264545E+00
 -0.2931880E+01  0.9665100E+01 -0.2568960E-01  0.1988978E+00 -0.1841119E+01  0.5311420E-01  0.1916748E+00
 -0.3865100E+01  0.9331180E+01 -0.2568960E-01  0.1660921E+00 -0.1915019E+01  0.5605021E-01  0.1563488E+00
 -0.4761110E+01  0.8907400E+01 -0.2568960E-01  0.1351306E+00 -0.2036790E+01  0.6071565E-01  0.1207224E+00
 -0.5611260E+01  0.8397840E+01 -0.2568960E-01  0.1083417E+00 -0.2241087E+01  0.6730340E-01  0.8490099E-01
 -0.6407370E+01  0.7807410E+01 -0.2568960E-01  0.9025155E-01 -0.2560793E+01  0.7545247E-01  0.4952037E-01
 -0.7141780E+01  0.7141780E+01 -0.2568960E-01  0.8652665E-01 -0.2961901E+01  0.8513347E-01  0.1546457E-01
 -0.7807410E+01  0.6407370E+01 -0.2568960E-01  0.9760686E-01  0.2962147E+01  0.9603956E-01 -0.1742131E-01
 -0.8397840E+01  0.5611260E+01 -0.2568960E-01  0.1185637E+00  0.2718472E+01  0.1081078E+00 -0.4868322E-01
 -0.8907410E+01  0.4761110E+01 -0.2568960E-01  0.1439486E+00  0.2566514E+01  0.1207944E+00 -0.7829368E-01
 -0.9331180E+01  0.3865100E+01 -0.2568960E-01  0.1700337E+00  0.2475046E+01  0.1336399E+00 -0.1051276E+00
 -0.9665100E+01  0.2931880E+01 -0.2568960E-01  0.1956456E+00  0.2416451E+01  0.1464223E+00 -0.1297602E+00
 -0.9905930E+01  0.1970410E+01 -0.2568960E-01  0.2195193E+00  0.2379713E+01  0.1588310E+00 -0.1515304E+00
 -0.1005140E+02  0.9899730E+00 -0.2568960E-01  0.2414549E+00  0.2354684E+01  0.1704764E+00 -0.1709920E+00
 -0.1010000E+02 -0.8829700E-06 -0.2568960E-01  0.2600344E+00  0.2339088E+01  0.1807000E+00 -0.1869904E+00
 -0.1005140E+02 -0.9899740E+00 -0.2568960E-01  0.2757840E+00  0.2328436E+01  0.1895211E+00 -0.2003461E+00
 -0.9905930E+01 -0.1970410E+01 -0.2568960E-01  0.2878105E+00  0.2322382E+01  0.1965165E+00 -0.2102763E+00
 -0.9665100E+01 -0.2931880E+01 -0.2568960E-01  0.2968048E+00  0.2318000E+01  0.2017055E+00 -0.2177337E+00
 -0.9331180E+01 -0.3865100E+01 -0.2568960E-01  0.3015380E+00  0.2316229E+01  0.2045301E+00 -0.2215685E+00
 -0.8907400E+01 -0.4761110E+01 -0.2568960E-01  0.3028584E+00  0.2315538E+01  0.2052719E+00 -0.2226807E+00
 -0.8397840E+01 -0.5611260E+01 -0.2568960E-01  0.2998745E+00  0.2317015E+01  0.2035749E+00 -0.2201862E+00
 -0.7807400E+01 -0.6407370E+01 -0.2568960E-01  0.2937104E+00  0.2319271E+01  0.1998763E+00 -0.2152098E+00
 -0.7141780E+01 -0.7141780E+01 -0.2568960E-01  0.2834684E+00  0.2324438E+01  0.1939770E+00 -0.2067057E+00
 -0.6407370E+01 -0.7807410E+01 -0.2568960E-01  0.2700508E+00  0.2332082E+01  0.1862953E+00 -0.1955031E+00
 -0.5611260E+01 -0.8397850E+01 -0.2568960E-01  0.2527579E+00  0.2344921E+01  0.1767007E+00 -0.1807303E+00
 -0.4761110E+01 -0.8907410E+01 -0.2568960E-01  0.2329219E+00  0.2363187E+01  0.1658483E+00 -0.1635450E+00
 -0.3865100E+01 -0.9331190E+01 -0.2568960E-01  0.2102767E+00  0.2392452E+01  0.1539802E+00 -0.1432005E+00
 -0.2931870E+01 -0.9665100E+01 -0.2568960E-01  0.1857833E+00  0.2436423E+01  0.1414742E+00 -0.1204178E+00
 -0.1970410E+01 -0.9905930E+01 -0.2568960E-01  0.1594754E+00  0.2507406E+01  0.1284661E+00 -0.9449278E-01
 -0.9899710E+00 -0.1005140E+02 -0.2568960E-01  0.1333456E+00  0.2618780E+01  0.1155330E+00 -0.6658202E-01
  0.1204410E-06 -0.1010000E+02 -0.2568960E-01  0.1094508E+00  0.2801921E+01  0.1031972E+00 -0.3646650E-01
  0.9899760E+00 -0.1005140E+02 -0.2568960E-01  0.9174941E-01  0.3090418E+01  0.9162930E-01 -0.4693227E-02
  0.1970410E+01 -0.9905930E+01 -0.2568960E-01  0.8617910E-01 -0.2797564E+01  0.8112931E-01  0.2906669E-01
  0.2931880E+01 -0.9665100E+01 -0.2568960E-01  0.9613940E-01 -0.2415799E+01  0.7190965E-01  0.6381056E-01
  0.3865100E+01 -0.9331180E+01 -0.2568960E-01  0.1182293E+00 -0.2147295E+01  0.6444576E-01  0.9912064E-01
  0.4761110E+01 -0.8907410E+01 -0.2568960E-01  0.1469441E+00 -0.1981249E+01  0.5863424E-01  0.1347390E+00
  0.5611260E+01 -0.8397840E+01 -0.2568960E-01  0.1791386E+00 -0.1881271E+01  0.5472872E-01  0.1705738E+00
  0.6407370E+01 -0.7807410E+01 -0.2568960E-01  0.2125612E+00 -0.1820350E+01  0.5249648E-01  0.2059767E+00
  0.7141780E+01 -0.7141780E+01 -0.2568960E-01  0.2456557E+00 -0.1784370E+01  0.5206765E-01  0.2400743E+00
  0.7807410E+01 -0.6407370E+01 -0.2568960E-01  0.2781362E+00 -0.1763134E+01  0.5316678E-01  0.2730074E+00
  0.8397840E+01 -0.5611260E+01 -0.2568960E-01  0.3094121E+00 -0.1752244E+01  0.5583444E-01  0.3043326E+00
  0.8907410E+01 -0.4761110E+01 -0.2568960E-01  0.3392822E+00 -0.1747324E+01  0.5958196E-01  0.3340096E+00
  0.9331180E+01 -0.3865100E+01 -0.2568960E-01  0.3665763E+00 -0.1746695E+01  0.6414840E-01  0.3609199E+00
  0.9665100E+01 -0.2931870E+01 -0.2568960E-01  0.3918008E+00 -0.1748574E+01  0.6928696E-01  0.3856257E+00
  0.9905930E+01 -0.1970410E+01 -0.2568960E-01  0.4142860E+00 -0.1752387E+01  0.7481765E-01  0.4074742E+00
  0.1005140E+02 -0.9899690E+00 -0.2568960E-01  0.4344957E+00 -0.1756744E+01  0.8032855E-01  0.4270057E+00
  0.1010000E+02  0.0000000E+00 -0.1027320E+00  0.4498940E+00 -0.1761107E+01  0.8510379E-01  0.4417714E+00
  0.1005140E+02  0.9899730E+00 -0.1027320E+00  0.4637328E+00 -0.1765179E+01  0.8957496E-01  0.4549994E+00
  0.9905930E+01  0.1970410E+01 -0.1027320E+00  0.4742551E+00 -0.1768740E+01  0.9326410E-01  0.4649943E+00
  0.9665100E+01  0.2931880E+01 -0.1027320E+00  0.4820764E+00 -0.1771359E+01  0.9603969E-01  0.4724130E+00
  0.9331180E+01  0.3865100E+01 -0.1027320E+00  0.4862986E+00 -0.1772830E+01  0.9758162E-01  0.4764075E+00
  0.8907400E+01  0.4761110E+01 -0.1027320E+00  0.4873136E+00 -0.1773190E+01  0.9795722E-01  0.4773667E+00
  0.8397840E+01  0.5611260E+01 -0.1027320E+00  0.4847322E+00 -0.1772348E+01  0.9703864E-01  0.4749198E+00
  0.7807410E+01  0.6407370E+01 -0.1027320E+00  0.4793975E+00 -0.1770363E+01  0.9503815E-01  0.4698826E+00
  0.7141780E+01  0.7141780E+01 -0.1027320E+00  0.4705869E+00 -0.1767443E+01  0.9194427E-01  0.4615173E+00
  0.6407370E+01  0.7807410E+01 -0.1027320E+00  0.4586668E+00 -0.1763746E+01  0.8795150E-01  0.4501552E+00
  0.5611260E+01  0.8397840E+01 -0.1027320E+00  0.4432707E+00 -0.1759372E+01  0.8309542E-01  0.4354125E+00
  0.4761110E+01  0.8907410E+01 -0.1027320E+00  0.4253395E+00 -0.1754736E+01  0.7779619E-01  0.4181644E+00
  0.3865100E+01  0.9331180E+01 -0.1027320E+00  0.4044670E+00 -0.1750710E+01  0.7237738E-01  0.3979385E+00
  0.2931870E+01  0.9665100E+01 -0.1027320E+00  0.3809838E+00 -0.1747728E+01  0.6705684E-01  0.3750360E+00
  0.1970410E+01  0.9905930E+01 -0.1027320E+00  0.3546117E+00 -0.1746585E+01  0.6201620E-01  0.3491468E+00
  0.9899730E+00  0.1005140E+02 -0.1027320E+00  0.3263431E+00 -0.1748353E+01  0.5764051E-01  0.3212124E+00
 -0.4414850E-06  0.1010000E+02 -0.1027320E+00  0.2962492E+00 -0.1755479E+01  0.5440170E-01  0.2912113E+00
 -0.9899740E+00  0.1005140E+02 -0.1027320E+00  0.2646556E+00 -0.1770153E+01  0.5241200E-01  0.2594140E+00
 -0.1970410E+01  0.9905930E+01 -0.1027320E+00  0.2316114E+00 -0.1796738E+01  0.5188650E-01  0.2257247E+00
 -0.2931880E+01  0.9665100E+01 -0.1027320E+00  0.1982262E+00 -0.1841018E+01  0.5291547E-01  0.1910329E+00
 -0.3865100E+01  0.9331180E+01 -0.1027320E+00  0.1655324E+00 -0.1914689E+01  0.5580997E-01  0.1558404E+00
 -0.4761110E+01  0.8907400E+01 -0.1027320E+00  0.1346742E+00 -0.2036628E+01  0.6049104E-01  0.1203245E+00
 -0.5611260E+01  0.8397840E+01 -0.1027320E+00  0.1079488E+00 -0.2240959E+01  0.6704848E-01  0.8460166E-01
 -0.6407370E+01  0.7807410E+01 -0.1027320E+00  0.8992372E-01 -0.2560905E+01  0.7518391E-01  0.4933209E-01
 -0.7141780E+01  0.7141780E+01 -0.1027320E+00  0.8618811E-01 -0.2962644E+01  0.8481180E-01  0.1534109E-01
 -0.7807410E+01  0.6407370E+01 -0.1027320E+00  0.9726724E-01  0.2961947E+01  0.9570193E-01 -0.1737975E-01
 -0.8397840E+01  0.5611260E+01 -0.1027320E+00  0.1181781E+00  0.2718004E+01  0.1077335E+00 -0.4857521E-01
 -0.8907410E+01  0.4761110E+01 -0.1027320E+00  0.1434876E+00  0.2566275E+01  0.1203889E+00 -0.7807180E-01
 -0.9331180E+01  0.3865100E+01 -0.1027320E+00  0.1695572E+00  0.2474403E+01  0.1331981E+00 -0.1049187E+00
 -0.9665100E+01  0.2931880E+01 -0.1027320E+00  0.1950138E+00  0.2416310E+01  0.1459311E+00 -0.1293619E+00
 -0.9905930E+01  0.1970410E+01 -0.1027320E+00  0.2188528E+00  0.2379481E+01  0.1583136E+00 -0.1511070E+00
 -0.1005140E+02  0.9899730E+00 -0.1027320E+00  0.2406927E+00  0.2354581E+01  0.1699206E+00 -0.1704698E+00
 -0.1010000E+02 -0.8829700E-06 -0.1027320E+00  0.2593343E+00  0.2338728E+01  0.1801463E+00 -0.1865519E+00
 -0.1005140E+02 -0.9899740E+00 -0.1027320E+00  0.2749058E+00  0.2328354E+01  0.1889013E+00 -0.1997236E+00
 -0.9905930E+01 -0.1970410E+01 -0.1027320E+00  0.2869431E+00  0.2322238E+01  0.1958940E+00 -0.2096710E+00
 -0.9665100E+01 -0.2931880E+01 -0.1027320E+00  0.2958664E+00  0.2317934E+01  0.2010536E+00 -0.2170584E+00
 -0.9331180E+01 -0.3865100E+01 -0.1027320E+00  0.3007302E+00  0.2315948E+01  0.2039202E+00 -0.2210321E+00
 -0.8907400E+01 -0.4761110E+01 -0.1027320E+00  0.3018999E+00  0.2315475E+01  0.2046082E+00 -0.2219887E+00
 -0.8397840E+01 -0.5611260E+01 -0.1027320E+00  0.2989713E+00  0.2316882E+01  0.2029326E+00 -0.2195500E+00
 -0.7807400E+01 -0.6407370E+01 -0.1027320E+00  0.2927776E+00  0.2319201E+01  0.1992265E+00 -0.2145402E+00
 -0.7141780E+01 -0.7141780E+01 -0.1027320E+00  0.2827075E+00  0.2324124E+01  0.1933917E+00 -0.2062115E+00
 -0.6407370E+01 -0.7807410E+01 -0.1027320E+00  0.2691980E+00  0.2332000E+01  0.1856911E+00 -0.1949009E+00
 -0.5611260E+01 -0.8397850E+01 -0.1027320E+00  0.2519940E+00  0.2344736E+01  0.1761333E+00 -0.1802166E+00
 -0.4761110E+01 -0.8907410E+01 -0.1027320E+00  0.2321756E+00  0.2363075E+01  0.1652987E+00 -0.1630394E+00
 -0.3865100E+01 -0.9331190E+01 -0.1027320E+00  0.2097031E+00  0.2391958E+01  0.1534896E+00 -0.1428857E+00
 -0.2931870E+01 -0.9665100E+01 -0.1027320E+00  0.1851949E+00  0.2436257E+01  0.1410063E+00 -0.1200600E+00
 -0.1970410E+01 -0.9905930E+01 -0.1027320E+00  0.1589804E+00  0.2507052E+01  0.1280339E+00 -0.9424480E-01
 -0.9899710E+00 -0.1005140E+02 -0.1027320E+00  0.1329023E+00  0.2618576E+01  0.1151354E+00 -0.6638410E-01
  0.1204410E-06 -0.1010000E+02 -0.1027320E+00  0.1090980E+00  0.2800963E+01  0.1028297E+00 -0.3644749E-01
  0.9899760E+00 -0.1005140E+02 -0.1027320E+00  0.9143285E-01  0.3090080E+01  0.9131157E-01 -0.4707853E-02
  0.1970410E+01 -0.9905930E+01 -0.1027320E+00  0.8585646E-01 -0.2797817E+01  0.8083291E-01  0.2893739E-01
  0.2931880E+01 -0.9665100E+01 -0.1027320E+00  0.9580009E-01 -0.2415681E+01  0.7164834E-01  0.6359381E-01
  0.3865100E+01 -0.9331180E+01 -0.1027320E+00  0.1177891E+00 -0.2147029E+01  0.6417961E-01  0.9876865E-01
  0.4761110E+01 -0.8907410E+01 -0.1027320E+00  0.1464355E+00 -0.1981146E+01  0.5841754E-01  0.1342786E+00
  0.5611260E+01 -0.8397840E+01 -0.1027320E+00  0.1785401E+00 -0.1881085E+01  0.5451420E-01  0.1700140E+00
  0.6407370E+01 -0.7807410E+01 -0.1027320E+00  0.2118641E+00 -0.1820242E+01  0.5230227E-01  0.2053067E+00
  0.7141780E+01 -0.7141780E+01 -0.1027320E+00  0.2448891E+00 -0.1784132E+01  0.5184808E-01  0.2393375E+00
  0.7807410E+01 -0.6407370E+01 -0.1027320E+00  0.2772150E+00 -0.1763061E+01  0.5297095E-01  0.2721071E+00
  0.8397840E+01 -0.5611260E+01 -0.1027320E+00  0.3084235E+00 -0.1752154E+01  0.5562869E-01  0.3033653E+00
