 VARIABLES="X" "Y" "Z" "abs(eta) (m)" "angle(phi) (rad)" "PRE1" "PRE2"
ZONE N=   3200 ,E =    3136 ,F=FEPOINT,ET=QUADRILATERAL
  0.1100000E+02  0.0000000E+00  0.0000000E+00  0.1838905E+00 -0.1875092E+01  0.5509742E-01  0.1754422E+00
  0.1094700E+02  0.1078190E+01  0.0000000E+00  0.2071625E+00 -0.1844707E+01  0.5603718E-01  0.1994396E+00
  0.1078860E+02  0.2145990E+01  0.0000000E+00  0.2299488E+00 -0.1824814E+01  0.5778501E-01  0.2225699E+00
  0.1052630E+02  0.3193130E+01  0.0000000E+00  0.2511878E+00 -0.1813085E+01  0.6026619E-01  0.2438510E+00
  0.1016270E+02  0.4209520E+01  0.0000000E+00  0.2709489E+00 -0.1806144E+01  0.6318009E-01  0.2634797E+00
  0.9701130E+01  0.5185360E+01  0.0000000E+00  0.2895655E+00 -0.1802121E+01  0.6638785E-01  0.2818525E+00
  0.9146170E+01  0.6111270E+01  0.0000000E+00  0.3066337E+00 -0.1800388E+01  0.6978351E-01  0.2985875E+00
  0.8503110E+01  0.6978330E+01  0.0000000E+00  0.3209562E+00 -0.1800593E+01  0.7310742E-01  0.3125191E+00
  0.7778170E+01  0.7778170E+01  0.0000000E+00  0.3331656E+00 -0.1801489E+01  0.7617883E-01  0.3243395E+00
  0.6978330E+01  0.8503110E+01  0.0000000E+00  0.3437876E+00 -0.1802496E+01  0.7894473E-01  0.3346007E+00
  0.6111270E+01  0.9146170E+01  0.0000000E+00  0.3523052E+00 -0.1803547E+01  0.8126075E-01  0.3428055E+00
  0.5185360E+01  0.9701130E+01  0.0000000E+00  0.3574769E+00 -0.1804669E+01  0.8284394E-01  0.3477450E+00
  0.4209520E+01  0.1016270E+02  0.0000000E+00  0.3603117E+00 -0.1805354E+01  0.8374104E-01  0.3504453E+00
  0.3193130E+01  0.1052630E+02  0.0000000E+00  0.3614072E+00 -0.1805411E+01  0.8401568E-01  0.3515061E+00
  0.2145990E+01  0.1078860E+02  0.0000000E+00  0.3601697E+00 -0.1804949E+01  0.8356622E-01  0.3503411E+00
  0.1078190E+01  0.1094700E+02  0.0000000E+00  0.3554869E+00 -0.1804304E+01  0.8225654E-01  0.3458392E+00
 -0.4808250E-06  0.1100000E+02  0.0000000E+00  0.3485724E+00 -0.1803337E+01  0.8032881E-01  0.3391902E+00
 -0.1078190E+01  0.1094700E+02  0.0000000E+00  0.3399812E+00 -0.1802040E+01  0.7791965E-01  0.3309317E+00
 -0.2145990E+01  0.1078860E+02  0.0000000E+00  0.3291457E+00 -0.1800786E+01  0.7503439E-01  0.3204789E+00
 -0.3193130E+01  0.1052630E+02  0.0000000E+00  0.3152600E+00 -0.1800457E+01  0.7176793E-01  0.3069825E+00
 -0.4209520E+01  0.1016270E+02  0.0000000E+00  0.2995583E+00 -0.1801203E+01  0.6841125E-01  0.2916420E+00
 -0.5185370E+01  0.9701130E+01  0.0000000E+00  0.2824920E+00 -0.1803322E+01  0.6509639E-01  0.2748894E+00
 -0.6111270E+01  0.9146160E+01  0.0000000E+00  0.2636333E+00 -0.1807943E+01  0.6193552E-01  0.2562548E+00
 -0.6978330E+01  0.8503120E+01  0.0000000E+00  0.2426594E+00 -0.1817258E+01  0.5920254E-01  0.2353266E+00
 -0.7778170E+01  0.7778170E+01  0.0000000E+00  0.2206866E+00 -0.1832327E+01  0.5706068E-01  0.2131822E+00
 -0.8503120E+01  0.6978330E+01  0.0000000E+00  0.1980583E+00 -0.1855116E+01  0.5555630E-01  0.1901068E+00
 -0.9146170E+01  0.6111270E+01  0.0000000E+00  0.1746833E+00 -0.1890139E+01  0.5484054E-01  0.1658517E+00
 -0.9701130E+01  0.5185360E+01  0.0000000E+00  0.1509926E+00 -0.1944987E+01  0.5519065E-01  0.1405445E+00
 -0.1016270E+02  0.4209520E+01  0.0000000E+00  0.1281227E+00 -0.2027786E+01  0.5653389E-01  0.1149754E+00
 -0.1052630E+02  0.3193130E+01  0.0000000E+00  0.1068663E+00 -0.2153375E+01  0.5879555E-01  0.8923835E-01
 -0.1078860E+02  0.2145990E+01  0.0000000E+00  0.8867394E-01 -0.2346048E+01  0.6206250E-01  0.6333494E-01
 -0.1094700E+02  0.1078190E+01  0.0000000E+00  0.7647579E-01 -0.2623112E+01  0.6642483E-01  0.3789840E-01
 -0.1100000E+02 -0.9616510E-06  0.0000000E+00  0.7282444E-01 -0.2958420E+01  0.7160614E-01  0.1326499E-01
 -0.1094700E+02 -0.1078190E+01  0.0000000E+00  0.7819145E-01  0.3004081E+01  0.7745334E-01 -0.1071840E-01
 -0.1078860E+02 -0.2146000E+01  0.0000000E+00  0.9048569E-01  0.2758380E+01  0.8392262E-01 -0.3383275E-01
 -0.1052630E+02 -0.3193130E+01  0.0000000E+00  0.1062342E+00  0.2596413E+01  0.9083388E-01 -0.5509008E-01
 -0.1016270E+02 -0.4209520E+01  0.0000000E+00  0.1231221E+00  0.2489724E+01  0.9787612E-01 -0.7469481E-01
 -0.9701130E+01 -0.5185360E+01  0.0000000E+00  0.1402310E+00  0.2416087E+01  0.1049158E+00 -0.9304518E-01
 -0.9146160E+01 -0.6111270E+01  0.0000000E+00  0.1566679E+00  0.2365367E+01  0.1117924E+00 -0.1097602E+00
 -0.8503110E+01 -0.6978330E+01  0.0000000E+00  0.1710205E+00  0.2333295E+01  0.1181291E+00 -0.1236670E+00
 -0.7778170E+01 -0.7778180E+01  0.0000000E+00  0.1835010E+00  0.2311150E+01  0.1237804E+00 -0.1354660E+00
 -0.6978330E+01 -0.8503110E+01  0.0000000E+00  0.1944233E+00  0.2294356E+01  0.1287192E+00 -0.1457113E+00
 -0.6111270E+01 -0.9146170E+01  0.0000000E+00  0.2032432E+00  0.2282516E+01  0.1327456E+00 -0.1539039E+00
 -0.5185360E+01 -0.9701130E+01  0.0000000E+00  0.2087539E+00  0.2276969E+01  0.1354659E+00 -0.1588306E+00
 -0.4209510E+01 -0.1016270E+02  0.0000000E+00  0.2118005E+00  0.2274231E+01  0.1370013E+00 -0.1615243E+00
 -0.3193130E+01 -0.1052630E+02  0.0000000E+00  0.2129052E+00  0.2272650E+01  0.1374589E+00 -0.1625844E+00
 -0.2145990E+01 -0.1078860E+02  0.0000000E+00  0.2115222E+00  0.2273411E+01  0.1366888E+00 -0.1614243E+00
 -0.1078190E+01 -0.1094700E+02  0.0000000E+00  0.2066590E+00  0.2279264E+01  0.1344670E+00 -0.1569285E+00
  0.1311740E-06 -0.1100000E+02  0.0000000E+00  0.1994601E+00  0.2288249E+01  0.1311386E+00 -0.1502898E+00
  0.1078190E+01 -0.1094700E+02  0.0000000E+00  0.1904730E+00  0.2299910E+01  0.1268948E+00 -0.1420481E+00
  0.2145990E+01 -0.1078860E+02  0.0000000E+00  0.1792635E+00  0.2317097E+01  0.1217069E+00 -0.1316162E+00
  0.3193140E+01 -0.1052630E+02  0.0000000E+00  0.1653001E+00  0.2345412E+01  0.1156177E+00 -0.1181384E+00
  0.4209520E+01 -0.1016270E+02  0.0000000E+00  0.1498682E+00  0.2385528E+01  0.1090354E+00 -0.1028191E+00
  0.5185360E+01 -0.9701130E+01  0.0000000E+00  0.1335888E+00  0.2441280E+01  0.1021474E+00 -0.8609220E-01
  0.6111270E+01 -0.9146160E+01  0.0000000E+00  0.1165713E+00  0.2524218E+01  0.9505239E-01 -0.6748269E-01
  0.6978330E+01 -0.8503110E+01  0.0000000E+00  0.9957928E-01  0.2654892E+01  0.8801622E-01 -0.4657444E-01
  0.7778180E+01 -0.7778170E+01  0.0000000E+00  0.8491012E-01  0.2849531E+01  0.8131438E-01 -0.2444794E-01
  0.8503120E+01 -0.6978320E+01  0.0000000E+00  0.7505550E-01  0.3123046E+01  0.7504259E-01 -0.1391945E-02
  0.9146170E+01 -0.6111270E+01  0.0000000E+00  0.7302618E-01 -0.2823398E+01  0.6936041E-01  0.2284639E-01
  0.9701130E+01 -0.5185360E+01  0.0000000E+00  0.8055359E-01 -0.2500979E+01  0.6458216E-01  0.4814587E-01
  0.1016270E+02 -0.4209520E+01  0.0000000E+00  0.9550302E-01 -0.2259900E+01  0.6072516E-01  0.7371080E-01
  0.1052630E+02 -0.3193130E+01  0.0000000E+00  0.1149974E+00 -0.2096933E+01  0.5775123E-01  0.9944447E-01
  0.1078860E+02 -0.2145990E+01  0.0000000E+00  0.1371980E+00 -0.1989450E+01  0.5577514E-01  0.1253492E+00
  0.1094700E+02 -0.1078180E+01  0.0000000E+00  0.1605004E+00 -0.1920328E+01  0.5496464E-01  0.1507954E+00
  0.1100000E+02  0.0000000E+00 -0.2568960E-01  0.1837257E+00 -0.1875077E+01  0.5504544E-01  0.1752858E+00
  0.1094700E+02  0.1078190E+01 -0.2568960E-01  0.2069746E+00 -0.1844711E+01  0.5598709E-01  0.1992585E+00
  0.1078860E+02  0.2145990E+01 -0.2568960E-01  0.2297308E+00 -0.1824834E+01  0.5773458E-01  0.2223577E+00
  0.1052630E+02  0.3193130E+01 -0.2568960E-01  0.2509565E+00 -0.1813089E+01  0.6021176E-01  0.2436262E+00
  0.1016270E+02  0.4209520E+01 -0.2568960E-01  0.2707118E+00 -0.1806137E+01  0.6312309E-01  0.2632496E+00
  0.9701130E+01  0.5185360E+01 -0.2568960E-01  0.2893023E+00 -0.1802127E+01  0.6632932E-01  0.2815959E+00
  0.9146170E+01  0.6111270E+01 -0.2568960E-01  0.3063414E+00 -0.1800401E+01  0.6972103E-01  0.2983019E+00
  0.8503110E+01  0.6978330E+01 -0.2568960E-01  0.3206628E+00 -0.1800599E+01  0.7304217E-01  0.3122330E+00
  0.7778170E+01  0.7778170E+01 -0.2568960E-01  0.3328758E+00 -0.1801489E+01  0.7611268E-01  0.3240573E+00
  0.6978330E+01  0.8503110E+01 -0.2568960E-01  0.3434758E+00 -0.1802503E+01  0.7887552E-01  0.3342967E+00
  0.6111270E+01  0.9146170E+01 -0.2568960E-01  0.3519686E+00 -0.1803558E+01  0.8118713E-01  0.3424771E+00
  0.5185360E+01  0.9701130E+01 -0.2568960E-01  0.3571511E+00 -0.1804675E+01  0.8277071E-01  0.3474275E+00
  0.4209520E+01  0.1016270E+02 -0.2568960E-01  0.3599992E+00 -0.1805357E+01  0.8366948E-01  0.3501412E+00
  0.3193130E+01  0.1052630E+02 -0.2568960E-01  0.3610780E+00 -0.1805418E+01  0.8394162E-01  0.3511853E+00
  0.2145990E+01  0.1078860E+02 -0.2568960E-01  0.3598253E+00 -0.1804960E+01  0.8349021E-01  0.3500051E+00
  0.1078190E+01  0.1094700E+02 -0.2568960E-01  0.3551643E+00 -0.1804311E+01  0.8218440E-01  0.3455248E+00
 -0.4808250E-06  0.1100000E+02 -0.2568960E-01  0.3482692E+00 -0.1803339E+01  0.8025965E-01  0.3388950E+00
 -0.1078190E+01  0.1094700E+02 -0.2568960E-01  0.3396708E+00 -0.1802046E+01  0.7785050E-01  0.3306291E+00
 -0.2145990E+01  0.1078860E+02 -0.2568960E-01  0.3288314E+00 -0.1800799E+01  0.7496694E-01  0.3201719E+00
 -0.3193130E+01  0.1052630E+02 -0.2568960E-01  0.3149731E+00 -0.1800464E+01  0.7170492E-01  0.3067025E+00
 -0.4209520E+01  0.1016270E+02 -0.2568960E-01  0.2992967E+00 -0.1801200E+01  0.6835058E-01  0.2913876E+00
 -0.5185370E+01  0.9701130E+01 -0.2568960E-01  0.2822337E+00 -0.1803326E+01  0.6503794E-01  0.2746378E+00
 -0.6111270E+01  0.9146160E+01 -0.2568960E-01  0.2633827E+00 -0.1807961E+01  0.6188107E-01  0.2560101E+00
 -0.6978330E+01  0.8503120E+01 -0.2568960E-01  0.2424392E+00 -0.1817262E+01  0.5914989E-01  0.2351128E+00
 -0.7778170E+01  0.7778170E+01 -0.2568960E-01  0.2204906E+00 -0.1832316E+01  0.5700763E-01  0.2129935E+00
 -0.8503120E+01  0.6978330E+01 -0.2568960E-01  0.1978748E+00 -0.1855121E+01  0.5550577E-01  0.1899304E+00
 -0.9146170E+01  0.6111270E+01 -0.2568960E-01  0.1745192E+00 -0.1890164E+01  0.5479311E-01  0.1656945E+00
 -0.9701130E+01  0.5185360E+01 -0.2568960E-01  0.1508553E+00 -0.1944989E+01  0.5514078E-01  0.1404166E+00
 -0.1016270E+02  0.4209520E+01 -0.2568960E-01  0.1280039E+00 -0.2027772E+01  0.5647993E-01  0.1148696E+00
 -0.1052630E+02  0.3193130E+01 -0.2568960E-01  0.1067656E+00 -0.2153398E+01  0.5874221E-01  0.8915292E-01
 -0.1078860E+02  0.2145990E+01 -0.2568960E-01  0.8859452E-01 -0.2346072E+01  0.6200848E-01  0.6327668E-01
 -0.1094700E+02  0.1078190E+01 -0.2568960E-01  0.7640568E-01 -0.2623120E+01  0.6636424E-01  0.3786312E-01
 -0.1100000E+02 -0.9616510E-06 -0.2568960E-01  0.7275533E-01 -0.2958521E+01  0.7153952E-01  0.1324517E-01
 -0.1094700E+02 -0.1078190E+01 -0.2568960E-01  0.7812190E-01  0.3004020E+01  0.7738379E-01 -0.1071355E-01
 -0.1078860E+02 -0.2146000E+01 -0.2568960E-01  0.9040263E-01  0.2758439E+01  0.8384755E-01 -0.3379681E-01
 -0.1052630E+02 -0.3193130E+01 -0.2568960E-01  0.1061387E+00  0.2596397E+01  0.9075133E-01 -0.5504195E-01
 -0.1016270E+02 -0.4209520E+01 -0.2568960E-01  0.1230191E+00  0.2489645E+01  0.9778831E-01 -0.7464003E-01
 -0.9701130E+01 -0.5185360E+01 -0.2568960E-01  0.1401080E+00  0.2416070E+01  0.1048222E+00 -0.9296533E-01
 -0.9146160E+01 -0.6111270E+01 -0.2568960E-01  0.1565187E+00  0.2365411E+01  0.1116907E+00 -0.1096507E+00
 -0.8503110E+01 -0.6978330E+01 -0.2568960E-01  0.1708678E+00  0.2333289E+01  0.1180228E+00 -0.1235574E+00
 -0.7778170E+01 -0.7778180E+01 -0.2568960E-01  0.1833491E+00  0.2311104E+01  0.1236718E+00 -0.1353594E+00
 -0.6978330E+01 -0.8503110E+01 -0.2568960E-01  0.1942514E+00  0.2294351E+01  0.1286047E+00 -0.1455830E+00
 -0.6111270E+01 -0.9146170E+01 -0.2568960E-01  0.2030485E+00  0.2282551E+01  0.1326238E+00 -0.1537518E+00
 -0.5185360E+01 -0.9701130E+01 -0.2568960E-01  0.2085678E+00  0.2276965E+01  0.1353445E+00 -0.1586896E+00
 -0.4209510E+01 -0.1016270E+02 -0.2568960E-01  0.2116257E+00  0.2274195E+01  0.1368824E+00 -0.1613960E+00
 -0.3193130E+01 -0.1052630E+02 -0.2568960E-01  0.2127157E+00  0.2272645E+01  0.1373358E+00 -0.1624402E+00
 -0.2145990E+01 -0.1078860E+02 -0.2568960E-01  0.2113193E+00  0.2273443E+01  0.1365630E+00 -0.1612649E+00
 -0.1078190E+01 -0.1094700E+02 -0.2568960E-01  0.2064759E+00  0.2279259E+01  0.1343471E+00 -0.1567902E+00
  0.1311740E-06 -0.1100000E+02 -0.2568960E-01  0.1992953E+00  0.2288210E+01  0.1310243E+00 -0.1501708E+00
  0.1078190E+01 -0.1094700E+02 -0.2568960E-01  0.1903030E+00  0.2299904E+01  0.1267807E+00 -0.1419221E+00
  0.2145990E+01 -0.1078860E+02 -0.2568960E-01  0.1790919E+00  0.2317136E+01  0.1215956E+00 -0.1314855E+00
  0.3193140E+01 -0.1052630E+02 -0.2568960E-01  0.1651547E+00  0.2345402E+01  0.1155148E+00 -0.1180356E+00
  0.4209520E+01 -0.1016270E+02 -0.2568960E-01  0.1497440E+00  0.2385465E+01  0.1089385E+00 -0.1027408E+00
  0.5185360E+01 -0.9701130E+01 -0.2568960E-01  0.1334693E+00  0.2441268E+01  0.1020550E+00 -0.8601639E-01
  0.6111270E+01 -0.9146160E+01 -0.2568960E-01  0.1164618E+00  0.2524272E+01  0.9496673E-01 -0.6741421E-01
  0.6978330E+01 -0.8503110E+01 -0.2568960E-01  0.9949200E-01  0.2654855E+01  0.8793737E-01 -0.4653683E-01
  0.7778180E+01 -0.7778170E+01 -0.2568960E-01  0.8483516E-01  0.2849414E+01  0.8123974E-01 -0.2443584E-01
  0.8503120E+01 -0.6978320E+01 -0.2568960E-01  0.7498719E-01  0.3123027E+01  0.7497426E-01 -0.1392106E-02
  0.9146170E+01 -0.6111270E+01 -0.2568960E-01  0.7296222E-01 -0.2823385E+01  0.6929935E-01  0.2282732E-01
  0.9701130E+01 -0.5185360E+01 -0.2568960E-01  0.8047807E-01 -0.2501027E+01  0.6452393E-01  0.4809764E-01
  0.1016270E+02 -0.4209520E+01 -0.2568960E-01  0.9541181E-01 -0.2259906E+01  0.6066759E-01  0.7364005E-01
  0.1052630E+02 -0.3193130E+01 -0.2568960E-01  0.1148925E+00 -0.2096933E+01  0.5769861E-01  0.9935372E-01
  0.1078860E+02 -0.2145990E+01 -0.2568960E-01  0.1370705E+00 -0.1989479E+01  0.5572696E-01  0.1252311E+00
  0.1094700E+02 -0.1078180E+01 -0.2568960E-01  0.1603509E+00 -0.1920335E+01  0.5491445E-01  0.1506546E+00
  0.1100000E+02  0.0000000E+00 -0.1027320E+00  0.1832241E+00 -0.1875015E+01  0.5488432E-01  0.1748107E+00
  0.1094700E+02  0.1078190E+01 -0.1027320E+00  0.2064034E+00 -0.1844704E+01  0.5583118E-01  0.1987090E+00
  0.1078860E+02  0.2145990E+01 -0.1027320E+00  0.2290726E+00 -0.1824879E+01  0.5757904E-01  0.2217181E+00
  0.1052630E+02  0.3193130E+01 -0.1027320E+00  0.2502571E+00 -0.1813098E+01  0.6004618E-01  0.2429467E+00
  0.1016270E+02  0.4209520E+01 -0.1027320E+00  0.2699843E+00 -0.1806131E+01  0.6295179E-01  0.2625425E+00
  0.9701130E+01  0.5185360E+01 -0.1027320E+00  0.2885038E+00 -0.1802156E+01  0.6615435E-01  0.2808167E+00
  0.9146170E+01  0.6111270E+01 -0.1027320E+00  0.3054590E+00 -0.1800457E+01  0.6953701E-01  0.2974387E+00
  0.8503110E+01  0.6978330E+01 -0.1027320E+00  0.3197727E+00 -0.1800635E+01  0.7285083E-01  0.3113637E+00
  0.7778170E+01  0.7778170E+01 -0.1027320E+00  0.3319876E+00 -0.1801520E+01  0.7591958E-01  0.3231904E+00
  0.6978330E+01  0.8503110E+01 -0.1027320E+00  0.3425271E+00 -0.1802553E+01  0.7867413E-01  0.3333694E+00
  0.6111270E+01  0.9146170E+01 -0.1027320E+00  0.3509517E+00 -0.1803623E+01  0.8097467E-01  0.3414823E+00
  0.5185360E+01  0.9701130E+01 -0.1027320E+00  0.3561618E+00 -0.1804728E+01  0.8255979E-01  0.3464609E+00
  0.4209520E+01  0.1016270E+02 -0.1027320E+00  0.3590395E+00 -0.1805404E+01  0.8346299E-01  0.3492039E+00
  0.3193130E+01  0.1052630E+02 -0.1027320E+00  0.3600786E+00 -0.1805473E+01  0.8372857E-01  0.3502087E+00
  0.2145990E+01  0.1078860E+02 -0.1027320E+00  0.3587858E+00 -0.1805026E+01  0.8327202E-01  0.3489886E+00
  0.1078190E+01  0.1094700E+02 -0.1027320E+00  0.3541821E+00 -0.1804365E+01  0.8197563E-01  0.3445649E+00
 -0.4808250E-06  0.1100000E+02 -0.1027320E+00  0.3473402E+00 -0.1803380E+01  0.8005913E-01  0.3379878E+00
 -0.1078190E+01  0.1094700E+02 -0.1027320E+00  0.3387287E+00 -0.1802091E+01  0.7764940E-01  0.3297085E+00
 -0.2145990E+01  0.1078860E+02 -0.1027320E+00  0.3278827E+00 -0.1800859E+01  0.7476992E-01  0.3192437E+00
 -0.3193130E+01  0.1052630E+02 -0.1027320E+00  0.3141038E+00 -0.1800503E+01  0.7151885E-01  0.3058533E+00
 -0.4209520E+01  0.1016270E+02 -0.1027320E+00  0.2984951E+00 -0.1801212E+01  0.6817089E-01  0.2906064E+00
 -0.5185370E+01  0.9701130E+01 -0.1027320E+00  0.2814481E+00 -0.1803348E+01  0.6486279E-01  0.2738720E+00
 -0.6111270E+01  0.9146160E+01 -0.1027320E+00  0.2626256E+00 -0.1808010E+01  0.6171583E-01  0.2552712E+00
 -0.6978330E+01  0.8503120E+01 -0.1027320E+00  0.2417706E+00 -0.1817271E+01  0.5898882E-01  0.2344639E+00
 -0.7778170E+01  0.7778170E+01 -0.1027320E+00  0.2198944E+00 -0.1832277E+01  0.5684522E-01  0.2124197E+00
 -0.8503120E+01  0.6978330E+01 -0.1027320E+00  0.1973204E+00 -0.1855114E+01  0.5534882E-01  0.1893987E+00
 -0.9146170E+01  0.6111270E+01 -0.1027320E+00  0.1740232E+00 -0.1890202E+01  0.5464377E-01  0.1652215E+00
 -0.9701130E+01  0.5185360E+01 -0.1027320E+00  0.1504380E+00 -0.1944954E+01  0.5498341E-01  0.1400301E+00
 -0.1016270E+02  0.4209520E+01 -0.1027320E+00  0.1276448E+00 -0.2027685E+01  0.5631157E-01  0.1145521E+00
 -0.1052630E+02  0.3193130E+01 -0.1027320E+00  0.1064608E+00 -0.2153391E+01  0.5857393E-01  0.8889882E-01
 -0.1078860E+02  0.2145990E+01 -0.1027320E+00  0.8835176E-01 -0.2346061E+01  0.6183784E-01  0.6310400E-01
 -0.1094700E+02  0.1078190E+01 -0.1027320E+00  0.7619004E-01 -0.2623070E+01  0.6617502E-01  0.3775961E-01
 -0.1100000E+02 -0.9616510E-06 -0.1027320E+00  0.7254358E-01 -0.2958709E+01  0.7133380E-01  0.1319319E-01
 -0.1094700E+02 -0.1078190E+01 -0.1027320E+00  0.7790632E-01  0.3003924E+01  0.7716922E-01 -0.1069140E-01
 -0.1078860E+02 -0.2146000E+01 -0.1027320E+00  0.9014802E-01  0.2758644E+01  0.8361831E-01 -0.3368445E-01
 -0.1052630E+02 -0.3193130E+01 -0.1027320E+00  0.1058457E+00  0.2596406E+01  0.9050126E-01 -0.5488924E-01
 -0.1016270E+02 -0.4209520E+01 -0.1027320E+00  0.1227000E+00  0.2489492E+01  0.9752330E-01 -0.7446133E-01
 -0.9701130E+01 -0.5185360E+01 -0.1027320E+00  0.1397310E+00  0.2416083E+01  0.1045413E+00 -0.9271387E-01
 -0.9146160E+01 -0.6111270E+01 -0.1027320E+00  0.1560671E+00  0.2365588E+01  0.1113878E+00 -0.1093147E+00
 -0.8503110E+01 -0.6978330E+01 -0.1027320E+00  0.1704023E+00  0.2333335E+01  0.1177070E+00 -0.1232153E+00
 -0.7778170E+01 -0.7778180E+01 -0.1027320E+00  0.1828815E+00  0.2311058E+01  0.1233501E+00 -0.1350200E+00
 -0.6978330E+01 -0.8503110E+01 -0.1027320E+00  0.1937273E+00  0.2294409E+01  0.1282661E+00 -0.1451829E+00
 -0.6111270E+01 -0.9146170E+01 -0.1027320E+00  0.2024612E+00  0.2282717E+01  0.1322658E+00 -0.1532851E+00
 -0.5185360E+01 -0.9701130E+01 -0.1027320E+00  0.2080026E+00  0.2277030E+01  0.1349881E+00 -0.1582507E+00
 -0.4209510E+01 -0.1016270E+02 -0.1027320E+00  0.2110868E+00  0.2274184E+01  0.1365319E+00 -0.1609866E+00
 -0.3193130E+01 -0.1052630E+02 -0.1027320E+00  0.2121403E+00  0.2272714E+01  0.1369754E+00 -0.1619915E+00
 -0.2145990E+01 -0.1078860E+02 -0.1027320E+00  0.2107084E+00  0.2273609E+01  0.1361948E+00 -0.1607762E+00
 -0.1078190E+01 -0.1094700E+02 -0.1027320E+00  0.2059183E+00  0.2279324E+01  0.1339944E+00 -0.1563581E+00
  0.1311740E-06 -0.1100000E+02 -0.1027320E+00  0.1987877E+00  0.2288183E+01  0.1306866E+00 -0.1497917E+00
  0.1078190E+01 -0.1094700E+02 -0.1027320E+00  0.1897860E+00  0.2299962E+01  0.1264445E+00 -0.1415292E+00
  0.2145990E+01 -0.1078860E+02 -0.1027320E+00  0.1785747E+00  0.2317306E+01  0.1212666E+00 -0.1310852E+00
  0.3193140E+01 -0.1052630E+02 -0.1027320E+00  0.1647100E+00  0.2345438E+01  0.1152080E+00 -0.1177136E+00
  0.4209520E+01 -0.1016270E+02 -0.1027320E+00  0.1493596E+00  0.2385368E+01  0.1086489E+00 -0.1024877E+00
  0.5185360E+01 -0.9701130E+01 -0.1027320E+00  0.1331035E+00  0.2441294E+01  0.1017776E+00 -0.8577807E-01
  0.6111270E+01 -0.9146160E+01 -0.1027320E+00  0.1161285E+00  0.2524467E+01  0.9470799E-01 -0.6720280E-01
  0.6978330E+01 -0.8503110E+01 -0.1027320E+00  0.9922295E-01  0.2654808E+01  0.8769734E-01 -0.4641519E-01
  0.7778180E+01 -0.7778170E+01 -0.1027320E+00  0.8460338E-01  0.2849167E+01  0.8101175E-01 -0.2438910E-01
  0.8503120E+01 -0.6978320E+01 -0.1027320E+00  0.7477609E-01  0.3123037E+01  0.7476322E-01 -0.1387430E-02
  0.9146170E+01 -0.6111270E+01 -0.1027320E+00  0.7276459E-01 -0.2823271E+01  0.6910903E-01  0.2277339E-01
