 VARIABLES="X" "Y" "Z" "abs(eta) (m)" "angle(phi) (rad)" "PRE1" "PRE2"
ZONE N=   3200 ,E =    3136 ,F=FEPOINT,ET=QUADRILATERAL
  0.1100000E+02  0.0000000E+00  0.0000000E+00  0.4141048E+00 -0.1549469E+01 -0.8830900E-02  0.4140106E+00
  0.1094700E+02  0.1078190E+01  0.0000000E+00  0.4514580E+00 -0.1550307E+01 -0.9249533E-02  0.4513632E+00
  0.1078860E+02  0.2145990E+01  0.0000000E+00  0.4856628E+00 -0.1555126E+01 -0.7610176E-02  0.4856032E+00
  0.1052630E+02  0.3193130E+01  0.0000000E+00  0.5162867E+00 -0.1562524E+01 -0.4270759E-02  0.5162690E+00
  0.1016270E+02  0.4209520E+01  0.0000000E+00  0.5436179E+00 -0.1571435E+01  0.3472071E-03  0.5436178E+00
  0.9701130E+01  0.5185360E+01  0.0000000E+00  0.5681689E+00 -0.1580747E+01  0.5653382E-02  0.5681408E+00
  0.9146170E+01  0.6111270E+01  0.0000000E+00  0.5889801E+00 -0.1589529E+01  0.1103266E-01  0.5888768E+00
  0.8503110E+01  0.6978330E+01  0.0000000E+00  0.6056504E+00 -0.1597320E+01  0.1606228E-01  0.6054374E+00
  0.7778170E+01  0.7778170E+01  0.0000000E+00  0.6186721E+00 -0.1603957E+01  0.2051188E-01  0.6183320E+00
  0.6978330E+01  0.8503110E+01  0.0000000E+00  0.6288761E+00 -0.1609290E+01  0.2420162E-01  0.6284102E+00
  0.6111270E+01  0.9146170E+01  0.0000000E+00  0.6353168E+00 -0.1612699E+01  0.2661373E-01  0.6347592E+00
  0.5185360E+01  0.9701130E+01  0.0000000E+00  0.6375356E+00 -0.1613943E+01  0.2749920E-01  0.6369423E+00
  0.4209520E+01  0.1016270E+02  0.0000000E+00  0.6360267E+00 -0.1613158E+01  0.2693503E-01  0.6354561E+00
  0.3193130E+01  0.1052630E+02  0.0000000E+00  0.6317334E+00 -0.1610749E+01  0.2523270E-01  0.6312293E+00
  0.2145990E+01  0.1078860E+02  0.0000000E+00  0.6237343E+00 -0.1606497E+01  0.2226312E-01  0.6233369E+00
  0.1078190E+01  0.1094700E+02  0.0000000E+00  0.6115224E+00 -0.1600359E+01  0.1807562E-01  0.6112552E+00
 -0.4808250E-06  0.1100000E+02  0.0000000E+00  0.5955302E+00 -0.1592644E+01  0.1300980E-01  0.5953881E+00
 -0.1078190E+01  0.1094700E+02  0.0000000E+00  0.5767071E+00 -0.1584094E+01  0.7668473E-02  0.5766562E+00
 -0.2145990E+01  0.1078860E+02  0.0000000E+00  0.5543165E+00 -0.1575163E+01  0.2420656E-02  0.5543112E+00
 -0.3193130E+01  0.1052630E+02  0.0000000E+00  0.5279127E+00 -0.1566249E+01 -0.2400549E-02  0.5279073E+00
 -0.4209520E+01  0.1016270E+02  0.0000000E+00  0.4978945E+00 -0.1558015E+01 -0.6363753E-02  0.4978538E+00
 -0.5185370E+01  0.9701130E+01  0.0000000E+00  0.4652323E+00 -0.1551607E+01 -0.8927057E-02  0.4651466E+00
 -0.6111270E+01  0.9146160E+01  0.0000000E+00  0.4296452E+00 -0.1548853E+01 -0.9427241E-02  0.4295418E+00
 -0.6978330E+01  0.8503120E+01  0.0000000E+00  0.3910106E+00 -0.1551748E+01 -0.7447700E-02  0.3909396E+00
 -0.7778170E+01  0.7778170E+01  0.0000000E+00  0.3498482E+00 -0.1562969E+01 -0.2738495E-02  0.3498375E+00
 -0.8503120E+01  0.6978330E+01  0.0000000E+00  0.3072885E+00 -0.1586404E+01  0.4795728E-02  0.3072511E+00
 -0.9146170E+01  0.6111270E+01  0.0000000E+00  0.2640888E+00 -0.1630038E+01  0.1563594E-01  0.2636256E+00
 -0.9701130E+01  0.5185360E+01  0.0000000E+00  0.2213124E+00 -0.1706485E+01  0.2993759E-01  0.2192782E+00
 -0.1016270E+02  0.4209520E+01  0.0000000E+00  0.1810071E+00 -0.1836609E+01  0.4754936E-01  0.1746501E+00
 -0.1052630E+02  0.3193130E+01  0.0000000E+00  0.1471124E+00 -0.2051036E+01  0.6796464E-01  0.1304717E+00
 -0.1078860E+02  0.2145990E+01  0.0000000E+00  0.1264018E+00 -0.2375031E+01  0.9104721E-01  0.8768015E-01
 -0.1094700E+02  0.1078190E+01  0.0000000E+00  0.1255328E+00 -0.2759538E+01  0.1164820E+00  0.4680213E-01
 -0.1100000E+02 -0.9616510E-06  0.0000000E+00  0.1439917E+00 -0.3086403E+01  0.1437725E+00  0.7942879E-02
 -0.1094700E+02 -0.1078190E+01  0.0000000E+00  0.1744822E+00  0.2975773E+01  0.1720888E+00 -0.2880016E-01
 -0.1078860E+02 -0.2146000E+01  0.0000000E+00  0.2101100E+00  0.2840204E+01  0.2006393E+00 -0.6237036E-01
 -0.1052630E+02 -0.3193130E+01  0.0000000E+00  0.2466741E+00  0.2758109E+01  0.2287574E+00 -0.9229397E-01
 -0.1016270E+02 -0.4209520E+01  0.0000000E+00  0.2821977E+00  0.2706709E+01  0.2559304E+00 -0.1188914E+00
 -0.9701130E+01 -0.5185360E+01  0.0000000E+00  0.3156527E+00  0.2672407E+01  0.2815422E+00 -0.1427256E+00
 -0.9146160E+01 -0.6111270E+01  0.0000000E+00  0.3452994E+00  0.2650562E+01  0.3045013E+00 -0.1628209E+00
 -0.8503110E+01 -0.6978330E+01  0.0000000E+00  0.3701456E+00  0.2637509E+01  0.3241059E+00 -0.1787823E+00
 -0.7778170E+01 -0.7778180E+01  0.0000000E+00  0.3901968E+00  0.2629574E+01  0.3401568E+00 -0.1911723E+00
 -0.6978330E+01 -0.8503110E+01  0.0000000E+00  0.4058464E+00  0.2623749E+01  0.3526352E+00 -0.2008973E+00
 -0.6111270E+01 -0.9146170E+01  0.0000000E+00  0.4158210E+00  0.2620461E+01  0.3606235E+00 -0.2070213E+00
 -0.5185360E+01 -0.9701130E+01  0.0000000E+00  0.4194905E+00  0.2619797E+01  0.3636670E+00 -0.2090900E+00
 -0.4209510E+01 -0.1016270E+02  0.0000000E+00  0.4173079E+00  0.2620822E+01  0.3619879E+00 -0.2076311E+00
 -0.3193130E+01 -0.1052630E+02  0.0000000E+00  0.4103051E+00  0.2622342E+01  0.3562233E+00 -0.2036055E+00
 -0.2145990E+01 -0.1078860E+02  0.0000000E+00  0.3976636E+00  0.2626063E+01  0.3459799E+00 -0.1960464E+00
 -0.1078190E+01 -0.1094700E+02  0.0000000E+00  0.3790741E+00  0.2633598E+01  0.3312053E+00 -0.1843915E+00
  0.1311740E-06 -0.1100000E+02  0.0000000E+00  0.3552771E+00  0.2645678E+01  0.3124783E+00 -0.1690537E+00
  0.1078190E+01 -0.1094700E+02  0.0000000E+00  0.3276898E+00  0.2662788E+01  0.2908399E+00 -0.1509728E+00
  0.2145990E+01 -0.1078860E+02  0.0000000E+00  0.2962913E+00  0.2689876E+01  0.2665730E+00 -0.1293344E+00
  0.3193140E+01 -0.1052630E+02  0.0000000E+00  0.2614454E+00  0.2734004E+01  0.2400276E+00 -0.1036360E+00
  0.4209520E+01 -0.1016270E+02  0.0000000E+00  0.2245763E+00  0.2804430E+01  0.2119320E+00 -0.7429235E-01
  0.5185360E+01 -0.9701130E+01  0.0000000E+00  0.1881343E+00  0.2914724E+01  0.1833134E+00 -0.4231662E-01
  0.6111270E+01 -0.9146160E+01  0.0000000E+00  0.1551147E+00  0.3093944E+01  0.1549386E+00 -0.7388167E-02
  0.6978330E+01 -0.8503110E+01  0.0000000E+00  0.1309972E+00 -0.2905411E+01  0.1273606E+00  0.3065231E-01
  0.7778180E+01 -0.7778170E+01  0.0000000E+00  0.1237388E+00 -0.2527570E+01  0.1011363E+00  0.7129329E-01
  0.8503120E+01 -0.6978320E+01  0.0000000E+00  0.1370416E+00 -0.2165871E+01  0.7682149E-01  0.1134851E+00
  0.9146170E+01 -0.6111270E+01  0.0000000E+00  0.1662710E+00 -0.1909052E+01  0.5517576E-01  0.1568493E+00
  0.9701130E+01 -0.5185360E+01  0.0000000E+00  0.2044193E+00 -0.1750744E+01  0.3658653E-01  0.2011185E+00
  0.1016270E+02 -0.4209520E+01  0.0000000E+00  0.2467249E+00 -0.1656726E+01  0.2117491E-01  0.2458146E+00
  0.1052630E+02 -0.3193130E+01  0.0000000E+00  0.2902865E+00 -0.1601118E+01  0.8800663E-02  0.2901531E+00
  0.1078860E+02 -0.2145990E+01  0.0000000E+00  0.3332415E+00 -0.1570002E+01 -0.2647645E-03  0.3332414E+00
  0.1094700E+02 -0.1078180E+01  0.0000000E+00  0.3746303E+00 -0.1554668E+01 -0.6041947E-02  0.3745815E+00
  0.1100000E+02  0.0000000E+00 -0.2568960E-01  0.4134558E+00 -0.1549486E+01 -0.8810076E-02  0.4133620E+00
  0.1094700E+02  0.1078190E+01 -0.2568960E-01  0.4507335E+00 -0.1550333E+01 -0.9222934E-02  0.4506392E+00
  0.1078860E+02  0.2145990E+01 -0.2568960E-01  0.4848666E+00 -0.1555160E+01 -0.7581100E-02  0.4848073E+00
  0.1052630E+02  0.3193130E+01 -0.2568960E-01  0.5154656E+00 -0.1562557E+01 -0.4246965E-02  0.5154481E+00
  0.1016270E+02  0.4209520E+01 -0.2568960E-01  0.5427751E+00 -0.1571466E+01  0.3635685E-03  0.5427750E+00
  0.9701130E+01  0.5185360E+01 -0.2568960E-01  0.5672638E+00 -0.1580775E+01  0.5660199E-02  0.5672356E+00
  0.9146170E+01  0.6111270E+01 -0.2568960E-01  0.5880154E+00 -0.1589553E+01  0.1102837E-01  0.5879120E+00
  0.8503110E+01  0.6978330E+01 -0.2568960E-01  0.6046878E+00 -0.1597353E+01  0.1605675E-01  0.6044746E+00
  0.7778170E+01  0.7778170E+01 -0.2568960E-01  0.6177145E+00 -0.1603997E+01  0.2050490E-01  0.6173741E+00
  0.6978330E+01  0.8503110E+01 -0.2568960E-01  0.6278753E+00 -0.1609320E+01  0.2418178E-01  0.6274095E+00
  0.6111270E+01  0.9146170E+01 -0.2568960E-01  0.6342763E+00 -0.1612718E+01  0.2658226E-01  0.6337191E+00
  0.5185360E+01  0.9701130E+01 -0.2568960E-01  0.6365224E+00 -0.1613974E+01  0.2747517E-01  0.6359292E+00
  0.4209520E+01  0.1016270E+02 -0.2568960E-01  0.6350428E+00 -0.1613200E+01  0.2692024E-01  0.6344720E+00
  0.3193130E+01  0.1052630E+02 -0.2568960E-01  0.6307295E+00 -0.1610781E+01  0.2521271E-01  0.6302254E+00
  0.2145990E+01  0.1078860E+02 -0.2568960E-01  0.6227129E+00 -0.1606517E+01  0.2223902E-01  0.6223156E+00
  0.1078190E+01  0.1094700E+02 -0.2568960E-01  0.6105497E+00 -0.1600388E+01  0.1806433E-01  0.6102824E+00
 -0.4808250E-06  0.1100000E+02 -0.2568960E-01  0.5946088E+00 -0.1592681E+01  0.1301189E-01  0.5944664E+00
 -0.1078190E+01  0.1094700E+02 -0.2568960E-01  0.5757911E+00 -0.1584126E+01  0.7674767E-02  0.5757399E+00
 -0.2145990E+01  0.1078860E+02 -0.2568960E-01  0.5534086E+00 -0.1575190E+01  0.2431338E-02  0.5534032E+00
 -0.3193130E+01  0.1052630E+02 -0.2568960E-01  0.5270699E+00 -0.1566275E+01 -0.2382897E-02  0.5270646E+00
 -0.4209520E+01  0.1016270E+02 -0.2568960E-01  0.4971192E+00 -0.1558040E+01 -0.6341091E-02  0.4970787E+00
 -0.5185370E+01  0.9701130E+01 -0.2568960E-01  0.4644922E+00 -0.1551640E+01 -0.8897623E-02  0.4644069E+00
 -0.6111270E+01  0.9146160E+01 -0.2568960E-01  0.4289404E+00 -0.1548895E+01 -0.9393513E-02  0.4288376E+00
 -0.6978330E+01  0.8503120E+01 -0.2568960E-01  0.3903799E+00 -0.1551776E+01 -0.7424766E-02  0.3903093E+00
 -0.7778170E+01  0.7778170E+01 -0.2568960E-01  0.3492942E+00 -0.1562980E+01 -0.2730033E-02  0.3492835E+00
 -0.8503120E+01  0.6978330E+01 -0.2568960E-01  0.3067942E+00 -0.1586441E+01  0.4799396E-02  0.3067566E+00
 -0.9146170E+01  0.6111270E+01 -0.2568960E-01  0.2636554E+00 -0.1630114E+01  0.1563038E-01  0.2631916E+00
 -0.9701130E+01  0.5185360E+01 -0.2568960E-01  0.2209458E+00 -0.1706544E+01  0.2990081E-01  0.2189132E+00
 -0.1016270E+02  0.4209520E+01 -0.2568960E-01  0.1807020E+00 -0.1836650E+01  0.4747631E-01  0.1743537E+00
 -0.1052630E+02  0.3193130E+01 -0.2568960E-01  0.1468706E+00 -0.2051136E+01  0.6786603E-01  0.1302505E+00
 -0.1078860E+02  0.2145990E+01 -0.2568960E-01  0.1262073E+00 -0.2375166E+01  0.9091889E-01  0.8753304E-01
 -0.1094700E+02  0.1078190E+01 -0.2568960E-01  0.1253367E+00 -0.2759750E+01  0.1163099E+00  0.4670437E-01
 -0.1100000E+02 -0.9616510E-06 -0.2568960E-01  0.1437713E+00 -0.3086670E+01  0.1435546E+00  0.7892346E-02
 -0.1094700E+02 -0.1078190E+01 -0.2568960E-01  0.1742185E+00  0.2975663E+01  0.1718256E+00 -0.2877554E-01
 -0.1078860E+02 -0.2146000E+01 -0.2568960E-01  0.2097857E+00  0.2840211E+01  0.2003300E+00 -0.6227283E-01
 -0.1052630E+02 -0.3193130E+01 -0.2568960E-01  0.2463072E+00  0.2758033E+01  0.2284101E+00 -0.9217408E-01
 -0.1016270E+02 -0.4209520E+01 -0.2568960E-01  0.2817911E+00  0.2706583E+01  0.2555468E+00 -0.1187521E+00
 -0.9701130E+01 -0.5185360E+01 -0.2568960E-01  0.3151748E+00  0.2672356E+01  0.2811088E+00 -0.1425238E+00
 -0.9146160E+01 -0.6111270E+01 -0.2568960E-01  0.3447523E+00  0.2650573E+01  0.3040207E+00 -0.1625594E+00
 -0.8503110E+01 -0.6978330E+01 -0.2568960E-01  0.3695866E+00  0.2637469E+01  0.3236092E+00 -0.1785253E+00
 -0.7778170E+01 -0.7778180E+01 -0.2568960E-01  0.3896321E+00  0.2629493E+01  0.3396493E+00 -0.1909229E+00
 -0.6978330E+01 -0.8503110E+01 -0.2568960E-01  0.4052292E+00  0.2623713E+01  0.3520919E+00 -0.2006042E+00
 -0.6111270E+01 -0.9146170E+01 -0.2568960E-01  0.4151574E+00  0.2620472E+01  0.3600502E+00 -0.2066870E+00
 -0.5185360E+01 -0.9701130E+01 -0.2568960E-01  0.4188531E+00  0.2619763E+01  0.3631074E+00 -0.2087843E+00
 -0.4209510E+01 -0.1016270E+02 -0.2568960E-01  0.4167033E+00  0.2620750E+01  0.3614486E+00 -0.2073561E+00
 -0.3193130E+01 -0.1052630E+02 -0.2568960E-01  0.4096823E+00  0.2622308E+01  0.3556758E+00 -0.2033085E+00
 -0.2145990E+01 -0.1078860E+02 -0.2568960E-01  0.3970297E+00  0.2626074E+01  0.3454305E+00 -0.1957303E+00
 -0.1078190E+01 -0.1094700E+02 -0.2568960E-01  0.3784980E+00  0.2633559E+01  0.3306948E+00 -0.1841243E+00
  0.1311740E-06 -0.1100000E+02 -0.2568960E-01  0.3547646E+00  0.2645587E+01  0.3120120E+00 -0.1688383E+00
  0.1078190E+01 -0.1094700E+02 -0.2568960E-01  0.3271977E+00  0.2662740E+01  0.2903958E+00 -0.1507601E+00
  0.2145990E+01 -0.1078860E+02 -0.2568960E-01  0.2958251E+00  0.2689888E+01  0.2661551E+00 -0.1291275E+00
  0.3193140E+01 -0.1052630E+02 -0.2568960E-01  0.2610503E+00  0.2733940E+01  0.2396582E+00 -0.1034949E+00
  0.4209520E+01 -0.1016270E+02 -0.2568960E-01  0.2242516E+00  0.2804262E+01  0.2116132E+00 -0.7422032E-01
  0.5185360E+01 -0.9701130E+01 -0.2568960E-01  0.1878559E+00  0.2914607E+01  0.1830372E+00 -0.4227544E-01
  0.6111270E+01 -0.9146160E+01 -0.2568960E-01  0.1548811E+00  0.3093922E+01  0.1547052E+00 -0.7380537E-02
  0.6978330E+01 -0.8503110E+01 -0.2568960E-01  0.1307941E+00 -0.2905565E+01  0.1271678E+00  0.3058521E-01
  0.7778180E+01 -0.7778170E+01 -0.2568960E-01  0.1235293E+00 -0.2527804E+01  0.1009817E+00  0.7114903E-01
  0.8503120E+01 -0.6978320E+01 -0.2568960E-01  0.1368129E+00 -0.2166026E+01  0.7671084E-01  0.1132838E+00
  0.9146170E+01 -0.6111270E+01 -0.2568960E-01  0.1660026E+00 -0.1909176E+01  0.5510604E-01  0.1565893E+00
  0.9701130E+01 -0.5185360E+01 -0.2568960E-01  0.2040856E+00 -0.1750799E+01  0.3653799E-01  0.2007882E+00
  0.1016270E+02 -0.4209520E+01 -0.2568960E-01  0.2463229E+00 -0.1656738E+01  0.2114328E-01  0.2454138E+00
  0.1052630E+02 -0.3193130E+01 -0.2568960E-01  0.2898120E+00 -0.1601155E+01  0.8796951E-02  0.2896784E+00
  0.1078860E+02 -0.2145990E+01 -0.2568960E-01  0.3326941E+00 -0.1570060E+01 -0.2447946E-03  0.3326940E+00
  0.1094700E+02 -0.1078180E+01 -0.2568960E-01  0.3740310E+00 -0.1554702E+01 -0.6019617E-02  0.3739826E+00
  0.1100000E+02  0.0000000E+00 -0.1027320E+00  0.4115315E+00 -0.1549470E+01 -0.8775917E-02  0.4114379E+00
  0.1094700E+02  0.1078190E+01 -0.1027320E+00  0.4485936E+00 -0.1550353E+01 -0.9170210E-02  0.4484999E+00
  0.1078860E+02  0.2145990E+01 -0.1027320E+00  0.4825247E+00 -0.1555217E+01 -0.7517116E-02  0.4824661E+00
  0.1052630E+02  0.3193130E+01 -0.1027320E+00  0.5130439E+00 -0.1562622E+01 -0.4193654E-02  0.5130268E+00
  0.1016270E+02  0.4209520E+01 -0.1027320E+00  0.5402794E+00 -0.1571536E+01  0.3994481E-03  0.5402793E+00
  0.9701130E+01  0.5185360E+01 -0.1027320E+00  0.5645924E+00 -0.1580839E+01  0.5670064E-02  0.5645639E+00
  0.9146170E+01  0.6111270E+01 -0.1027320E+00  0.5851825E+00 -0.1589616E+01  0.1101252E-01  0.5850789E+00
  0.8503110E+01  0.6978330E+01 -0.1027320E+00  0.6018524E+00 -0.1597448E+01  0.1603838E-01  0.6016386E+00
  0.7778170E+01  0.7778170E+01 -0.1027320E+00  0.6148851E+00 -0.1604116E+01  0.2048412E-01  0.6145438E+00
  0.6978330E+01  0.8503110E+01 -0.1027320E+00  0.6249284E+00 -0.1609413E+01  0.2412686E-01  0.6244624E+00
  0.6111270E+01  0.9146170E+01 -0.1027320E+00  0.6312236E+00 -0.1612786E+01  0.2649709E-01  0.6306672E+00
  0.5185360E+01  0.9701130E+01 -0.1027320E+00  0.6335364E+00 -0.1614075E+01  0.2741034E-01  0.6329432E+00
  0.4209520E+01  0.1016270E+02 -0.1027320E+00  0.6321356E+00 -0.1613330E+01  0.2687921E-01  0.6315639E+00
  0.3193130E+01  0.1052630E+02 -0.1027320E+00  0.6277718E+00 -0.1610883E+01  0.2515823E-01  0.6272675E+00
  0.2145990E+01  0.1078860E+02 -0.1027320E+00  0.6197141E+00 -0.1606584E+01  0.2217330E-01  0.6193173E+00
  0.1078190E+01  0.1094700E+02 -0.1027320E+00  0.6076811E+00 -0.1600472E+01  0.1803071E-01  0.6074135E+00
 -0.4808250E-06  0.1100000E+02 -0.1027320E+00  0.5918824E+00 -0.1592785E+01  0.1301351E-01  0.5917394E+00
 -0.1078190E+01  0.1094700E+02 -0.1027320E+00  0.5730904E+00 -0.1584212E+01  0.7688396E-02  0.5730389E+00
 -0.2145990E+01  0.1078860E+02 -0.1027320E+00  0.5507403E+00 -0.1575251E+01  0.2453283E-02  0.5507348E+00
 -0.3193130E+01  0.1052630E+02 -0.1027320E+00  0.5245826E+00 -0.1566324E+01 -0.2345963E-02  0.5245774E+00
 -0.4209520E+01  0.1016270E+02 -0.1027320E+00  0.4948270E+00 -0.1558079E+01 -0.6292544E-02  0.4947870E+00
 -0.5185370E+01  0.9701130E+01 -0.1027320E+00  0.4623049E+00 -0.1551687E+01 -0.8834000E-02  0.4622205E+00
 -0.6111270E+01  0.9146160E+01 -0.1027320E+00  0.4268652E+00 -0.1548950E+01 -0.9324536E-02  0.4267634E+00
 -0.6978330E+01  0.8503120E+01 -0.1027320E+00  0.3885149E+00 -0.1551776E+01 -0.7389112E-02  0.3884446E+00
 -0.7778170E+01  0.7778170E+01 -0.1027320E+00  0.3476496E+00 -0.1562921E+01 -0.2737929E-02  0.3476388E+00
 -0.8503120E+01  0.6978330E+01 -0.1027320E+00  0.3053291E+00 -0.1586428E+01  0.4772743E-02  0.3052918E+00
 -0.9146170E+01  0.6111270E+01 -0.1027320E+00  0.2623671E+00 -0.1630188E+01  0.1557314E-01  0.2619045E+00
 -0.9701130E+01  0.5185360E+01 -0.1027320E+00  0.2198475E+00 -0.1706543E+01  0.2975193E-01  0.2178250E+00
 -0.1016270E+02  0.4209520E+01 -0.1027320E+00  0.1797827E+00 -0.1836583E+01  0.4722315E-01  0.1734698E+00
 -0.1052630E+02  0.3193130E+01 -0.1027320E+00  0.1461285E+00 -0.2051223E+01  0.6753433E-01  0.1295864E+00
 -0.1078860E+02  0.2145990E+01 -0.1027320E+00  0.1255923E+00 -0.2375452E+01  0.9050082E-01  0.8708061E-01
 -0.1094700E+02  0.1078190E+01 -0.1027320E+00  0.1247189E+00 -0.2760397E+01  0.1157666E+00  0.4639925E-01
 -0.1100000E+02 -0.9616510E-06 -0.1027320E+00  0.1430873E+00 -0.3087521E+01  0.1428782E+00  0.7733177E-02
 -0.1094700E+02 -0.1078190E+01 -0.1027320E+00  0.1734131E+00  0.2975219E+01  0.1710186E+00 -0.2871848E-01
 -0.1078860E+02 -0.2146000E+01 -0.1027320E+00  0.2088143E+00  0.2840070E+01  0.1993937E+00 -0.6201254E-01
 -0.1052630E+02 -0.3193130E+01 -0.1027320E+00  0.2452127E+00  0.2757698E+01  0.2273644E+00 -0.9184064E-01
 -0.1016270E+02 -0.4209520E+01 -0.1027320E+00  0.2805757E+00  0.2706142E+01  0.2543923E+00 -0.1183522E+00
 -0.9701130E+01 -0.5185360E+01 -0.1027320E+00  0.3137585E+00  0.2672125E+01  0.2798128E+00 -0.1419480E+00
 -0.9146160E+01 -0.6111270E+01 -0.1027320E+00  0.3431464E+00  0.2650514E+01  0.3025950E+00 -0.1618201E+00
 -0.8503110E+01 -0.6978330E+01 -0.1027320E+00  0.3679413E+00  0.2637286E+01  0.3221362E+00 -0.1777894E+00
 -0.7778170E+01 -0.7778180E+01 -0.1027320E+00  0.3879611E+00  0.2629216E+01  0.3381398E+00 -0.1901980E+00
 -0.6978330E+01 -0.8503110E+01 -0.1027320E+00  0.4034151E+00  0.2623554E+01  0.3504839E+00 -0.1997618E+00
 -0.6111270E+01 -0.9146170E+01 -0.1027320E+00  0.4132187E+00  0.2620430E+01  0.3583601E+00 -0.2057370E+00
 -0.5185360E+01 -0.9701130E+01 -0.1027320E+00  0.4169807E+00  0.2619615E+01  0.3614533E+00 -0.2079048E+00
 -0.4209510E+01 -0.1016270E+02 -0.1027320E+00  0.4149165E+00  0.2620502E+01  0.3598474E+00 -0.2065564E+00
 -0.3193130E+01 -0.1052630E+02 -0.1027320E+00  0.4078540E+00  0.2622155E+01  0.3540575E+00 -0.2024554E+00
 -0.2145990E+01 -0.1078860E+02 -0.1027320E+00  0.3951775E+00  0.2626028E+01  0.3438102E+00 -0.1948328E+00
 -0.1078190E+01 -0.1094700E+02 -0.1027320E+00  0.3768013E+00  0.2633381E+01  0.3291797E+00 -0.1833573E+00
  0.1311740E-06 -0.1100000E+02 -0.1027320E+00  0.3532418E+00  0.2645265E+01  0.3106187E+00 -0.1682135E+00
  0.1078190E+01 -0.1094700E+02 -0.1027320E+00  0.3257442E+00  0.2662518E+01  0.2890725E+00 -0.1501544E+00
  0.2145990E+01 -0.1078860E+02 -0.1027320E+00  0.2944498E+00  0.2689809E+01  0.2649077E+00 -0.1285482E+00
  0.3193140E+01 -0.1052630E+02 -0.1027320E+00  0.2598726E+00  0.2733647E+01  0.2385469E+00 -0.1030977E+00
  0.4209520E+01 -0.1016270E+02 -0.1027320E+00  0.2232713E+00  0.2803682E+01  0.2106452E+00 -0.7401821E-01
  0.5185360E+01 -0.9701130E+01 -0.1027320E+00  0.1870120E+00  0.2914130E+01  0.1821949E+00 -0.4217243E-01
  0.6111270E+01 -0.9146160E+01 -0.1027320E+00  0.1541615E+00  0.3093693E+01  0.1539847E+00 -0.7381429E-02
  0.6978330E+01 -0.8503110E+01 -0.1027320E+00  0.1301564E+00 -0.2906065E+01  0.1265630E+00  0.3037279E-01
  0.7778180E+01 -0.7778170E+01 -0.1027320E+00  0.1228768E+00 -0.2528398E+01  0.1004903E+00  0.7071357E-01
  0.8503120E+01 -0.6978320E+01 -0.1027320E+00  0.1361052E+00 -0.2166322E+01  0.7634742E-01  0.1126751E+00
  0.9146170E+01 -0.6111270E+01 -0.1027320E+00  0.1651840E+00 -0.1909334E+01  0.5485900E-01  0.1558084E+00
