 VARIABLES="X" "Y" "Z" "abs(eta) (m)" "angle(phi) (rad)" "PRE1" "PRE2"
ZONE N=   3200 ,E =    3136 ,F=FEPOINT,ET=QUADRILATERAL
  0.1100000E+02  0.0000000E+00  0.0000000E+00  0.2206857E+00 -0.1832328E+01  0.5706060E-01  0.2131813E+00
  0.1094700E+02  0.1078190E+01  0.0000000E+00  0.2426591E+00 -0.1817257E+01  0.5920233E-01  0.2353265E+00
  0.1078860E+02  0.2145990E+01  0.0000000E+00  0.2636330E+00 -0.1807944E+01  0.6193566E-01  0.2562545E+00
  0.1052630E+02  0.3193130E+01  0.0000000E+00  0.2824929E+00 -0.1803322E+01  0.6509659E-01  0.2748903E+00
  0.1016270E+02  0.4209520E+01  0.0000000E+00  0.2995577E+00 -0.1801203E+01  0.6841115E-01  0.2916415E+00
  0.9701130E+01  0.5185360E+01  0.0000000E+00  0.3152583E+00 -0.1800457E+01  0.7176760E-01  0.3069808E+00
  0.9146170E+01  0.6111270E+01  0.0000000E+00  0.3291436E+00 -0.1800785E+01  0.7503384E-01  0.3204769E+00
  0.8503110E+01  0.6978330E+01  0.0000000E+00  0.3399801E+00 -0.1802040E+01  0.7791935E-01  0.3309306E+00
  0.7778170E+01  0.7778170E+01  0.0000000E+00  0.3485723E+00 -0.1803338E+01  0.8032888E-01  0.3391900E+00
  0.6978330E+01  0.8503110E+01  0.0000000E+00  0.3554864E+00 -0.1804303E+01  0.8225626E-01  0.3458388E+00
  0.6111270E+01  0.9146170E+01  0.0000000E+00  0.3601683E+00 -0.1804948E+01  0.8356567E-01  0.3503399E+00
  0.5185360E+01  0.9701130E+01  0.0000000E+00  0.3614061E+00 -0.1805410E+01  0.8401514E-01  0.3515051E+00
  0.4209520E+01  0.1016270E+02  0.0000000E+00  0.3603123E+00 -0.1805354E+01  0.8374112E-01  0.3504460E+00
  0.3193130E+01  0.1052630E+02  0.0000000E+00  0.3574780E+00 -0.1804669E+01  0.8284441E-01  0.3477461E+00
  0.2145990E+01  0.1078860E+02  0.0000000E+00  0.3523068E+00 -0.1803547E+01  0.8126114E-01  0.3428071E+00
  0.1078190E+01  0.1094700E+02  0.0000000E+00  0.3437891E+00 -0.1802496E+01  0.7894506E-01  0.3346022E+00
 -0.4808250E-06  0.1100000E+02  0.0000000E+00  0.3331663E+00 -0.1801488E+01  0.7617891E-01  0.3243402E+00
 -0.1078190E+01  0.1094700E+02  0.0000000E+00  0.3209570E+00 -0.1800594E+01  0.7310785E-01  0.3125198E+00
 -0.2145990E+01  0.1078860E+02  0.0000000E+00  0.3066354E+00 -0.1800388E+01  0.6978391E-01  0.2985892E+00
 -0.3193130E+01  0.1052630E+02  0.0000000E+00  0.2895667E+00 -0.1802122E+01  0.6638829E-01  0.2818536E+00
 -0.4209520E+01  0.1016270E+02  0.0000000E+00  0.2709507E+00 -0.1806143E+01  0.6318033E-01  0.2634816E+00
 -0.5185370E+01  0.9701130E+01  0.0000000E+00  0.2511873E+00 -0.1813086E+01  0.6026630E-01  0.2438505E+00
 -0.6111270E+01  0.9146160E+01  0.0000000E+00  0.2299489E+00 -0.1824815E+01  0.5778514E-01  0.2225699E+00
 -0.6978330E+01  0.8503120E+01  0.0000000E+00  0.2071629E+00 -0.1844707E+01  0.5603725E-01  0.1994399E+00
 -0.7778170E+01  0.7778170E+01  0.0000000E+00  0.1838910E+00 -0.1875092E+01  0.5509763E-01  0.1754427E+00
 -0.8503120E+01  0.6978330E+01  0.0000000E+00  0.1604999E+00 -0.1920329E+01  0.5496467E-01  0.1507949E+00
 -0.9146170E+01  0.6111270E+01  0.0000000E+00  0.1371971E+00 -0.1989453E+01  0.5577526E-01  0.1253482E+00
 -0.9701130E+01  0.5185360E+01  0.0000000E+00  0.1149974E+00 -0.2096933E+01  0.5775125E-01  0.9944439E-01
 -0.1016270E+02  0.4209520E+01  0.0000000E+00  0.9550263E-01 -0.2259907E+01  0.6072544E-01  0.7371007E-01
 -0.1052630E+02  0.3193130E+01  0.0000000E+00  0.8055351E-01 -0.2500984E+01  0.6458232E-01  0.4814553E-01
 -0.1078860E+02  0.2145990E+01  0.0000000E+00  0.7302607E-01 -0.2823413E+01  0.6936062E-01  0.2284537E-01
 -0.1094700E+02  0.1078190E+01  0.0000000E+00  0.7505582E-01  0.3123032E+01  0.7504290E-01 -0.1393006E-02
 -0.1100000E+02 -0.9616510E-06  0.0000000E+00  0.8491032E-01  0.2849530E+01  0.8131453E-01 -0.2444807E-01
 -0.1094700E+02 -0.1078190E+01  0.0000000E+00  0.9957936E-01  0.2654891E+01  0.8801626E-01 -0.4657453E-01
 -0.1078860E+02 -0.2146000E+01  0.0000000E+00  0.1165717E+00  0.2524217E+01  0.9505261E-01 -0.6748308E-01
 -0.1052630E+02 -0.3193130E+01  0.0000000E+00  0.1335894E+00  0.2441276E+01  0.1021475E+00 -0.8609296E-01
 -0.1016270E+02 -0.4209520E+01  0.0000000E+00  0.1498678E+00  0.2385530E+01  0.1090353E+00 -0.1028187E+00
 -0.9701130E+01 -0.5185360E+01  0.0000000E+00  0.1652994E+00  0.2345415E+01  0.1156175E+00 -0.1181375E+00
 -0.9146160E+01 -0.6111270E+01  0.0000000E+00  0.1792625E+00  0.2317100E+01  0.1217066E+00 -0.1316152E+00
 -0.8503110E+01 -0.6978330E+01  0.0000000E+00  0.1904721E+00  0.2299911E+01  0.1268944E+00 -0.1420473E+00
 -0.7778170E+01 -0.7778180E+01  0.0000000E+00  0.1994604E+00  0.2288249E+01  0.1311387E+00 -0.1502900E+00
 -0.6978330E+01 -0.8503110E+01  0.0000000E+00  0.2066582E+00  0.2279265E+01  0.1344667E+00 -0.1569277E+00
 -0.6111270E+01 -0.9146170E+01  0.0000000E+00  0.2115212E+00  0.2273411E+01  0.1366883E+00 -0.1614234E+00
 -0.5185360E+01 -0.9701130E+01  0.0000000E+00  0.2129041E+00  0.2272652E+01  0.1374585E+00 -0.1625832E+00
 -0.4209510E+01 -0.1016270E+02  0.0000000E+00  0.2118004E+00  0.2274232E+01  0.1370014E+00 -0.1615241E+00
 -0.3193130E+01 -0.1052630E+02  0.0000000E+00  0.2087548E+00  0.2276967E+01  0.1354661E+00 -0.1588316E+00
 -0.2145990E+01 -0.1078860E+02  0.0000000E+00  0.2032443E+00  0.2282515E+01  0.1327462E+00 -0.1539048E+00
 -0.1078190E+01 -0.1094700E+02  0.0000000E+00  0.1944239E+00  0.2294356E+01  0.1287196E+00 -0.1457118E+00
  0.1311740E-06 -0.1100000E+02  0.0000000E+00  0.1835007E+00  0.2311151E+01  0.1237804E+00 -0.1354656E+00
  0.1078190E+01 -0.1094700E+02  0.0000000E+00  0.1710214E+00  0.2333294E+01  0.1181296E+00 -0.1236678E+00
  0.2145990E+01 -0.1078860E+02  0.0000000E+00  0.1566690E+00  0.2365364E+01  0.1117929E+00 -0.1097613E+00
  0.3193140E+01 -0.1052630E+02  0.0000000E+00  0.1402318E+00  0.2416084E+01  0.1049161E+00 -0.9304608E-01
  0.4209520E+01 -0.1016270E+02  0.0000000E+00  0.1231228E+00  0.2489721E+01  0.9787644E-01 -0.7469554E-01
  0.5185360E+01 -0.9701130E+01  0.0000000E+00  0.1062340E+00  0.2596416E+01  0.9083386E-01 -0.5508972E-01
  0.6111270E+01 -0.9146160E+01  0.0000000E+00  0.9048561E-01  0.2758380E+01  0.8392253E-01 -0.3383275E-01
  0.6978330E+01 -0.8503110E+01  0.0000000E+00  0.7819156E-01  0.3004078E+01  0.7745341E-01 -0.1071859E-01
  0.7778180E+01 -0.7778170E+01  0.0000000E+00  0.7282460E-01 -0.2958420E+01  0.7160630E-01  0.1326499E-01
  0.8503120E+01 -0.6978320E+01  0.0000000E+00  0.7647617E-01 -0.2623103E+01  0.6642479E-01  0.3789923E-01
  0.9146170E+01 -0.6111270E+01  0.0000000E+00  0.8867434E-01 -0.2346043E+01  0.6206251E-01  0.6333548E-01
  0.9701130E+01 -0.5185360E+01  0.0000000E+00  0.1068666E+00 -0.2153372E+01  0.5879549E-01  0.8923880E-01
  0.1016270E+02 -0.4209520E+01  0.0000000E+00  0.1281228E+00 -0.2027783E+01  0.5653368E-01  0.1149757E+00
  0.1052630E+02 -0.3193130E+01  0.0000000E+00  0.1509927E+00 -0.1944988E+01  0.5519084E-01  0.1405445E+00
  0.1078860E+02 -0.2145990E+01  0.0000000E+00  0.1746841E+00 -0.1890138E+01  0.5484063E-01  0.1658524E+00
  0.1094700E+02 -0.1078180E+01  0.0000000E+00  0.1980592E+00 -0.1855116E+01  0.5555645E-01  0.1901077E+00
  0.1100000E+02  0.0000000E+00 -0.2568960E-01  0.2204904E+00 -0.1832316E+01  0.5700759E-01  0.2129933E+00
  0.1094700E+02  0.1078190E+01 -0.2568960E-01  0.2424395E+00 -0.1817262E+01  0.5914984E-01  0.2351132E+00
  0.1078860E+02  0.2145990E+01 -0.2568960E-01  0.2633829E+00 -0.1807961E+01  0.6188106E-01  0.2560103E+00
  0.1052630E+02  0.3193130E+01 -0.2568960E-01  0.2822335E+00 -0.1803326E+01  0.6503795E-01  0.2746376E+00
  0.1016270E+02  0.4209520E+01 -0.2568960E-01  0.2992955E+00 -0.1801201E+01  0.6835048E-01  0.2913863E+00
  0.9701130E+01  0.5185360E+01 -0.2568960E-01  0.3149722E+00 -0.1800463E+01  0.7170437E-01  0.3067018E+00
  0.9146170E+01  0.6111270E+01 -0.2568960E-01  0.3288296E+00 -0.1800798E+01  0.7496633E-01  0.3201702E+00
  0.8503110E+01  0.6978330E+01 -0.2568960E-01  0.3396697E+00 -0.1802045E+01  0.7785001E-01  0.3306280E+00
  0.7778170E+01  0.7778170E+01 -0.2568960E-01  0.3482688E+00 -0.1803340E+01  0.8025970E-01  0.3388946E+00
  0.6978330E+01  0.8503110E+01 -0.2568960E-01  0.3551637E+00 -0.1804310E+01  0.8218403E-01  0.3455243E+00
  0.6111270E+01  0.9146170E+01 -0.2568960E-01  0.3598233E+00 -0.1804960E+01  0.8348969E-01  0.3500032E+00
  0.5185360E+01  0.9701130E+01 -0.2568960E-01  0.3610775E+00 -0.1805417E+01  0.8394120E-01  0.3511849E+00
  0.4209520E+01  0.1016270E+02 -0.2568960E-01  0.3599989E+00 -0.1805357E+01  0.8366948E-01  0.3501408E+00
  0.3193130E+01  0.1052630E+02 -0.2568960E-01  0.3571526E+00 -0.1804675E+01  0.8277108E-01  0.3474291E+00
  0.2145990E+01  0.1078860E+02 -0.2568960E-01  0.3519695E+00 -0.1803559E+01  0.8118754E-01  0.3424779E+00
  0.1078190E+01  0.1094700E+02 -0.2568960E-01  0.3434765E+00 -0.1802504E+01  0.7887577E-01  0.3342974E+00
 -0.4808250E-06  0.1100000E+02 -0.2568960E-01  0.3328757E+00 -0.1801489E+01  0.7611267E-01  0.3240573E+00
 -0.1078190E+01  0.1094700E+02 -0.2568960E-01  0.3206641E+00 -0.1800599E+01  0.7304256E-01  0.3122343E+00
 -0.2145990E+01  0.1078860E+02 -0.2568960E-01  0.3063430E+00 -0.1800402E+01  0.6972162E-01  0.2983035E+00
 -0.3193130E+01  0.1052630E+02 -0.2568960E-01  0.2893041E+00 -0.1802127E+01  0.6632964E-01  0.2815977E+00
 -0.4209520E+01  0.1016270E+02 -0.2568960E-01  0.2707116E+00 -0.1806138E+01  0.6312326E-01  0.2632494E+00
 -0.5185370E+01  0.9701130E+01 -0.2568960E-01  0.2509562E+00 -0.1813089E+01  0.6021172E-01  0.2436259E+00
 -0.6111270E+01  0.9146160E+01 -0.2568960E-01  0.2297312E+00 -0.1824834E+01  0.5773475E-01  0.2223581E+00
 -0.6978330E+01  0.8503120E+01 -0.2568960E-01  0.2069748E+00 -0.1844711E+01  0.5598715E-01  0.1992587E+00
 -0.7778170E+01  0.7778170E+01 -0.2568960E-01  0.1837260E+00 -0.1875077E+01  0.5504556E-01  0.1752862E+00
 -0.8503120E+01  0.6978330E+01 -0.2568960E-01  0.1603502E+00 -0.1920337E+01  0.5491453E-01  0.1506539E+00
 -0.9146170E+01  0.6111270E+01 -0.2568960E-01  0.1370696E+00 -0.1989482E+01  0.5572696E-01  0.1252301E+00
 -0.9701130E+01  0.5185360E+01 -0.2568960E-01  0.1148924E+00 -0.2096934E+01  0.5769863E-01  0.9935360E-01
 -0.1016270E+02  0.4209520E+01 -0.2568960E-01  0.9541138E-01 -0.2259910E+01  0.6066766E-01  0.7363944E-01
 -0.1052630E+02  0.3193130E+01 -0.2568960E-01  0.8047786E-01 -0.2501033E+01  0.6452402E-01  0.4809715E-01
 -0.1078860E+02  0.2145990E+01 -0.2568960E-01  0.7296224E-01 -0.2823397E+01  0.6929965E-01  0.2282646E-01
 -0.1094700E+02  0.1078190E+01 -0.2568960E-01  0.7498743E-01  0.3123012E+01  0.7497448E-01 -0.1393229E-02
 -0.1100000E+02 -0.9616510E-06 -0.2568960E-01  0.8483528E-01  0.2849412E+01  0.8123981E-01 -0.2443601E-01
 -0.1094700E+02 -0.1078190E+01 -0.2568960E-01  0.9949224E-01  0.2654854E+01  0.8793752E-01 -0.4653708E-01
 -0.1078860E+02 -0.2146000E+01 -0.2568960E-01  0.1164621E+00  0.2524270E+01  0.9496686E-01 -0.6741460E-01
 -0.1052630E+02 -0.3193130E+01 -0.2568960E-01  0.1334696E+00  0.2441266E+01  0.1020551E+00 -0.8601686E-01
 -0.1016270E+02 -0.4209520E+01 -0.2568960E-01  0.1497436E+00  0.2385467E+01  0.1089384E+00 -0.1027403E+00
 -0.9701130E+01 -0.5185360E+01 -0.2568960E-01  0.1651538E+00  0.2345404E+01  0.1155144E+00 -0.1180347E+00
 -0.9146160E+01 -0.6111270E+01 -0.2568960E-01  0.1790911E+00  0.2317137E+01  0.1215951E+00 -0.1314848E+00
 -0.8503110E+01 -0.6978330E+01 -0.2568960E-01  0.1903022E+00  0.2299906E+01  0.1267804E+00 -0.1419213E+00
 -0.7778170E+01 -0.7778180E+01 -0.2568960E-01  0.1992956E+00  0.2288209E+01  0.1310244E+00 -0.1501711E+00
 -0.6978330E+01 -0.8503110E+01 -0.2568960E-01  0.2064751E+00  0.2279260E+01  0.1343467E+00 -0.1567895E+00
 -0.6111270E+01 -0.9146170E+01 -0.2568960E-01  0.2113183E+00  0.2273446E+01  0.1365627E+00 -0.1612639E+00
 -0.5185360E+01 -0.9701130E+01 -0.2568960E-01  0.2127149E+00  0.2272648E+01  0.1373356E+00 -0.1624394E+00
 -0.4209510E+01 -0.1016270E+02 -0.2568960E-01  0.2116255E+00  0.2274196E+01  0.1368823E+00 -0.1613957E+00
 -0.3193130E+01 -0.1052630E+02 -0.2568960E-01  0.2085689E+00  0.2276963E+01  0.1353450E+00 -0.1586907E+00
 -0.2145990E+01 -0.1078860E+02 -0.2568960E-01  0.2030494E+00  0.2282549E+01  0.1326242E+00 -0.1537526E+00
 -0.1078190E+01 -0.1094700E+02 -0.2568960E-01  0.1942519E+00  0.2294350E+01  0.1286049E+00 -0.1455836E+00
  0.1311740E-06 -0.1100000E+02 -0.2568960E-01  0.1833492E+00  0.2311107E+01  0.1236721E+00 -0.1353592E+00
  0.1078190E+01 -0.1094700E+02 -0.2568960E-01  0.1708686E+00  0.2333286E+01  0.1180230E+00 -0.1235583E+00
  0.2145990E+01 -0.1078860E+02 -0.2568960E-01  0.1565197E+00  0.2365408E+01  0.1116911E+00 -0.1096517E+00
  0.3193140E+01 -0.1052630E+02 -0.2568960E-01  0.1401089E+00  0.2416066E+01  0.1048225E+00 -0.9296639E-01
  0.4209520E+01 -0.1016270E+02 -0.2568960E-01  0.1230198E+00  0.2489641E+01  0.9778857E-01 -0.7464084E-01
  0.5185360E+01 -0.9701130E+01 -0.2568960E-01  0.1061384E+00  0.2596399E+01  0.9075122E-01 -0.5504165E-01
  0.6111270E+01 -0.9146160E+01 -0.2568960E-01  0.9040269E-01  0.2758439E+01  0.8384763E-01 -0.3379678E-01
  0.6978330E+01 -0.8503110E+01 -0.2568960E-01  0.7812189E-01  0.3004019E+01  0.7738377E-01 -0.1071362E-01
  0.7778180E+01 -0.7778170E+01 -0.2568960E-01  0.7275535E-01 -0.2958520E+01  0.7153954E-01  0.1324522E-01
  0.8503120E+01 -0.6978320E+01 -0.2568960E-01  0.7640593E-01 -0.2623110E+01  0.6636406E-01  0.3786394E-01
  0.9146170E+01 -0.6111270E+01 -0.2568960E-01  0.8859488E-01 -0.2346066E+01  0.6200831E-01  0.6327734E-01
  0.9701130E+01 -0.5185360E+01 -0.2568960E-01  0.1067657E+00 -0.2153397E+01  0.5874220E-01  0.8915303E-01
  0.1016270E+02 -0.4209520E+01 -0.2568960E-01  0.1280044E+00 -0.2027769E+01  0.5647979E-01  0.1148702E+00
  0.1052630E+02 -0.3193130E+01 -0.2568960E-01  0.1508556E+00 -0.1944988E+01  0.5514083E-01  0.1404168E+00
  0.1078860E+02 -0.2145990E+01 -0.2568960E-01  0.1745201E+00 -0.1890163E+01  0.5479323E-01  0.1656954E+00
  0.1094700E+02 -0.1078180E+01 -0.2568960E-01  0.1978760E+00 -0.1855121E+01  0.5550599E-01  0.1899316E+00
  0.1100000E+02  0.0000000E+00 -0.1027320E+00  0.2198937E+00 -0.1832278E+01  0.5684512E-01  0.2124191E+00
  0.1094700E+02  0.1078190E+01 -0.1027320E+00  0.2417704E+00 -0.1817271E+01  0.5898884E-01  0.2344638E+00
  0.1078860E+02  0.2145990E+01 -0.1027320E+00  0.2626258E+00 -0.1808010E+01  0.6171587E-01  0.2552713E+00
  0.1052630E+02  0.3193130E+01 -0.1027320E+00  0.2814485E+00 -0.1803348E+01  0.6486293E-01  0.2738724E+00
  0.1016270E+02  0.4209520E+01 -0.1027320E+00  0.2984941E+00 -0.1801212E+01  0.6817067E-01  0.2906054E+00
  0.9701130E+01  0.5185360E+01 -0.1027320E+00  0.3141020E+00 -0.1800503E+01  0.7151852E-01  0.3058516E+00
  0.9146170E+01  0.6111270E+01 -0.1027320E+00  0.3278810E+00 -0.1800858E+01  0.7476930E-01  0.3192421E+00
  0.8503110E+01  0.6978330E+01 -0.1027320E+00  0.3387276E+00 -0.1802090E+01  0.7764896E-01  0.3297075E+00
  0.7778170E+01  0.7778170E+01 -0.1027320E+00  0.3473407E+00 -0.1803379E+01  0.8005919E-01  0.3379883E+00
  0.6978330E+01  0.8503110E+01 -0.1027320E+00  0.3541809E+00 -0.1804365E+01  0.8197540E-01  0.3445637E+00
  0.6111270E+01  0.9146170E+01 -0.1027320E+00  0.3587844E+00 -0.1805026E+01  0.8327161E-01  0.3489872E+00
  0.5185360E+01  0.9701130E+01 -0.1027320E+00  0.3600778E+00 -0.1805472E+01  0.8372819E-01  0.3502079E+00
  0.4209520E+01  0.1016270E+02 -0.1027320E+00  0.3590396E+00 -0.1805404E+01  0.8346301E-01  0.3492039E+00
  0.3193130E+01  0.1052630E+02 -0.1027320E+00  0.3561630E+00 -0.1804729E+01  0.8256021E-01  0.3464620E+00
  0.2145990E+01  0.1078860E+02 -0.1027320E+00  0.3509529E+00 -0.1803623E+01  0.8097505E-01  0.3414835E+00
  0.1078190E+01  0.1094700E+02 -0.1027320E+00  0.3425278E+00 -0.1802553E+01  0.7867447E-01  0.3333701E+00
 -0.4808250E-06  0.1100000E+02 -0.1027320E+00  0.3319867E+00 -0.1801521E+01  0.7591964E-01  0.3231894E+00
 -0.1078190E+01  0.1094700E+02 -0.1027320E+00  0.3197737E+00 -0.1800636E+01  0.7285126E-01  0.3113646E+00
 -0.2145990E+01  0.1078860E+02 -0.1027320E+00  0.3054608E+00 -0.1800458E+01  0.6953748E-01  0.2974405E+00
 -0.3193130E+01  0.1052630E+02 -0.1027320E+00  0.2885054E+00 -0.1802157E+01  0.6615476E-01  0.2808183E+00
 -0.4209520E+01  0.1016270E+02 -0.1027320E+00  0.2699850E+00 -0.1806131E+01  0.6295212E-01  0.2625432E+00
 -0.5185370E+01  0.9701130E+01 -0.1027320E+00  0.2502567E+00 -0.1813099E+01  0.6004621E-01  0.2429462E+00
 -0.6111270E+01  0.9146160E+01 -0.1027320E+00  0.2290730E+00 -0.1824879E+01  0.5757928E-01  0.2217185E+00
 -0.6978330E+01  0.8503120E+01 -0.1027320E+00  0.2064038E+00 -0.1844704E+01  0.5583125E-01  0.1987093E+00
 -0.7778170E+01  0.7778170E+01 -0.1027320E+00  0.1832244E+00 -0.1875015E+01  0.5488442E-01  0.1748110E+00
 -0.8503120E+01  0.6978330E+01 -0.1027320E+00  0.1598982E+00 -0.1920322E+01  0.5475744E-01  0.1502300E+00
 -0.9146170E+01  0.6111270E+01 -0.1027320E+00  0.1366838E+00 -0.1989514E+01  0.5557420E-01  0.1248758E+00
 -0.9701130E+01  0.5185360E+01 -0.1027320E+00  0.1145730E+00 -0.2096881E+01  0.5753300E-01  0.9908042E-01
 -0.1016270E+02  0.4209520E+01 -0.1027320E+00  0.9513533E-01 -0.2259857E+01  0.6048822E-01  0.7342960E-01
 -0.1052630E+02  0.3193130E+01 -0.1027320E+00  0.8024706E-01 -0.2501078E+01  0.6434115E-01  0.4795630E-01
 -0.1078860E+02  0.2145990E+01 -0.1027320E+00  0.7276443E-01 -0.2823283E+01  0.6910916E-01  0.2277248E-01
 -0.1094700E+02  0.1078190E+01 -0.1027320E+00  0.7477639E-01  0.3123023E+01  0.7476350E-01 -0.1388473E-02
 -0.1100000E+02 -0.9616510E-06 -0.1027320E+00  0.8460360E-01  0.2849165E+01  0.8101191E-01 -0.2438934E-01
 -0.1094700E+02 -0.1078190E+01 -0.1027320E+00  0.9922301E-01  0.2654807E+01  0.8769736E-01 -0.4641527E-01
 -0.1078860E+02 -0.2146000E+01 -0.1027320E+00  0.1161289E+00  0.2524466E+01  0.9470827E-01 -0.6720316E-01
 -0.1052630E+02 -0.3193130E+01 -0.1027320E+00  0.1331039E+00  0.2441291E+01  0.1017776E+00 -0.8577856E-01
 -0.1016270E+02 -0.4209520E+01 -0.1027320E+00  0.1493593E+00  0.2385370E+01  0.1086489E+00 -0.1024872E+00
 -0.9701130E+01 -0.5185360E+01 -0.1027320E+00  0.1647092E+00  0.2345440E+01  0.1152077E+00 -0.1177128E+00
 -0.9146160E+01 -0.6111270E+01 -0.1027320E+00  0.1785736E+00  0.2317309E+01  0.1212663E+00 -0.1310840E+00
 -0.8503110E+01 -0.6978330E+01 -0.1027320E+00  0.1897852E+00  0.2299964E+01  0.1264442E+00 -0.1415284E+00
 -0.7778170E+01 -0.7778180E+01 -0.1027320E+00  0.1987879E+00  0.2288183E+01  0.1306867E+00 -0.1497919E+00
 -0.6978330E+01 -0.8503110E+01 -0.1027320E+00  0.2059176E+00  0.2279324E+01  0.1339940E+00 -0.1563575E+00
 -0.6111270E+01 -0.9146170E+01 -0.1027320E+00  0.2107074E+00  0.2273610E+01  0.1361943E+00 -0.1607753E+00
 -0.5185360E+01 -0.9701130E+01 -0.1027320E+00  0.2121394E+00  0.2272717E+01  0.1369753E+00 -0.1619905E+00
 -0.4209510E+01 -0.1016270E+02 -0.1027320E+00  0.2110867E+00  0.2274183E+01  0.1365318E+00 -0.1609865E+00
 -0.3193130E+01 -0.1052630E+02 -0.1027320E+00  0.2080038E+00  0.2277029E+01  0.1349887E+00 -0.1582518E+00
 -0.2145990E+01 -0.1078860E+02 -0.1027320E+00  0.2024624E+00  0.2282717E+01  0.1322664E+00 -0.1532861E+00
 -0.1078190E+01 -0.1094700E+02 -0.1027320E+00  0.1937282E+00  0.2294406E+01  0.1282664E+00 -0.1451839E+00
  0.1311740E-06 -0.1100000E+02 -0.1027320E+00  0.1828814E+00  0.2311059E+01  0.1233501E+00 -0.1350198E+00
  0.1078190E+01 -0.1094700E+02 -0.1027320E+00  0.1704033E+00  0.2333333E+01  0.1177074E+00 -0.1232163E+00
  0.2145990E+01 -0.1078860E+02 -0.1027320E+00  0.1560682E+00  0.2365584E+01  0.1113882E+00 -0.1093158E+00
  0.3193140E+01 -0.1052630E+02 -0.1027320E+00  0.1397318E+00  0.2416079E+01  0.1045416E+00 -0.9271476E-01
  0.4209520E+01 -0.1016270E+02 -0.1027320E+00  0.1227007E+00  0.2489489E+01  0.9752360E-01 -0.7446216E-01
  0.5185360E+01 -0.9701130E+01 -0.1027320E+00  0.1058456E+00  0.2596408E+01  0.9050133E-01 -0.5488903E-01
  0.6111270E+01 -0.9146160E+01 -0.1027320E+00  0.9014796E-01  0.2758645E+01  0.8361830E-01 -0.3368434E-01
  0.6978330E+01 -0.8503110E+01 -0.1027320E+00  0.7790630E-01  0.3003922E+01  0.7716917E-01 -0.1069158E-01
  0.7778180E+01 -0.7778170E+01 -0.1027320E+00  0.7254359E-01 -0.2958710E+01  0.7133382E-01  0.1319313E-01
  0.8503120E+01 -0.6978320E+01 -0.1027320E+00  0.7619044E-01 -0.2623060E+01  0.6617499E-01  0.3776048E-01
  0.9146170E+01 -0.6111270E+01 -0.1027320E+00  0.8835210E-01 -0.2346055E+01  0.6183770E-01  0.6310461E-01
