 VARIABLES="X" "Y" "Z" "abs(eta) (m)" "angle(phi) (rad)" "PRE1" "PRE2"
ZONE N=   3200 ,E =    3136 ,F=FEPOINT,ET=QUADRILATERAL
  0.1100000E+02  0.0000000E+00  0.0000000E+00  0.1374783E-06 -0.1136293E+01 -0.5787279E-07  0.1247037E-06
  0.1094700E+02  0.1078190E+01  0.0000000E+00  0.8658378E-01 -0.1172991E+01 -0.3354217E-01  0.7982276E-01
  0.1078860E+02  0.2145990E+01  0.0000000E+00  0.1719985E+00 -0.1172626E+01 -0.6668933E-01  0.1585434E+00
  0.1052630E+02  0.3193130E+01  0.0000000E+00  0.2555702E+00 -0.1172357E+01 -0.9915614E-01  0.2355508E+00
  0.1016270E+02  0.4209520E+01  0.0000000E+00  0.3369290E+00 -0.1172366E+01 -0.1307192E+00  0.3105376E+00
  0.9701130E+01  0.5185360E+01  0.0000000E+00  0.4155567E+00 -0.1172605E+01 -0.1611328E+00  0.3830451E+00
  0.9146170E+01  0.6111270E+01  0.0000000E+00  0.4898151E+00 -0.1172626E+01 -0.1899170E+00  0.4514979E+00
  0.8503110E+01  0.6978330E+01  0.0000000E+00  0.5588152E+00 -0.1172459E+01 -0.2167570E+00  0.5150639E+00
  0.7778170E+01  0.7778170E+01  0.0000000E+00  0.6225684E+00 -0.1172368E+01 -0.2415382E+00  0.5738038E+00
  0.6978330E+01  0.8503110E+01  0.0000000E+00  0.6812633E+00 -0.1172556E+01 -0.2641921E+00  0.6279508E+00
  0.6111270E+01  0.9146170E+01  0.0000000E+00  0.7330601E+00 -0.1172626E+01 -0.2842310E+00  0.6757143E+00
  0.5185360E+01  0.9701130E+01  0.0000000E+00  0.7769870E+00 -0.1172490E+01 -0.3013604E+00  0.7161639E+00
  0.4209520E+01  0.1016270E+02  0.0000000E+00  0.8134222E+00 -0.1172367E+01 -0.3155846E+00  0.7497080E+00
  0.3193130E+01  0.1052630E+02  0.0000000E+00  0.8432577E+00 -0.1172532E+01 -0.3270314E+00  0.7772605E+00
  0.2145990E+01  0.1078860E+02  0.0000000E+00  0.8647059E+00 -0.1172628E+01 -0.3352730E+00  0.7970623E+00
  0.1078190E+01  0.1094700E+02  0.0000000E+00  0.8768699E+00 -0.1172512E+01 -0.3400832E+00  0.8082352E+00
 -0.4808250E-06  0.1100000E+02  0.0000000E+00  0.8804433E+00 -0.1172368E+01 -0.3415856E+00  0.8114800E+00
 -0.1078190E+01  0.1094700E+02  0.0000000E+00  0.8768691E+00 -0.1172514E+01 -0.3400813E+00  0.8082352E+00
 -0.2145990E+01  0.1078860E+02  0.0000000E+00  0.8647069E+00 -0.1172628E+01 -0.3352732E+00  0.7970633E+00
 -0.3193130E+01  0.1052630E+02  0.0000000E+00  0.8432564E+00 -0.1172532E+01 -0.3270307E+00  0.7772594E+00
 -0.4209520E+01  0.1016270E+02  0.0000000E+00  0.8134209E+00 -0.1172367E+01 -0.3155840E+00  0.7497068E+00
 -0.5185370E+01  0.9701130E+01  0.0000000E+00  0.7769849E+00 -0.1172491E+01 -0.3013588E+00  0.7161623E+00
 -0.6111270E+01  0.9146160E+01  0.0000000E+00  0.7330605E+00 -0.1172626E+01 -0.2842315E+00  0.6757146E+00
 -0.6978330E+01  0.8503120E+01  0.0000000E+00  0.6812627E+00 -0.1172556E+01 -0.2641917E+00  0.6279503E+00
 -0.7778170E+01  0.7778170E+01  0.0000000E+00  0.6225683E+00 -0.1172368E+01 -0.2415379E+00  0.5738038E+00
 -0.8503120E+01  0.6978330E+01  0.0000000E+00  0.5588139E+00 -0.1172459E+01 -0.2167564E+00  0.5150627E+00
 -0.9146170E+01  0.6111270E+01  0.0000000E+00  0.4898148E+00 -0.1172627E+01 -0.1899164E+00  0.4514979E+00
 -0.9701130E+01  0.5185360E+01  0.0000000E+00  0.4155559E+00 -0.1172606E+01 -0.1611321E+00  0.3830446E+00
 -0.1016270E+02  0.4209520E+01  0.0000000E+00  0.3369288E+00 -0.1172367E+01 -0.1307186E+00  0.3105377E+00
 -0.1052630E+02  0.3193130E+01  0.0000000E+00  0.2555695E+00 -0.1172360E+01 -0.9915531E-01  0.2355504E+00
 -0.1078860E+02  0.2145990E+01  0.0000000E+00  0.1719984E+00 -0.1172625E+01 -0.6668946E-01  0.1585432E+00
 -0.1094700E+02  0.1078190E+01  0.0000000E+00  0.8658310E-01 -0.1173000E+01 -0.3354122E-01  0.7982243E-01
 -0.1100000E+02 -0.9616510E-06  0.0000000E+00  0.2582986E-06  0.1437040E+01 -0.3444617E-07 -0.2559915E-06
 -0.1094700E+02 -0.1078190E+01  0.0000000E+00  0.8658358E-01  0.1968597E+01  0.3354178E-01 -0.7982272E-01
 -0.1078860E+02 -0.2146000E+01  0.0000000E+00  0.1719994E+00  0.1968967E+01  0.6668984E-01 -0.1585442E+00
 -0.1052630E+02 -0.3193130E+01  0.0000000E+00  0.2555700E+00  0.1969234E+01  0.9915565E-01 -0.2355508E+00
 -0.1016270E+02 -0.4209520E+01  0.0000000E+00  0.3369292E+00  0.1969227E+01  0.1307192E+00 -0.3105379E+00
 -0.9701130E+01 -0.5185360E+01  0.0000000E+00  0.4155560E+00  0.1968987E+01  0.1611322E+00 -0.3830446E+00
 -0.9146160E+01 -0.6111270E+01  0.0000000E+00  0.4898160E+00  0.1968966E+01  0.1899173E+00 -0.4514987E+00
 -0.8503110E+01 -0.6978330E+01  0.0000000E+00  0.5588149E+00  0.1969134E+01  0.2167567E+00 -0.5150637E+00
 -0.7778170E+01 -0.7778180E+01  0.0000000E+00  0.6225679E+00  0.1969226E+01  0.2415384E+00 -0.5738031E+00
 -0.6978330E+01 -0.8503110E+01  0.0000000E+00  0.6812639E+00  0.1969038E+01  0.2641926E+00 -0.6279512E+00
 -0.6111270E+01 -0.9146170E+01  0.0000000E+00  0.7330602E+00  0.1968967E+01  0.2842312E+00 -0.6757143E+00
 -0.5185360E+01 -0.9701130E+01  0.0000000E+00  0.7769859E+00  0.1969102E+01  0.3013597E+00 -0.7161630E+00
 -0.4209510E+01 -0.1016270E+02  0.0000000E+00  0.8134230E+00  0.1969226E+01  0.3155850E+00 -0.7497087E+00
 -0.3193130E+01 -0.1052630E+02  0.0000000E+00  0.8432582E+00  0.1969060E+01  0.3270315E+00 -0.7772611E+00
 -0.2145990E+01 -0.1078860E+02  0.0000000E+00  0.8647076E+00  0.1968964E+01  0.3352735E+00 -0.7970639E+00
 -0.1078190E+01 -0.1094700E+02  0.0000000E+00  0.8768710E+00  0.1969080E+01  0.3400831E+00 -0.8082365E+00
  0.1311740E-06 -0.1100000E+02  0.0000000E+00  0.8804438E+00  0.1969226E+01  0.3415867E+00 -0.8114800E+00
  0.1078190E+01 -0.1094700E+02  0.0000000E+00  0.8768706E+00  0.1969080E+01  0.3400825E+00 -0.8082363E+00
  0.2145990E+01 -0.1078860E+02  0.0000000E+00  0.8647075E+00  0.1968964E+01  0.3352734E+00 -0.7970639E+00
  0.3193140E+01 -0.1052630E+02  0.0000000E+00  0.8432576E+00  0.1969060E+01  0.3270309E+00 -0.7772607E+00
  0.4209520E+01 -0.1016270E+02  0.0000000E+00  0.8134226E+00  0.1969226E+01  0.3155845E+00 -0.7497084E+00
  0.5185360E+01 -0.9701130E+01  0.0000000E+00  0.7769868E+00  0.1969102E+01  0.3013598E+00 -0.7161639E+00
  0.6111270E+01 -0.9146160E+01  0.0000000E+00  0.7330598E+00  0.1968966E+01  0.2842307E+00 -0.6757141E+00
  0.6978330E+01 -0.8503110E+01  0.0000000E+00  0.6812635E+00  0.1969038E+01  0.2641926E+00 -0.6279508E+00
  0.7778180E+01 -0.7778170E+01  0.0000000E+00  0.6225672E+00  0.1969226E+01  0.2415383E+00 -0.5738024E+00
  0.8503120E+01 -0.6978320E+01  0.0000000E+00  0.5588135E+00  0.1969135E+01  0.2167566E+00 -0.5150623E+00
  0.9146170E+01 -0.6111270E+01  0.0000000E+00  0.4898147E+00  0.1968966E+01  0.1899165E+00 -0.4514977E+00
  0.9701130E+01 -0.5185360E+01  0.0000000E+00  0.4155560E+00  0.1968988E+01  0.1611328E+00 -0.3830444E+00
  0.1016270E+02 -0.4209520E+01  0.0000000E+00  0.3369287E+00  0.1969226E+01  0.1307189E+00 -0.3105375E+00
  0.1052630E+02 -0.3193130E+01  0.0000000E+00  0.2555698E+00  0.1969236E+01  0.9915613E-01 -0.2355504E+00
  0.1078860E+02 -0.2145990E+01  0.0000000E+00  0.1719984E+00  0.1968968E+01  0.6668961E-01 -0.1585432E+00
  0.1094700E+02 -0.1078180E+01  0.0000000E+00  0.8658272E-01  0.1968598E+01  0.3354152E-01 -0.7982189E-01
  0.1100000E+02  0.0000000E+00 -0.2568960E-01  0.3622594E-06 -0.2951651E+01  0.3557443E-06  0.6839500E-07
  0.1094700E+02  0.1078190E+01 -0.2568960E-01  0.8644302E-01 -0.1172997E+01 -0.3348724E-01  0.7969317E-01
  0.1078860E+02  0.2145990E+01 -0.2568960E-01  0.1717188E+00 -0.1172624E+01 -0.6658123E-01  0.1582854E+00
  0.1052630E+02  0.3193130E+01 -0.2568960E-01  0.2551721E+00 -0.1172376E+01 -0.9899743E-01  0.2351857E+00
  0.1016270E+02  0.4209520E+01 -0.2568960E-01  0.3364186E+00 -0.1172387E+01 -0.1305146E+00  0.3100700E+00
  0.9701130E+01  0.5185360E+01 -0.2568960E-01  0.4149005E+00 -0.1172614E+01 -0.1608749E+00  0.3824418E+00
  0.9146170E+01  0.6111270E+01 -0.2568960E-01  0.4890181E+00 -0.1172626E+01 -0.1896083E+00  0.4507632E+00
  0.8503110E+01  0.6978330E+01 -0.2568960E-01  0.5579410E+00 -0.1172469E+01 -0.2164128E+00  0.5142602E+00
  0.7778170E+01  0.7778170E+01 -0.2568960E-01  0.6216237E+00 -0.1172389E+01 -0.2411597E+00  0.5729380E+00
  0.6978330E+01  0.8503110E+01 -0.2568960E-01  0.6801917E+00 -0.1172565E+01 -0.2637706E+00  0.6269656E+00
  0.6111270E+01  0.9146170E+01 -0.2568960E-01  0.7318678E+00 -0.1172624E+01 -0.2837700E+00  0.6746148E+00
  0.5185360E+01  0.9701130E+01 -0.2568960E-01  0.7757699E+00 -0.1172501E+01 -0.3008804E+00  0.7150454E+00
  0.4209520E+01  0.1016270E+02 -0.2568960E-01  0.8121883E+00 -0.1172388E+01 -0.3150898E+00  0.7485775E+00
  0.3193130E+01  0.1052630E+02 -0.2568960E-01  0.8419335E+00 -0.1172542E+01 -0.3265100E+00  0.7760434E+00
  0.2145990E+01  0.1078860E+02 -0.2568960E-01  0.8633002E+00 -0.1172625E+01 -0.3347300E+00  0.7957658E+00
  0.1078190E+01  0.1094700E+02 -0.2568960E-01  0.8754952E+00 -0.1172522E+01 -0.3395415E+00  0.8069717E+00
 -0.4808250E-06  0.1100000E+02 -0.2568960E-01  0.8791080E+00 -0.1172388E+01 -0.3410511E+00  0.8102561E+00
 -0.1078190E+01  0.1094700E+02 -0.2568960E-01  0.8754935E+00 -0.1172523E+01 -0.3395406E+00  0.8069704E+00
 -0.2145990E+01  0.1078860E+02 -0.2568960E-01  0.8632998E+00 -0.1172627E+01 -0.3347289E+00  0.7957658E+00
 -0.3193130E+01  0.1052630E+02 -0.2568960E-01  0.8419325E+00 -0.1172542E+01 -0.3265096E+00  0.7760425E+00
 -0.4209520E+01  0.1016270E+02 -0.2568960E-01  0.8121884E+00 -0.1172388E+01 -0.3150901E+00  0.7485775E+00
 -0.5185370E+01  0.9701130E+01 -0.2568960E-01  0.7757679E+00 -0.1172501E+01 -0.3008799E+00  0.7150435E+00
 -0.6111270E+01  0.9146160E+01 -0.2568960E-01  0.7318671E+00 -0.1172625E+01 -0.2837695E+00  0.6746142E+00
 -0.6978330E+01  0.8503120E+01 -0.2568960E-01  0.6801916E+00 -0.1172565E+01 -0.2637708E+00  0.6269653E+00
 -0.7778170E+01  0.7778170E+01 -0.2568960E-01  0.6216236E+00 -0.1172388E+01 -0.2411600E+00  0.5729378E+00
 -0.8503120E+01  0.6978330E+01 -0.2568960E-01  0.5579398E+00 -0.1172469E+01 -0.2164118E+00  0.5142595E+00
 -0.9146170E+01  0.6111270E+01 -0.2568960E-01  0.4890182E+00 -0.1172626E+01 -0.1896082E+00  0.4507633E+00
 -0.9701130E+01  0.5185360E+01 -0.2568960E-01  0.4148996E+00 -0.1172613E+01 -0.1608749E+00  0.3824408E+00
 -0.1016270E+02  0.4209520E+01 -0.2568960E-01  0.3364178E+00 -0.1172386E+01 -0.1305145E+00  0.3100692E+00
 -0.1052630E+02  0.3193130E+01 -0.2568960E-01  0.2551723E+00 -0.1172373E+01 -0.9899814E-01  0.2351856E+00
 -0.1078860E+02  0.2145990E+01 -0.2568960E-01  0.1717184E+00 -0.1172624E+01 -0.6658119E-01  0.1582850E+00
 -0.1094700E+02  0.1078190E+01 -0.2568960E-01  0.8644279E-01 -0.1172997E+01 -0.3348708E-01  0.7969298E-01
 -0.1100000E+02 -0.9616510E-06 -0.2568960E-01  0.4887462E-06  0.2724111E+01  0.4467693E-06 -0.1981668E-06
 -0.1094700E+02 -0.1078190E+01 -0.2568960E-01  0.8644328E-01  0.1968597E+01  0.3348742E-01 -0.7969337E-01
 -0.1078860E+02 -0.2146000E+01 -0.2568960E-01  0.1717196E+00  0.1968970E+01  0.6658180E-01 -0.1582861E+00
 -0.1052630E+02 -0.3193130E+01 -0.2568960E-01  0.2551727E+00  0.1969220E+01  0.9899835E-01 -0.2351859E+00
 -0.1016270E+02 -0.4209520E+01 -0.2568960E-01  0.3364183E+00  0.1969206E+01  0.1305145E+00 -0.3100697E+00
 -0.9701130E+01 -0.5185360E+01 -0.2568960E-01  0.4148997E+00  0.1968979E+01  0.1608747E+00 -0.3824410E+00
 -0.9146160E+01 -0.6111270E+01 -0.2568960E-01  0.4890187E+00  0.1968967E+01  0.1896084E+00 -0.4507638E+00
 -0.8503110E+01 -0.6978330E+01 -0.2568960E-01  0.5579409E+00  0.1969123E+01  0.2164122E+00 -0.5142605E+00
 -0.7778170E+01 -0.7778180E+01 -0.2568960E-01  0.6216236E+00  0.1969204E+01  0.2411596E+00 -0.5729380E+00
 -0.6978330E+01 -0.8503110E+01 -0.2568960E-01  0.6801913E+00  0.1969028E+01  0.2637705E+00 -0.6269652E+00
 -0.6111270E+01 -0.9146170E+01 -0.2568960E-01  0.7318663E+00  0.1968968E+01  0.2837691E+00 -0.6746135E+00
 -0.5185360E+01 -0.9701130E+01 -0.2568960E-01  0.7757683E+00  0.1969091E+01  0.3008792E+00 -0.7150441E+00
 -0.4209510E+01 -0.1016270E+02 -0.2568960E-01  0.8121896E+00  0.1969204E+01  0.3150903E+00 -0.7485787E+00
 -0.3193130E+01 -0.1052630E+02 -0.2568960E-01  0.8419328E+00  0.1969050E+01  0.3265097E+00 -0.7760428E+00
 -0.2145990E+01 -0.1078860E+02 -0.2568960E-01  0.8632991E+00  0.1968966E+01  0.3347289E+00 -0.7957650E+00
 -0.1078190E+01 -0.1094700E+02 -0.2568960E-01  0.8754947E+00  0.1969069E+01  0.3395405E+00 -0.8069717E+00
  0.1311740E-06 -0.1100000E+02 -0.2568960E-01  0.8791087E+00  0.1969204E+01  0.3410512E+00 -0.8102569E+00
  0.1078190E+01 -0.1094700E+02 -0.2568960E-01  0.8754941E+00  0.1969070E+01  0.3395407E+00 -0.8069709E+00
  0.2145990E+01 -0.1078860E+02 -0.2568960E-01  0.8633001E+00  0.1968965E+01  0.3347283E+00 -0.7957663E+00
  0.3193140E+01 -0.1052630E+02 -0.2568960E-01  0.8419330E+00  0.1969050E+01  0.3265097E+00 -0.7760429E+00
  0.4209520E+01 -0.1016270E+02 -0.2568960E-01  0.8121887E+00  0.1969205E+01  0.3150905E+00 -0.7485776E+00
  0.5185360E+01 -0.9701130E+01 -0.2568960E-01  0.7757693E+00  0.1969090E+01  0.3008792E+00 -0.7150453E+00
  0.6111270E+01 -0.9146160E+01 -0.2568960E-01  0.7318671E+00  0.1968967E+01  0.2837689E+00 -0.6746145E+00
  0.6978330E+01 -0.8503110E+01 -0.2568960E-01  0.6801912E+00  0.1969028E+01  0.2637704E+00 -0.6269650E+00
  0.7778180E+01 -0.7778170E+01 -0.2568960E-01  0.6216227E+00  0.1969205E+01  0.2411599E+00 -0.5729370E+00
  0.8503120E+01 -0.6978320E+01 -0.2568960E-01  0.5579404E+00  0.1969123E+01  0.2164123E+00 -0.5142599E+00
  0.9146170E+01 -0.6111270E+01 -0.2568960E-01  0.4890178E+00  0.1968967E+01  0.1896080E+00 -0.4507629E+00
  0.9701130E+01 -0.5185360E+01 -0.2568960E-01  0.4148998E+00  0.1968980E+01  0.1608752E+00 -0.3824409E+00
  0.1016270E+02 -0.4209520E+01 -0.2568960E-01  0.3364180E+00  0.1969206E+01  0.1305145E+00 -0.3100694E+00
  0.1052630E+02 -0.3193130E+01 -0.2568960E-01  0.2551723E+00  0.1969218E+01  0.9899759E-01 -0.2351858E+00
  0.1078860E+02 -0.2145990E+01 -0.2568960E-01  0.1717187E+00  0.1968972E+01  0.6658171E-01 -0.1582851E+00
  0.1094700E+02 -0.1078180E+01 -0.2568960E-01  0.8644221E-01  0.1968596E+01  0.3348691E-01 -0.7969242E-01
  0.1100000E+02  0.0000000E+00 -0.1027320E+00  0.2421961E-06 -0.2649212E+01  0.2134256E-06  0.1144923E-06
  0.1094700E+02  0.1078190E+01 -0.1027320E+00  0.8602910E-01 -0.1173010E+01 -0.3332579E-01  0.7931203E-01
  0.1078860E+02  0.2145990E+01 -0.1027320E+00  0.1709022E+00 -0.1172648E+01 -0.6626079E-01  0.1575343E+00
  0.1052630E+02  0.3193130E+01 -0.1027320E+00  0.2540120E+00 -0.1172440E+01 -0.9853227E-01  0.2341228E+00
  0.1016270E+02  0.4209520E+01 -0.1027320E+00  0.3349122E+00 -0.1172467E+01 -0.1299053E+00  0.3086921E+00
  0.9701130E+01  0.5185360E+01 -0.1027320E+00  0.4129744E+00 -0.1172659E+01 -0.1601110E+00  0.3806736E+00
  0.9146170E+01  0.6111270E+01 -0.1027320E+00  0.4866929E+00 -0.1172651E+01 -0.1886953E+00  0.4486246E+00
  0.8503110E+01  0.6978330E+01 -0.1027320E+00  0.5553827E+00 -0.1172528E+01 -0.2153899E+00  0.5119151E+00
  0.7778170E+01  0.7778170E+01 -0.1027320E+00  0.6188411E+00 -0.1172471E+01 -0.2400332E+00  0.5703932E+00
  0.6978330E+01  0.8503110E+01 -0.1027320E+00  0.6770461E+00 -0.1172616E+01 -0.2625188E+00  0.6240796E+00
  0.6111270E+01  0.9146170E+01 -0.1027320E+00  0.7283867E+00 -0.1172650E+01 -0.2824030E+00  0.6714132E+00
  0.5185360E+01  0.9701130E+01 -0.1027320E+00  0.7722014E+00 -0.1172559E+01 -0.2994556E+00  0.7117734E+00
  0.4209520E+01  0.1016270E+02 -0.1027320E+00  0.8085529E+00 -0.1172468E+01 -0.3136198E+00  0.7452520E+00
  0.3193130E+01  0.1052630E+02 -0.1027320E+00  0.8380482E+00 -0.1172595E+01 -0.3249621E+00  0.7724794E+00
  0.2145990E+01  0.1078860E+02 -0.1027320E+00  0.8591954E+00 -0.1172653E+01 -0.3331166E+00  0.7919912E+00
  0.1078190E+01  0.1094700E+02 -0.1027320E+00  0.8714605E+00 -0.1172578E+01 -0.3379324E+00  0.8032715E+00
 -0.4808250E-06  0.1100000E+02 -0.1027320E+00  0.8751718E+00 -0.1172468E+01 -0.3394597E+00  0.8066553E+00
 -0.1078190E+01  0.1094700E+02 -0.1027320E+00  0.8714610E+00 -0.1172578E+01 -0.3379326E+00  0.8032719E+00
 -0.2145990E+01  0.1078860E+02 -0.1027320E+00  0.8591957E+00 -0.1172653E+01 -0.3331168E+00  0.7919914E+00
 -0.3193130E+01  0.1052630E+02 -0.1027320E+00  0.8380481E+00 -0.1172595E+01 -0.3249623E+00  0.7724792E+00
 -0.4209520E+01  0.1016270E+02 -0.1027320E+00  0.8085529E+00 -0.1172468E+01 -0.3136202E+00  0.7452517E+00
 -0.5185370E+01  0.9701130E+01 -0.1027320E+00  0.7722013E+00 -0.1172557E+01 -0.2994565E+00  0.7117729E+00
 -0.6111270E+01  0.9146160E+01 -0.1027320E+00  0.7283877E+00 -0.1172650E+01 -0.2824037E+00  0.6714140E+00
 -0.6978330E+01  0.8503120E+01 -0.1027320E+00  0.6770462E+00 -0.1172615E+01 -0.2625196E+00  0.6240793E+00
 -0.7778170E+01  0.7778170E+01 -0.1027320E+00  0.6188410E+00 -0.1172469E+01 -0.2400340E+00  0.5703927E+00
 -0.8503120E+01  0.6978330E+01 -0.1027320E+00  0.5553816E+00 -0.1172529E+01 -0.2153891E+00  0.5119143E+00
 -0.9146170E+01  0.6111270E+01 -0.1027320E+00  0.4866927E+00 -0.1172651E+01 -0.1886955E+00  0.4486244E+00
 -0.9701130E+01  0.5185360E+01 -0.1027320E+00  0.4129737E+00 -0.1172662E+01 -0.1601096E+00  0.3806734E+00
 -0.1016270E+02  0.4209520E+01 -0.1027320E+00  0.3349122E+00 -0.1172467E+01 -0.1299053E+00  0.3086920E+00
 -0.1052630E+02  0.3193130E+01 -0.1027320E+00  0.2540115E+00 -0.1172440E+01 -0.9853210E-01  0.2341223E+00
 -0.1078860E+02  0.2145990E+01 -0.1027320E+00  0.1709018E+00 -0.1172650E+01 -0.6626043E-01  0.1575341E+00
 -0.1094700E+02  0.1078190E+01 -0.1027320E+00  0.8602872E-01 -0.1173010E+01 -0.3332569E-01  0.7931166E-01
 -0.1100000E+02 -0.9616510E-06 -0.1027320E+00  0.1745804E-06  0.1724343E+01  0.2670104E-07 -0.1725264E-06
 -0.1094700E+02 -0.1078190E+01 -0.1027320E+00  0.8602904E-01  0.1968584E+01  0.3332592E-01 -0.7931191E-01
 -0.1078860E+02 -0.2146000E+01 -0.1027320E+00  0.1709028E+00  0.1968943E+01  0.6626090E-01 -0.1575350E+00
 -0.1052630E+02 -0.3193130E+01 -0.1027320E+00  0.2540124E+00  0.1969155E+01  0.9853286E-01 -0.2341230E+00
 -0.1016270E+02 -0.4209520E+01 -0.1027320E+00  0.3349124E+00  0.1969126E+01  0.1299056E+00 -0.3086922E+00
 -0.9701130E+01 -0.5185360E+01 -0.1027320E+00  0.4129740E+00  0.1968932E+01  0.1601103E+00 -0.3806733E+00
 -0.9146160E+01 -0.6111270E+01 -0.1027320E+00  0.4866940E+00  0.1968943E+01  0.1886963E+00 -0.4486254E+00
 -0.8503110E+01 -0.6978330E+01 -0.1027320E+00  0.5553825E+00  0.1969064E+01  0.2153897E+00 -0.5119151E+00
 -0.7778170E+01 -0.7778180E+01 -0.1027320E+00  0.6188415E+00  0.1969124E+01  0.2400345E+00 -0.5703931E+00
 -0.6978330E+01 -0.8503110E+01 -0.1027320E+00  0.6770465E+00  0.1968977E+01  0.2625195E+00 -0.6240798E+00
 -0.6111270E+01 -0.9146170E+01 -0.1027320E+00  0.7283868E+00  0.1968942E+01  0.2824029E+00 -0.6714134E+00
 -0.5185360E+01 -0.9701130E+01 -0.1027320E+00  0.7722011E+00  0.1969034E+01  0.2994557E+00 -0.7117730E+00
 -0.4209510E+01 -0.1016270E+02 -0.1027320E+00  0.8085540E+00  0.1969124E+01  0.3136202E+00 -0.7452529E+00
 -0.3193130E+01 -0.1052630E+02 -0.1027320E+00  0.8380477E+00  0.1968998E+01  0.3249623E+00 -0.7724788E+00
 -0.2145990E+01 -0.1078860E+02 -0.1027320E+00  0.8591954E+00  0.1968941E+01  0.3331175E+00 -0.7919908E+00
 -0.1078190E+01 -0.1094700E+02 -0.1027320E+00  0.8714611E+00  0.1969015E+01  0.3379325E+00 -0.8032721E+00
  0.1311740E-06 -0.1100000E+02 -0.1027320E+00  0.8751730E+00  0.1969123E+01  0.3394595E+00 -0.8066567E+00
  0.1078190E+01 -0.1094700E+02 -0.1027320E+00  0.8714622E+00  0.1969014E+01  0.3379325E+00 -0.8032733E+00
  0.2145990E+01 -0.1078860E+02 -0.1027320E+00  0.8591955E+00  0.1968941E+01  0.3331175E+00 -0.7919909E+00
  0.3193140E+01 -0.1052630E+02 -0.1027320E+00  0.8380480E+00  0.1968997E+01  0.3249620E+00 -0.7724793E+00
  0.4209520E+01 -0.1016270E+02 -0.1027320E+00  0.8085529E+00  0.1969125E+01  0.3136200E+00 -0.7452518E+00
  0.5185360E+01 -0.9701130E+01 -0.1027320E+00  0.7722012E+00  0.1969034E+01  0.2994556E+00 -0.7117732E+00
  0.6111270E+01 -0.9146160E+01 -0.1027320E+00  0.7283868E+00  0.1968943E+01  0.2824034E+00 -0.6714132E+00
  0.6978330E+01 -0.8503110E+01 -0.1027320E+00  0.6770462E+00  0.1968977E+01  0.2625192E+00 -0.6240795E+00
  0.7778180E+01 -0.7778170E+01 -0.1027320E+00  0.6188401E+00  0.1969123E+01  0.2400338E+00 -0.5703918E+00
  0.8503120E+01 -0.6978320E+01 -0.1027320E+00  0.5553812E+00  0.1969065E+01  0.2153897E+00 -0.5119136E+00
  0.9146170E+01 -0.6111270E+01 -0.1027320E+00  0.4866925E+00  0.1968942E+01  0.1886953E+00 -0.4486241E+00
