 VARIABLES="X" "Y" "Z" "abs(eta) (m)" "angle(phi) (rad)" "PRE1" "PRE2"
ZONE N=   3200 ,E =    3136 ,F=FEPOINT,ET=QUADRILATERAL
  0.1010000E+02  0.0000000E+00  0.0000000E+00  0.1275366E+00  0.2279583E+01  0.8301523E-01 -0.9681968E-01
  0.1005140E+02  0.9899730E+00  0.0000000E+00  0.1117721E+00  0.2342492E+01  0.7794442E-01 -0.8011030E-01
  0.9905930E+01  0.1970410E+01  0.0000000E+00  0.9571584E-01  0.2436165E+01  0.7287177E-01 -0.6205827E-01
  0.9665100E+01  0.2931880E+01  0.0000000E+00  0.8024760E-01  0.2583216E+01  0.6805932E-01 -0.4251597E-01
  0.9331180E+01  0.3865100E+01  0.0000000E+00  0.6743972E-01  0.2806150E+01  0.6368095E-01 -0.2220029E-01
  0.8907400E+01  0.4761110E+01  0.0000000E+00  0.5987561E-01  0.3129715E+01  0.5987138E-01 -0.7111323E-03
  0.8397840E+01  0.5611260E+01  0.0000000E+00  0.6058071E-01 -0.2777953E+01  0.5661925E-01  0.2154723E-01
  0.7807410E+01  0.6407370E+01  0.0000000E+00  0.7000130E-01 -0.2455525E+01  0.5416303E-01  0.4434578E-01
  0.7141780E+01  0.7141780E+01  0.0000000E+00  0.8522723E-01 -0.2233958E+01  0.5246684E-01  0.6716332E-01
  0.6407370E+01  0.7807410E+01  0.0000000E+00  0.1037562E+00 -0.2091959E+01  0.5165902E-01  0.8998158E-01
  0.5611260E+01  0.8397840E+01  0.0000000E+00  0.1240357E+00 -0.2000068E+01  0.5162476E-01  0.1127818E+00
  0.4761110E+01  0.8907410E+01  0.0000000E+00  0.1448663E+00 -0.1941174E+01  0.5243689E-01  0.1350431E+00
  0.3865100E+01  0.9331180E+01  0.0000000E+00  0.1655487E+00 -0.1902301E+01  0.5388043E-01  0.1565352E+00
  0.2931870E+01  0.9665100E+01  0.0000000E+00  0.1855094E+00 -0.1877441E+01  0.5599821E-01  0.1768557E+00
  0.1970410E+01  0.9905930E+01  0.0000000E+00  0.2049723E+00 -0.1860981E+01  0.5864850E-01  0.1964026E+00
  0.9899730E+00  0.1005140E+02  0.0000000E+00  0.2231601E+00 -0.1850945E+01  0.6170352E-01  0.2144600E+00
 -0.4414850E-06  0.1010000E+02  0.0000000E+00  0.2401133E+00 -0.1844517E+01  0.6490637E-01  0.2311743E+00
 -0.9899740E+00  0.1005140E+02  0.0000000E+00  0.2551018E+00 -0.1841408E+01  0.6819399E-01  0.2458180E+00
 -0.1970410E+01  0.9905930E+01  0.0000000E+00  0.2688259E+00 -0.1839955E+01  0.7148638E-01  0.2591467E+00
 -0.2931880E+01  0.9665100E+01  0.0000000E+00  0.2804727E+00 -0.1839812E+01  0.7454468E-01  0.2703849E+00
 -0.3865100E+01  0.9331180E+01  0.0000000E+00  0.2904385E+00 -0.1839917E+01  0.7722296E-01  0.2799842E+00
 -0.4761110E+01  0.8907400E+01  0.0000000E+00  0.2977878E+00 -0.1840677E+01  0.7939503E-01  0.2870087E+00
 -0.5611260E+01  0.8397840E+01  0.0000000E+00  0.3034658E+00 -0.1841291E+01  0.8108867E-01  0.2924314E+00
 -0.6407370E+01  0.7807410E+01  0.0000000E+00  0.3066886E+00 -0.1841797E+01  0.8209933E-01  0.2954955E+00
 -0.7141780E+01  0.7141780E+01  0.0000000E+00  0.3081055E+00 -0.1841782E+01  0.8247408E-01  0.2968620E+00
 -0.7807410E+01  0.6407370E+01  0.0000000E+00  0.3066885E+00 -0.1841797E+01  0.8209927E-01  0.2954954E+00
 -0.8397840E+01  0.5611260E+01  0.0000000E+00  0.3034655E+00 -0.1841292E+01  0.8108865E-01  0.2924311E+00
 -0.8907410E+01  0.4761110E+01  0.0000000E+00  0.2977877E+00 -0.1840677E+01  0.7939499E-01  0.2870086E+00
 -0.9331180E+01  0.3865100E+01  0.0000000E+00  0.2904381E+00 -0.1839917E+01  0.7722289E-01  0.2799837E+00
 -0.9665100E+01  0.2931880E+01  0.0000000E+00  0.2804728E+00 -0.1839812E+01  0.7454467E-01  0.2703850E+00
 -0.9905930E+01  0.1970410E+01  0.0000000E+00  0.2688257E+00 -0.1839955E+01  0.7148632E-01  0.2591465E+00
 -0.1005140E+02  0.9899730E+00  0.0000000E+00  0.2551016E+00 -0.1841408E+01  0.6819393E-01  0.2458179E+00
 -0.1010000E+02 -0.8829700E-06  0.0000000E+00  0.2401134E+00 -0.1844517E+01  0.6490628E-01  0.2311744E+00
 -0.1005140E+02 -0.9899740E+00  0.0000000E+00  0.2231601E+00 -0.1850945E+01  0.6170343E-01  0.2144601E+00
 -0.9905930E+01 -0.1970410E+01  0.0000000E+00  0.2049721E+00 -0.1860981E+01  0.5864845E-01  0.1964025E+00
 -0.9665100E+01 -0.2931880E+01  0.0000000E+00  0.1855090E+00 -0.1877441E+01  0.5599806E-01  0.1768553E+00
 -0.9331180E+01 -0.3865100E+01  0.0000000E+00  0.1655485E+00 -0.1902301E+01  0.5388038E-01  0.1565350E+00
 -0.8907400E+01 -0.4761110E+01  0.0000000E+00  0.1448662E+00 -0.1941174E+01  0.5243684E-01  0.1350430E+00
 -0.8397840E+01 -0.5611260E+01  0.0000000E+00  0.1240357E+00 -0.2000068E+01  0.5162477E-01  0.1127818E+00
 -0.7807400E+01 -0.6407370E+01  0.0000000E+00  0.1037562E+00 -0.2091958E+01  0.5165900E-01  0.8998169E-01
 -0.7141780E+01 -0.7141780E+01  0.0000000E+00  0.8522739E-01 -0.2233957E+01  0.5246688E-01  0.6716349E-01
 -0.6407370E+01 -0.7807410E+01  0.0000000E+00  0.7000147E-01 -0.2455523E+01  0.5416306E-01  0.4434601E-01
 -0.5611260E+01 -0.8397850E+01  0.0000000E+00  0.6058075E-01 -0.2777950E+01  0.5661920E-01  0.2154745E-01
 -0.4761110E+01 -0.8907410E+01  0.0000000E+00  0.5987551E-01  0.3129719E+01  0.5987129E-01 -0.7108937E-03
 -0.3865100E+01 -0.9331190E+01  0.0000000E+00  0.6743962E-01  0.2806155E+01  0.6368097E-01 -0.2219992E-01
 -0.2931870E+01 -0.9665100E+01  0.0000000E+00  0.8024759E-01  0.2583217E+01  0.6805933E-01 -0.4251593E-01
 -0.1970410E+01 -0.9905930E+01  0.0000000E+00  0.9571565E-01  0.2436167E+01  0.7287170E-01 -0.6205804E-01
 -0.9899710E+00 -0.1005140E+02  0.0000000E+00  0.1117719E+00  0.2342494E+01  0.7794444E-01 -0.8011001E-01
  0.1204410E-06 -0.1010000E+02  0.0000000E+00  0.1275365E+00  0.2279583E+01  0.8301517E-01 -0.9681956E-01
  0.9899760E+00 -0.1005140E+02  0.0000000E+00  0.1419948E+00  0.2238993E+01  0.8797594E-01 -0.1114574E+00
  0.1970410E+01 -0.9905930E+01  0.0000000E+00  0.1554892E+00  0.2210116E+01  0.9277258E-01 -0.1247804E+00
  0.2931880E+01 -0.9665100E+01  0.0000000E+00  0.1671285E+00  0.2190884E+01  0.9711949E-01 -0.1360137E+00
  0.3865100E+01 -0.9331180E+01  0.0000000E+00  0.1771424E+00  0.2176697E+01  0.1008831E+00 -0.1456092E+00
  0.4761110E+01 -0.8907410E+01  0.0000000E+00  0.1846302E+00  0.2168409E+01  0.1038860E+00 -0.1526302E+00
  0.5611260E+01 -0.8397840E+01  0.0000000E+00  0.1904148E+00  0.2162427E+01  0.1061973E+00 -0.1580504E+00
  0.6407370E+01 -0.7807410E+01  0.0000000E+00  0.1937234E+00  0.2159497E+01  0.1075710E+00 -0.1611125E+00
  0.7141780E+01 -0.7141780E+01  0.0000000E+00  0.1951450E+00  0.2157793E+01  0.1080835E+00 -0.1624792E+00
  0.7807410E+01 -0.6407370E+01  0.0000000E+00  0.1937236E+00  0.2159498E+01  0.1075711E+00 -0.1611126E+00
  0.8397840E+01 -0.5611260E+01  0.0000000E+00  0.1904148E+00  0.2162427E+01  0.1061973E+00 -0.1580504E+00
  0.8907410E+01 -0.4761110E+01  0.0000000E+00  0.1846302E+00  0.2168410E+01  0.1038861E+00 -0.1526302E+00
  0.9331180E+01 -0.3865100E+01  0.0000000E+00  0.1771426E+00  0.2176697E+01  0.1008831E+00 -0.1456094E+00
  0.9665100E+01 -0.2931870E+01  0.0000000E+00  0.1671285E+00  0.2190884E+01  0.9711944E-01 -0.1360138E+00
  0.9905930E+01 -0.1970410E+01  0.0000000E+00  0.1554893E+00  0.2210116E+01  0.9277257E-01 -0.1247805E+00
  0.1005140E+02 -0.9899690E+00  0.0000000E+00  0.1419948E+00  0.2238993E+01  0.8797591E-01 -0.1114574E+00
  0.1010000E+02  0.0000000E+00 -0.2568960E-01  0.1274756E+00  0.2279404E+01  0.8295827E-01 -0.9678823E-01
  0.1005140E+02  0.9899730E+00 -0.2568960E-01  0.1117102E+00  0.2342355E+01  0.7789030E-01 -0.8007663E-01
  0.9905930E+01  0.1970410E+01 -0.2568960E-01  0.9561239E-01  0.2436712E+01  0.7282691E-01 -0.6195135E-01
  0.9665100E+01  0.2931880E+01 -0.2568960E-01  0.8019815E-01  0.2583042E+01  0.6800995E-01 -0.4250165E-01
  0.9331180E+01  0.3865100E+01 -0.2568960E-01  0.6739552E-01  0.2805843E+01  0.6363238E-01 -0.2220529E-01
  0.8907400E+01  0.4761110E+01 -0.2568960E-01  0.5983141E-01  0.3129518E+01  0.5982705E-01 -0.7224223E-03
  0.8397840E+01  0.5611260E+01 -0.2568960E-01  0.6056286E-01 -0.2777722E+01  0.5659758E-01  0.2155396E-01
  0.7807410E+01  0.6407370E+01 -0.2568960E-01  0.6994762E-01 -0.2455529E+01  0.5412168E-01  0.4431155E-01
  0.7141780E+01  0.7141780E+01 -0.2568960E-01  0.8516259E-01 -0.2233908E+01  0.5242370E-01  0.6711499E-01
  0.6407370E+01  0.7807410E+01 -0.2568960E-01  0.1036827E+00 -0.2091924E+01  0.5161935E-01  0.8991966E-01
  0.5611260E+01  0.8397840E+01 -0.2568960E-01  0.1239351E+00 -0.2000289E+01  0.5160774E-01  0.1126789E+00
  0.4761110E+01  0.8907410E+01 -0.2568960E-01  0.1447726E+00 -0.1941132E+01  0.5239736E-01  0.1349578E+00
  0.3865100E+01  0.9331180E+01 -0.2568960E-01  0.1654483E+00 -0.1902238E+01  0.5383791E-01  0.1564437E+00
  0.2931870E+01  0.9665100E+01 -0.2568960E-01  0.1853912E+00 -0.1877408E+01  0.5595668E-01  0.1767449E+00
  0.1970410E+01  0.9905930E+01 -0.2568960E-01  0.2047683E+00 -0.1861117E+01  0.5861677E-01  0.1961992E+00
  0.9899730E+00  0.1005140E+02 -0.2568960E-01  0.2230231E+00 -0.1850919E+01  0.6165988E-01  0.2143301E+00
 -0.4414850E-06  0.1010000E+02 -0.2568960E-01  0.2399777E+00 -0.1844478E+01  0.6486057E-01  0.2310463E+00
 -0.9899740E+00  0.1005140E+02 -0.2568960E-01  0.2549452E+00 -0.1841385E+01  0.6814659E-01  0.2456687E+00
 -0.1970410E+01  0.9905930E+01 -0.2568960E-01  0.2685434E+00 -0.1840032E+01  0.7143124E-01  0.2588690E+00
 -0.2931880E+01  0.9665100E+01 -0.2568960E-01  0.2803029E+00 -0.1839794E+01  0.7449479E-01  0.2702225E+00
 -0.3865100E+01  0.9331180E+01 -0.2568960E-01  0.2902784E+00 -0.1839891E+01  0.7717304E-01  0.2798318E+00
 -0.4761110E+01  0.8907400E+01 -0.2568960E-01  0.2976074E+00 -0.1840660E+01  0.7934223E-01  0.2868362E+00
 -0.5611260E+01  0.8397840E+01 -0.2568960E-01  0.3031415E+00 -0.1841341E+01  0.8101652E-01  0.2921148E+00
 -0.6407370E+01  0.7807410E+01 -0.2568960E-01  0.3065037E+00 -0.1841782E+01  0.8204535E-01  0.2953186E+00
 -0.7141780E+01  0.7141780E+01 -0.2568960E-01  0.3079366E+00 -0.1841760E+01  0.8242235E-01  0.2967010E+00
 -0.7807410E+01  0.6407370E+01 -0.2568960E-01  0.3065037E+00 -0.1841782E+01  0.8204538E-01  0.2953186E+00
 -0.8397840E+01  0.5611260E+01 -0.2568960E-01  0.3031420E+00 -0.1841341E+01  0.8101651E-01  0.2921154E+00
 -0.8907410E+01  0.4761110E+01 -0.2568960E-01  0.2976072E+00 -0.1840660E+01  0.7934213E-01  0.2868359E+00
 -0.9331180E+01  0.3865100E+01 -0.2568960E-01  0.2902783E+00 -0.1839891E+01  0.7717300E-01  0.2798317E+00
 -0.9665100E+01  0.2931880E+01 -0.2568960E-01  0.2803027E+00 -0.1839794E+01  0.7449470E-01  0.2702224E+00
 -0.9905930E+01  0.1970410E+01 -0.2568960E-01  0.2685429E+00 -0.1840033E+01  0.7143116E-01  0.2588685E+00
 -0.1005140E+02  0.9899730E+00 -0.2568960E-01  0.2549452E+00 -0.1841385E+01  0.6814648E-01  0.2456687E+00
 -0.1010000E+02 -0.8829700E-06 -0.2568960E-01  0.2399774E+00 -0.1844478E+01  0.6486052E-01  0.2310460E+00
 -0.1005140E+02 -0.9899740E+00 -0.2568960E-01  0.2230228E+00 -0.1850919E+01  0.6165979E-01  0.2143297E+00
 -0.9905930E+01 -0.1970410E+01 -0.2568960E-01  0.2047684E+00 -0.1861116E+01  0.5861668E-01  0.1961994E+00
 -0.9665100E+01 -0.2931880E+01 -0.2568960E-01  0.1853909E+00 -0.1877408E+01  0.5595656E-01  0.1767446E+00
 -0.9331180E+01 -0.3865100E+01 -0.2568960E-01  0.1654483E+00 -0.1902238E+01  0.5383789E-01  0.1564436E+00
 -0.8907400E+01 -0.4761110E+01 -0.2568960E-01  0.1447725E+00 -0.1941132E+01  0.5239732E-01  0.1349577E+00
 -0.8397840E+01 -0.5611260E+01 -0.2568960E-01  0.1239349E+00 -0.2000289E+01  0.5160768E-01  0.1126788E+00
 -0.7807400E+01 -0.6407370E+01 -0.2568960E-01  0.1036826E+00 -0.2091925E+01  0.5161933E-01  0.8991950E-01
 -0.7141780E+01 -0.7141780E+01 -0.2568960E-01  0.8516279E-01 -0.2233906E+01  0.5242369E-01  0.6711525E-01
 -0.6407370E+01 -0.7807410E+01 -0.2568960E-01  0.6994778E-01 -0.2455528E+01  0.5412174E-01  0.4431172E-01
 -0.5611260E+01 -0.8397850E+01 -0.2568960E-01  0.6056294E-01 -0.2777719E+01  0.5659759E-01  0.2155418E-01
 -0.4761110E+01 -0.8907410E+01 -0.2568960E-01  0.5983140E-01  0.3129522E+01  0.5982704E-01 -0.7222045E-03
 -0.3865100E+01 -0.9331190E+01 -0.2568960E-01  0.6739545E-01  0.2805846E+01  0.6363239E-01 -0.2220506E-01
 -0.2931870E+01 -0.9665100E+01 -0.2568960E-01  0.8019804E-01  0.2583043E+01  0.6800991E-01 -0.4250152E-01
 -0.1970410E+01 -0.9905930E+01 -0.2568960E-01  0.9561218E-01  0.2436714E+01  0.7282688E-01 -0.6195108E-01
 -0.9899710E+00 -0.1005140E+02 -0.2568960E-01  0.1117100E+00  0.2342356E+01  0.7789032E-01 -0.8007641E-01
  0.1204410E-06 -0.1010000E+02 -0.2568960E-01  0.1274756E+00  0.2279405E+01  0.8295831E-01 -0.9678815E-01
  0.9899760E+00 -0.1005140E+02 -0.2568960E-01  0.1419157E+00  0.2238892E+01  0.8791563E-01 -0.1114043E+00
  0.1970410E+01 -0.9905930E+01 -0.2568960E-01  0.1552992E+00  0.2210426E+01  0.9269777E-01 -0.1245992E+00
  0.2931880E+01 -0.9665100E+01 -0.2568960E-01  0.1670372E+00  0.2190799E+01  0.9705484E-01 -0.1359477E+00
  0.3865100E+01 -0.9331180E+01 -0.2568960E-01  0.1770599E+00  0.2176577E+01  0.1008186E+00 -0.1455535E+00
  0.4761110E+01 -0.8907410E+01 -0.2568960E-01  0.1845285E+00  0.2168334E+01  0.1038173E+00 -0.1525540E+00
  0.5611260E+01 -0.8397840E+01 -0.2568960E-01  0.1901791E+00  0.2162657E+01  0.1061021E+00 -0.1578305E+00
  0.6407370E+01 -0.7807410E+01 -0.2568960E-01  0.1936173E+00  0.2159426E+01  0.1075006E+00 -0.1610320E+00
  0.7141780E+01 -0.7141780E+01 -0.2568960E-01  0.1950541E+00  0.2157687E+01  0.1080161E+00 -0.1624150E+00
  0.7807410E+01 -0.6407370E+01 -0.2568960E-01  0.1936173E+00  0.2159426E+01  0.1075006E+00 -0.1610319E+00
  0.8397840E+01 -0.5611260E+01 -0.2568960E-01  0.1901791E+00  0.2162657E+01  0.1061021E+00 -0.1578304E+00
  0.8907410E+01 -0.4761110E+01 -0.2568960E-01  0.1845285E+00  0.2168334E+01  0.1038173E+00 -0.1525540E+00
  0.9331180E+01 -0.3865100E+01 -0.2568960E-01  0.1770600E+00  0.2176577E+01  0.1008186E+00 -0.1455536E+00
  0.9665100E+01 -0.2931870E+01 -0.2568960E-01  0.1670374E+00  0.2190798E+01  0.9705487E-01 -0.1359479E+00
  0.9905930E+01 -0.1970410E+01 -0.2568960E-01  0.1552994E+00  0.2210425E+01  0.9269777E-01 -0.1245994E+00
  0.1005140E+02 -0.9899690E+00 -0.2568960E-01  0.1419157E+00  0.2238891E+01  0.8791558E-01 -0.1114043E+00
  0.1010000E+02  0.0000000E+00 -0.1027320E+00  0.1272613E+00  0.2279092E+01  0.8278858E-01 -0.9665141E-01
  0.1005140E+02  0.9899730E+00 -0.1027320E+00  0.1114968E+00  0.2342202E+01  0.7772928E-01 -0.7993550E-01
  0.9905930E+01  0.1970410E+01 -0.1027320E+00  0.9539755E-01  0.2436944E+01  0.7267763E-01 -0.6179528E-01
  0.9665100E+01  0.2931880E+01 -0.1027320E+00  0.8003602E-01  0.2582851E+01  0.6786437E-01 -0.4242867E-01
  0.9331180E+01  0.3865100E+01 -0.1027320E+00  0.6725754E-01  0.2805256E+01  0.6348911E-01 -0.2219707E-01
  0.8907400E+01  0.4761110E+01 -0.1027320E+00  0.5970196E-01  0.3129239E+01  0.5969740E-01 -0.7375297E-03
  0.8397840E+01  0.5611260E+01 -0.1027320E+00  0.6044419E-01 -0.2777652E+01  0.5648517E-01  0.2151570E-01
  0.7807410E+01  0.6407370E+01 -0.1027320E+00  0.6979383E-01 -0.2455508E+01  0.5400173E-01  0.4421528E-01
  0.7141780E+01  0.7141780E+01 -0.1027320E+00  0.8497131E-01 -0.2233785E+01  0.5229773E-01  0.6697067E-01
  0.6407370E+01  0.7807410E+01 -0.1027320E+00  0.1034586E+00 -0.2091890E+01  0.5150472E-01  0.8972710E-01
  0.5611260E+01  0.8397840E+01 -0.1027320E+00  0.1236650E+00 -0.2000388E+01  0.5150643E-01  0.1124283E+00
  0.4761110E+01  0.8907410E+01 -0.1027320E+00  0.1444763E+00 -0.1941079E+01  0.5228290E-01  0.1346844E+00
  0.3865100E+01  0.9331180E+01 -0.1027320E+00  0.1651270E+00 -0.1902113E+01  0.5371387E-01  0.1561465E+00
  0.2931870E+01  0.9665100E+01 -0.1027320E+00  0.1850101E+00 -0.1877377E+01  0.5583612E-01  0.1763833E+00
  0.1970410E+01  0.9905930E+01 -0.1027320E+00  0.2043086E+00 -0.1861187E+01  0.5849903E-01  0.1957547E+00
  0.9899730E+00  0.1005140E+02 -0.1027320E+00  0.2225746E+00 -0.1850902E+01  0.6153228E-01  0.2139001E+00
 -0.4414850E-06  0.1010000E+02 -0.1027320E+00  0.2395322E+00 -0.1844418E+01  0.6472640E-01  0.2306213E+00
 -0.9899740E+00  0.1005140E+02 -0.1027320E+00  0.2544296E+00 -0.1841379E+01  0.6800723E-01  0.2451723E+00
 -0.1970410E+01  0.9905930E+01 -0.1027320E+00  0.2679348E+00 -0.1840089E+01  0.7128396E-01  0.2582782E+00
 -0.2931880E+01  0.9665100E+01 -0.1027320E+00  0.2797412E+00 -0.1839800E+01  0.7434698E-01  0.2696806E+00
 -0.3865100E+01  0.9331180E+01 -0.1027320E+00  0.2897467E+00 -0.1839871E+01  0.7702615E-01  0.2793208E+00
 -0.4761110E+01  0.8907400E+01 -0.1027320E+00  0.2970102E+00 -0.1840669E+01  0.7918563E-01  0.2862599E+00
 -0.5611260E+01  0.8397840E+01 -0.1027320E+00  0.3024524E+00 -0.1841392E+01  0.8084722E-01  0.2914467E+00
 -0.6407370E+01  0.7807410E+01 -0.1027320E+00  0.3058894E+00 -0.1841796E+01  0.8188510E-01  0.2947256E+00
 -0.7141780E+01  0.7141780E+01 -0.1027320E+00  0.3073751E+00 -0.1841752E+01  0.8226975E-01  0.2961607E+00
 -0.7807410E+01  0.6407370E+01 -0.1027320E+00  0.3058898E+00 -0.1841796E+01  0.8188508E-01  0.2947260E+00
 -0.8397840E+01  0.5611260E+01 -0.1027320E+00  0.3024521E+00 -0.1841392E+01  0.8084722E-01  0.2914464E+00
 -0.8907410E+01  0.4761110E+01 -0.1027320E+00  0.2970097E+00 -0.1840670E+01  0.7918552E-01  0.2862594E+00
 -0.9331180E+01  0.3865100E+01 -0.1027320E+00  0.2897466E+00 -0.1839871E+01  0.7702608E-01  0.2793207E+00
 -0.9665100E+01  0.2931880E+01 -0.1027320E+00  0.2797413E+00 -0.1839799E+01  0.7434689E-01  0.2696809E+00
 -0.9905930E+01  0.1970410E+01 -0.1027320E+00  0.2679349E+00 -0.1840089E+01  0.7128388E-01  0.2582784E+00
 -0.1005140E+02  0.9899730E+00 -0.1027320E+00  0.2544295E+00 -0.1841379E+01  0.6800716E-01  0.2451721E+00
 -0.1010000E+02 -0.8829700E-06 -0.1027320E+00  0.2395318E+00 -0.1844418E+01  0.6472635E-01  0.2306208E+00
 -0.1005140E+02 -0.9899740E+00 -0.1027320E+00  0.2225744E+00 -0.1850901E+01  0.6153218E-01  0.2138999E+00
 -0.9905930E+01 -0.1970410E+01 -0.1027320E+00  0.2043082E+00 -0.1861188E+01  0.5849901E-01  0.1957542E+00
 -0.9665100E+01 -0.2931880E+01 -0.1027320E+00  0.1850098E+00 -0.1877377E+01  0.5583605E-01  0.1763830E+00
 -0.9331180E+01 -0.3865100E+01 -0.1027320E+00  0.1651269E+00 -0.1902113E+01  0.5371385E-01  0.1561464E+00
 -0.8907400E+01 -0.4761110E+01 -0.1027320E+00  0.1444761E+00 -0.1941079E+01  0.5228288E-01  0.1346842E+00
 -0.8397840E+01 -0.5611260E+01 -0.1027320E+00  0.1236649E+00 -0.2000388E+01  0.5150636E-01  0.1124282E+00
 -0.7807400E+01 -0.6407370E+01 -0.1027320E+00  0.1034587E+00 -0.2091889E+01  0.5150467E-01  0.8972721E-01
 -0.7141780E+01 -0.7141780E+01 -0.1027320E+00  0.8497136E-01 -0.2233784E+01  0.5229768E-01  0.6697078E-01
 -0.6407370E+01 -0.7807410E+01 -0.1027320E+00  0.6979379E-01 -0.2455506E+01  0.5400164E-01  0.4421534E-01
 -0.5611260E+01 -0.8397850E+01 -0.1027320E+00  0.6044422E-01 -0.2777650E+01  0.5648516E-01  0.2151583E-01
 -0.4761110E+01 -0.8907410E+01 -0.1027320E+00  0.5970196E-01  0.3129241E+01  0.5969741E-01 -0.7374025E-03
 -0.3865100E+01 -0.9331190E+01 -0.1027320E+00  0.6725747E-01  0.2805261E+01  0.6348915E-01 -0.2219675E-01
 -0.2931870E+01 -0.9665100E+01 -0.1027320E+00  0.8003599E-01  0.2582852E+01  0.6786438E-01 -0.4242860E-01
 -0.1970410E+01 -0.9905930E+01 -0.1027320E+00  0.9539730E-01  0.2436946E+01  0.7267752E-01 -0.6179501E-01
 -0.9899710E+00 -0.1005140E+02 -0.1027320E+00  0.1114966E+00  0.2342203E+01  0.7772924E-01 -0.7993537E-01
  0.1204410E-06 -0.1010000E+02 -0.1027320E+00  0.1272612E+00  0.2279093E+01  0.8278859E-01 -0.9665124E-01
  0.9899760E+00 -0.1005140E+02 -0.1027320E+00  0.1416412E+00  0.2238799E+01  0.8773529E-01 -0.1111969E+00
  0.1970410E+01 -0.9905930E+01 -0.1027320E+00  0.1549406E+00  0.2210582E+01  0.9250316E-01 -0.1242971E+00
  0.2931880E+01 -0.9665100E+01 -0.1027320E+00  0.1667190E+00  0.2190730E+01  0.9686054E-01 -0.1356955E+00
  0.3865100E+01 -0.9331180E+01 -0.1027320E+00  0.1767672E+00  0.2176393E+01  0.1006252E+00 -0.1453315E+00
  0.4761110E+01 -0.8907410E+01 -0.1027320E+00  0.1841740E+00  0.2168283E+01  0.1036100E+00 -0.1522662E+00
  0.5611260E+01 -0.8397840E+01 -0.1027320E+00  0.1897386E+00  0.2162788E+01  0.1058769E+00 -0.1574509E+00
  0.6407370E+01 -0.7807410E+01 -0.1027320E+00  0.1932468E+00  0.2159381E+01  0.1072877E+00 -0.1607286E+00
  0.7141780E+01 -0.7141780E+01 -0.1027320E+00  0.1947320E+00  0.2157537E+01  0.1078132E+00 -0.1621630E+00
  0.7807410E+01 -0.6407370E+01 -0.1027320E+00  0.1932469E+00  0.2159381E+01  0.1072877E+00 -0.1607287E+00
  0.8397840E+01 -0.5611260E+01 -0.1027320E+00  0.1897385E+00  0.2162788E+01  0.1058770E+00 -0.1574509E+00
