 VARIABLES="X" "Y" "Z" "abs(eta) (m)" "angle(phi) (rad)" "PRE1" "PRE2"
ZONE N=   3200 ,E =    3136 ,F=FEPOINT,ET=QUADRILATERAL
  0.1010000E+02  0.0000000E+00  0.0000000E+00  0.1490053E+00 -0.1931783E+01  0.5262835E-01  0.1394017E+00
  0.1005140E+02  0.9899730E+00  0.0000000E+00  0.1694315E+00 -0.1896784E+01  0.5425952E-01  0.1605084E+00
  0.9905930E+01  0.1970410E+01  0.0000000E+00  0.1895944E+00 -0.1873415E+01  0.5650303E-01  0.1809791E+00
  0.9665100E+01  0.2931880E+01  0.0000000E+00  0.2087238E+00 -0.1858717E+01  0.5926895E-01  0.2001320E+00
  0.9331180E+01  0.3865100E+01  0.0000000E+00  0.2267537E+00 -0.1849095E+01  0.6229381E-01  0.2180291E+00
  0.8907400E+01  0.4761110E+01  0.0000000E+00  0.2430103E+00 -0.1843855E+01  0.6553455E-01  0.2340069E+00
  0.8397840E+01  0.5611260E+01  0.0000000E+00  0.2581194E+00 -0.1840977E+01  0.6889360E-01  0.2487555E+00
  0.7807410E+01  0.6407370E+01  0.0000000E+00  0.2712705E+00 -0.1839976E+01  0.7214187E-01  0.2615018E+00
  0.7141780E+01  0.7141780E+01  0.0000000E+00  0.2828061E+00 -0.1839585E+01  0.7510310E-01  0.2726515E+00
  0.6407370E+01  0.7807410E+01  0.0000000E+00  0.2918168E+00 -0.1840159E+01  0.7765734E-01  0.2812941E+00
  0.5611260E+01  0.8397840E+01  0.0000000E+00  0.2992155E+00 -0.1840797E+01  0.7981038E-01  0.2883752E+00
  0.4761110E+01  0.8907410E+01  0.0000000E+00  0.3042047E+00 -0.1841474E+01  0.8133963E-01  0.2931286E+00
  0.3865100E+01  0.9331180E+01  0.0000000E+00  0.3073896E+00 -0.1841679E+01  0.8225189E-01  0.2961806E+00
  0.2931870E+01  0.9665100E+01  0.0000000E+00  0.3077528E+00 -0.1841936E+01  0.8242545E-01  0.2965094E+00
  0.1970410E+01  0.9905930E+01  0.0000000E+00  0.3063132E+00 -0.1841666E+01  0.8196010E-01  0.2951446E+00
  0.9899730E+00  0.1005140E+02  0.0000000E+00  0.3023888E+00 -0.1841193E+01  0.8077231E-01  0.2914015E+00
 -0.4414850E-06  0.1010000E+02  0.0000000E+00  0.2967477E+00 -0.1840414E+01  0.7904273E-01  0.2860270E+00
 -0.9899740E+00  0.1005140E+02  0.0000000E+00  0.2884098E+00 -0.1840054E+01  0.7672169E-01  0.2780179E+00
 -0.1970410E+01  0.9905930E+01  0.0000000E+00  0.2783481E+00 -0.1839666E+01  0.7394098E-01  0.2683475E+00
 -0.2931880E+01  0.9665100E+01  0.0000000E+00  0.2660984E+00 -0.1840141E+01  0.7080866E-01  0.2565044E+00
 -0.3865100E+01  0.9331180E+01  0.0000000E+00  0.2524785E+00 -0.1841727E+01  0.6757032E-01  0.2432687E+00
 -0.4761110E+01  0.8907400E+01  0.0000000E+00  0.2367293E+00 -0.1845808E+01  0.6428573E-01  0.2278335E+00
 -0.5611260E+01  0.8397840E+01  0.0000000E+00  0.2196207E+00 -0.1852415E+01  0.6103491E-01  0.2109692E+00
 -0.6407370E+01  0.7807410E+01  0.0000000E+00  0.2010389E+00 -0.1863796E+01  0.5806511E-01  0.1924710E+00
 -0.7141780E+01  0.7141780E+01  0.0000000E+00  0.1817584E+00 -0.1881304E+01  0.5553489E-01  0.1730664E+00
 -0.7807410E+01  0.6407370E+01  0.0000000E+00  0.1614325E+00 -0.1909124E+01  0.5358103E-01  0.1522810E+00
 -0.8397840E+01  0.5611260E+01  0.0000000E+00  0.1406348E+00 -0.1950933E+01  0.5218221E-01  0.1305954E+00
 -0.8907410E+01  0.4761110E+01  0.0000000E+00  0.1198208E+00 -0.2015768E+01  0.5157474E-01  0.1081530E+00
 -0.9331180E+01  0.3865100E+01  0.0000000E+00  0.9996092E-01 -0.2114701E+01  0.5172792E-01  0.8553601E-01
 -0.9665100E+01  0.2931880E+01  0.0000000E+00  0.8193119E-01 -0.2270588E+01  0.5276845E-01  0.6267543E-01
 -0.9905930E+01  0.1970410E+01  0.0000000E+00  0.6747159E-01 -0.2513164E+01  0.5458131E-01  0.3966480E-01
 -0.1005140E+02  0.9899730E+00  0.0000000E+00  0.5971141E-01 -0.2853099E+01  0.5724375E-01  0.1698840E-01
 -0.1010000E+02 -0.8829700E-06  0.0000000E+00  0.6075422E-01  0.3058054E+01  0.6054235E-01 -0.5069424E-02
 -0.1005140E+02 -0.9899740E+00  0.0000000E+00  0.6961909E-01  0.2756189E+01  0.6451230E-01 -0.2617212E-01
 -0.9905930E+01 -0.1970410E+01  0.0000000E+00  0.8329357E-01  0.2547298E+01  0.6901236E-01 -0.4663811E-01
 -0.9665100E+01 -0.2931880E+01  0.0000000E+00  0.9894525E-01  0.2414268E+01  0.7390773E-01 -0.6578609E-01
 -0.9331180E+01 -0.3865100E+01  0.0000000E+00  0.1150275E+00  0.2326977E+01  0.7892592E-01 -0.8367814E-01
 -0.8907400E+01 -0.4761110E+01  0.0000000E+00  0.1303193E+00  0.2271071E+01  0.8398141E-01 -0.9965061E-01
 -0.8397840E+01 -0.5611260E+01  0.0000000E+00  0.1449365E+00  0.2231979E+01  0.8899838E-01 -0.1143935E+00
 -0.7807400E+01 -0.6407370E+01  0.0000000E+00  0.1579339E+00  0.2205937E+01  0.9370076E-01 -0.1271349E+00
 -0.7141780E+01 -0.7141780E+01  0.0000000E+00  0.1694399E+00  0.2186965E+01  0.9792153E-01 -0.1382797E+00
 -0.6407370E+01 -0.7807410E+01  0.0000000E+00  0.1785640E+00  0.2175315E+01  0.1014897E+00 -0.1469181E+00
 -0.5611260E+01 -0.8397850E+01  0.0000000E+00  0.1860759E+00  0.2166786E+01  0.1044497E+00 -0.1539952E+00
 -0.4761110E+01 -0.8907410E+01  0.0000000E+00  0.1911819E+00  0.2161868E+01  0.1065363E+00 -0.1587467E+00
 -0.3865100E+01 -0.9331190E+01  0.0000000E+00  0.1944106E+00  0.2158445E+01  0.1077823E+00 -0.1617976E+00
 -0.2931870E+01 -0.9665100E+01  0.0000000E+00  0.1948124E+00  0.2158506E+01  0.1080149E+00 -0.1621254E+00
 -0.1970410E+01 -0.9905930E+01  0.0000000E+00  0.1933270E+00  0.2159698E+01  0.1073831E+00 -0.1607613E+00
 -0.9899710E+00 -0.1005140E+02  0.0000000E+00  0.1893221E+00  0.2163593E+01  0.1057710E+00 -0.1570203E+00
  0.1204410E-06 -0.1010000E+02  0.0000000E+00  0.1835453E+00  0.2169221E+01  0.1033987E+00 -0.1516495E+00
  0.9899760E+00 -0.1005140E+02  0.0000000E+00  0.1751226E+00  0.2179759E+01  0.1001730E+00 -0.1436429E+00
  0.1970410E+01 -0.9905930E+01  0.0000000E+00  0.1649825E+00  0.2193904E+01  0.9627748E-01 -0.1339771E+00
  0.2931880E+01 -0.9665100E+01  0.0000000E+00  0.1527936E+00  0.2215343E+01  0.9180392E-01 -0.1221390E+00
  0.3865100E+01 -0.9331180E+01  0.0000000E+00  0.1394200E+00  0.2245070E+01  0.8704409E-01 -0.1089094E+00
  0.4761110E+01 -0.8907410E+01  0.0000000E+00  0.1243663E+00  0.2291046E+01  0.8202860E-01 -0.9347884E-01
  0.5611260E+01 -0.8397840E+01  0.0000000E+00  0.1085437E+00  0.2357917E+01  0.7688407E-01 -0.7661965E-01
  0.6407370E+01 -0.7807410E+01  0.0000000E+00  0.9242661E-01  0.2461454E+01  0.7186036E-01 -0.5812716E-01
  0.7141780E+01 -0.7141780E+01  0.0000000E+00  0.7752761E-01  0.2618528E+01  0.6716159E-01 -0.3872792E-01
  0.7807410E+01 -0.6407370E+01  0.0000000E+00  0.6542350E-01  0.2863728E+01  0.6291408E-01 -0.1794585E-01
  0.8397840E+01 -0.5611260E+01  0.0000000E+00  0.5924946E-01 -0.3078483E+01  0.5913151E-01  0.3736704E-02
  0.8907410E+01 -0.4761110E+01  0.0000000E+00  0.6187884E-01 -0.2704809E+01  0.5606947E-01  0.2617643E-01
  0.9331180E+01 -0.3865100E+01  0.0000000E+00  0.7258284E-01 -0.2404397E+01  0.5373717E-01  0.4879124E-01
  0.9665100E+01 -0.2931870E+01  0.0000000E+00  0.8869230E-01 -0.2201049E+01  0.5227068E-01  0.7165264E-01
  0.9905930E+01 -0.1970410E+01  0.0000000E+00  0.1078001E+00 -0.2069633E+01  0.5157198E-01  0.9466358E-01
  0.1005140E+02 -0.9899690E+00  0.0000000E+00  0.1282479E+00 -0.1986184E+01  0.5175380E-01  0.1173417E+00
  0.1010000E+02  0.0000000E+00 -0.2568960E-01  0.1489129E+00 -0.1931714E+01  0.5258602E-01  0.1393189E+00
  0.1005140E+02  0.9899730E+00 -0.2568960E-01  0.1693223E+00 -0.1896748E+01  0.5421880E-01  0.1604069E+00
  0.9905930E+01  0.1970410E+01 -0.2568960E-01  0.1894095E+00 -0.1873567E+01  0.5647548E-01  0.1807940E+00
  0.9665100E+01  0.2931880E+01 -0.2568960E-01  0.2085951E+00 -0.1858687E+01  0.5922652E-01  0.2000103E+00
  0.9331180E+01  0.3865100E+01 -0.2568960E-01  0.2266237E+00 -0.1849052E+01  0.6224876E-01  0.2179068E+00
  0.8907400E+01  0.4761110E+01 -0.2568960E-01  0.2428604E+00 -0.1843831E+01  0.6548856E-01  0.2338641E+00
  0.8397840E+01  0.5611260E+01 -0.2568960E-01  0.2578504E+00 -0.1841063E+01  0.6884310E-01  0.2484904E+00
  0.7807410E+01  0.6407370E+01 -0.2568960E-01  0.2711060E+00 -0.1839957E+01  0.7209309E-01  0.2613447E+00
  0.7141780E+01  0.7141780E+01 -0.2568960E-01  0.2826498E+00 -0.1839557E+01  0.7505398E-01  0.2725028E+00
  0.6407370E+01  0.7807410E+01 -0.2568960E-01  0.2916402E+00 -0.1840141E+01  0.7760547E-01  0.2811252E+00
  0.5611260E+01  0.8397840E+01 -0.2568960E-01  0.2988962E+00 -0.1840850E+01  0.7974051E-01  0.2880632E+00
  0.4761110E+01  0.8907410E+01 -0.2568960E-01  0.3040210E+00 -0.1841459E+01  0.8128605E-01  0.2929528E+00
  0.3865100E+01  0.9331180E+01 -0.2568960E-01  0.3072214E+00 -0.1841657E+01  0.8220038E-01  0.2960204E+00
  0.2931870E+01  0.9665100E+01 -0.2568960E-01  0.3075666E+00 -0.1841921E+01  0.8237111E-01  0.2963312E+00
  0.1970410E+01  0.9905930E+01 -0.2568960E-01  0.3059853E+00 -0.1841714E+01  0.8188654E-01  0.2948247E+00
  0.9899730E+00  0.1005140E+02 -0.2568960E-01  0.3022062E+00 -0.1841177E+01  0.8071883E-01  0.2912268E+00
 -0.4414850E-06  0.1010000E+02 -0.2568960E-01  0.2965852E+00 -0.1840389E+01  0.7899217E-01  0.2858724E+00
 -0.9899740E+00  0.1005140E+02 -0.2568960E-01  0.2882353E+00 -0.1840038E+01  0.7667061E-01  0.2778510E+00
 -0.1970410E+01  0.9905930E+01 -0.2568960E-01  0.2780542E+00 -0.1839736E+01  0.7388151E-01  0.2680591E+00
 -0.2931880E+01  0.9665100E+01 -0.2568960E-01  0.2659352E+00 -0.1840120E+01  0.7076003E-01  0.2563485E+00
 -0.3865100E+01  0.9331180E+01 -0.2568960E-01  0.2523378E+00 -0.1841690E+01  0.6752367E-01  0.2431356E+00
 -0.4761110E+01  0.8907400E+01 -0.2568960E-01  0.2365845E+00 -0.1845783E+01  0.6424088E-01  0.2276957E+00
 -0.5611260E+01  0.8397840E+01 -0.2568960E-01  0.2193982E+00 -0.1852536E+01  0.6099864E-01  0.2107480E+00
 -0.6407370E+01  0.7807410E+01 -0.2568960E-01  0.2009123E+00 -0.1863765E+01  0.5802271E-01  0.1923516E+00
 -0.7141780E+01  0.7141780E+01 -0.2568960E-01  0.1816509E+00 -0.1881246E+01  0.5549197E-01  0.1729673E+00
 -0.7807410E+01  0.6407370E+01 -0.2568960E-01  0.1613298E+00 -0.1909086E+01  0.5354113E-01  0.1521863E+00
 -0.8397840E+01  0.5611260E+01 -0.2568960E-01  0.1405120E+00 -0.1951140E+01  0.5216366E-01  0.1304706E+00
 -0.8907410E+01  0.4761110E+01 -0.2568960E-01  0.1197383E+00 -0.2015730E+01  0.5153516E-01  0.1080805E+00
 -0.9331180E+01  0.3865100E+01 -0.2568960E-01  0.9989005E-01 -0.2114631E+01  0.5168524E-01  0.8547898E-01
 -0.9665100E+01  0.2931880E+01 -0.2568960E-01  0.8187115E-01 -0.2270560E+01  0.5272805E-01  0.6263097E-01
 -0.9905930E+01  0.1970410E+01 -0.2568960E-01  0.6744742E-01 -0.2513177E+01  0.5456227E-01  0.3964990E-01
 -0.1005140E+02  0.9899730E+00 -0.2568960E-01  0.5966428E-01 -0.2853234E+01  0.5720087E-01  0.1696725E-01
 -0.1010000E+02 -0.8829700E-06 -0.2568960E-01  0.6070827E-01  0.3057768E+01  0.6049512E-01 -0.5082867E-02
 -0.1005140E+02 -0.9899740E+00 -0.2568960E-01  0.6957330E-01  0.2756003E+01  0.6446499E-01 -0.2616693E-01
 -0.9905930E+01 -0.1970410E+01 -0.2568960E-01  0.8321143E-01  0.2547915E+01  0.6897301E-01 -0.4654960E-01
 -0.9665100E+01 -0.2931880E+01 -0.2568960E-01  0.9888963E-01  0.2414111E+01  0.7385588E-01 -0.6576069E-01
 -0.9331180E+01 -0.3865100E+01 -0.2568960E-01  0.1149717E+00  0.2326776E+01  0.7887075E-01 -0.8365338E-01
 -0.8907400E+01 -0.4761110E+01 -0.2568960E-01  0.1302463E+00  0.2270960E+01  0.8392329E-01 -0.9960407E-01
 -0.8397840E+01 -0.5611260E+01 -0.2568960E-01  0.1447608E+00  0.2232319E+01  0.8892936E-01 -0.1142246E+00
 -0.7807400E+01 -0.6407370E+01 -0.2568960E-01  0.1578477E+00  0.2205846E+01  0.9363797E-01 -0.1270741E+00
 -0.7141780E+01 -0.7141780E+01 -0.2568960E-01  0.1693608E+00  0.2186838E+01  0.9785818E-01 -0.1382276E+00
 -0.6407370E+01 -0.7807410E+01 -0.2568960E-01  0.1784654E+00  0.2175236E+01  0.1014221E+00 -0.1468450E+00
 -0.5611260E+01 -0.8397850E+01 -0.2568960E-01  0.1858457E+00  0.2167025E+01  0.1043571E+00 -0.1537798E+00
 -0.4761110E+01 -0.8907410E+01 -0.2568960E-01  0.1910772E+00  0.2161795E+01  0.1064664E+00 -0.1586676E+00
 -0.3865100E+01 -0.9331190E+01 -0.2568960E-01  0.1943200E+00  0.2158339E+01  0.1077150E+00 -0.1617336E+00
 -0.2931870E+01 -0.9665100E+01 -0.2568960E-01  0.1947056E+00  0.2158435E+01  0.1079442E+00 -0.1620442E+00
 -0.1970410E+01 -0.9905930E+01 -0.2568960E-01  0.1930877E+00  0.2159923E+01  0.1072862E+00 -0.1605382E+00
 -0.9899710E+00 -0.1005140E+02 -0.2568960E-01  0.1892180E+00  0.2163520E+01  0.1057013E+00 -0.1569417E+00
  0.1204410E-06 -0.1010000E+02 -0.2568960E-01  0.1834599E+00  0.2169107E+01  0.1033333E+00 -0.1515907E+00
  0.9899760E+00 -0.1005140E+02 -0.2568960E-01  0.1750270E+00  0.2179677E+01  0.1001067E+00 -0.1435727E+00
  0.1970410E+01 -0.9905930E+01 -0.2568960E-01  0.1647799E+00  0.2194190E+01  0.9619750E-01 -0.1337852E+00
  0.2931880E+01 -0.9665100E+01 -0.2568960E-01  0.1527088E+00  0.2215249E+01  0.9174146E-01 -0.1220798E+00
  0.3865100E+01 -0.9331180E+01 -0.2568960E-01  0.1393542E+00  0.2244909E+01  0.8698542E-01 -0.1088720E+00
  0.4761110E+01 -0.8907410E+01 -0.2568960E-01  0.1242980E+00  0.2290924E+01  0.8197216E-01 -0.9343749E-01
  0.5611260E+01 -0.8397840E+01 -0.2568960E-01  0.1084199E+00  0.2358399E+01  0.7683324E-01 -0.7649527E-01
  0.6407370E+01 -0.7807410E+01 -0.2568960E-01  0.9237187E-01  0.2461300E+01  0.7180882E-01 -0.5810383E-01
  0.7141780E+01 -0.7141780E+01 -0.2568960E-01  0.7748256E-01  0.2618239E+01  0.6711137E-01 -0.3872481E-01
  0.7807410E+01 -0.6407370E+01 -0.2568960E-01  0.6537975E-01  0.2863510E+01  0.6286810E-01 -0.1794754E-01
  0.8397840E+01 -0.5611260E+01 -0.2568960E-01  0.5922625E-01 -0.3077981E+01  0.5910647E-01  0.3764914E-02
  0.8907410E+01 -0.4761110E+01 -0.2568960E-01  0.6183016E-01 -0.2704871E+01  0.5602699E-01  0.2615235E-01
  0.9331180E+01 -0.3865100E+01 -0.2568960E-01  0.7252416E-01 -0.2404390E+01  0.5369338E-01  0.4875218E-01
  0.9665100E+01 -0.2931870E+01 -0.2568960E-01  0.8862666E-01 -0.2201028E+01  0.5223054E-01  0.7160067E-01
  0.9905930E+01 -0.1970410E+01 -0.2568960E-01  0.1077207E+00 -0.2069864E+01  0.5155591E-01  0.9458195E-01
  0.1005140E+02 -0.9899690E+00 -0.2568960E-01  0.1281635E+00 -0.1986139E+01  0.5171444E-01  0.1172668E+00
  0.1010000E+02  0.0000000E+00 -0.1027320E+00  0.1486188E+00 -0.1931574E+01  0.5246279E-01  0.1390511E+00
  0.1005140E+02  0.9899730E+00 -0.1027320E+00  0.1689722E+00 -0.1896712E+01  0.5410091E-01  0.1600771E+00
  0.9905930E+01  0.1970410E+01 -0.1027320E+00  0.1889856E+00 -0.1873643E+01  0.5636271E-01  0.1803852E+00
  0.9665100E+01  0.2931880E+01 -0.1027320E+00  0.2081743E+00 -0.1858664E+01  0.5910247E-01  0.1996083E+00
  0.9331180E+01  0.3865100E+01 -0.1027320E+00  0.2262013E+00 -0.1848981E+01  0.6211730E-01  0.2175051E+00
  0.8907400E+01  0.4761110E+01 -0.1027320E+00  0.2423681E+00 -0.1843820E+01  0.6535327E-01  0.2333908E+00
  0.8397840E+01  0.5611260E+01 -0.1027320E+00  0.2572663E+00 -0.1841122E+01  0.6870174E-01  0.2479234E+00
  0.7807410E+01  0.6407370E+01 -0.1027320E+00  0.2705635E+00 -0.1839958E+01  0.7194926E-01  0.2608216E+00
  0.7141780E+01  0.7141780E+01 -0.1027320E+00  0.2821313E+00 -0.1839531E+01  0.7490923E-01  0.2720049E+00
  0.6407370E+01  0.7807410E+01 -0.1027320E+00  0.2910534E+00 -0.1840149E+01  0.7745149E-01  0.2805590E+00
  0.5611260E+01  0.8397840E+01 -0.1027320E+00  0.2982171E+00 -0.1840901E+01  0.7957411E-01  0.2874046E+00
  0.4761110E+01  0.8907410E+01 -0.1027320E+00  0.3034128E+00 -0.1841472E+01  0.8112727E-01  0.2923656E+00
  0.3865100E+01  0.9331180E+01 -0.1027320E+00  0.3066609E+00 -0.1841648E+01  0.8204791E-01  0.2954810E+00
  0.2931870E+01  0.9665100E+01 -0.1027320E+00  0.3069510E+00 -0.1841935E+01  0.8221028E-01  0.2957371E+00
  0.1970410E+01  0.9905930E+01 -0.1027320E+00  0.3052893E+00 -0.1841765E+01  0.8171531E-01  0.2941499E+00
  0.9899730E+00  0.1005140E+02 -0.1027320E+00  0.3015998E+00 -0.1841188E+01  0.8056010E-01  0.2906415E+00
 -0.4414850E-06  0.1010000E+02 -0.1027320E+00  0.2960426E+00 -0.1840374E+01  0.7884335E-01  0.2853505E+00
 -0.9899740E+00  0.1005140E+02 -0.1027320E+00  0.2876583E+00 -0.1840045E+01  0.7651933E-01  0.2772943E+00
 -0.1970410E+01  0.9905930E+01 -0.1027320E+00  0.2774233E+00 -0.1839791E+01  0.7372864E-01  0.2674467E+00
 -0.2931880E+01  0.9665100E+01 -0.1027320E+00  0.2653989E+00 -0.1840117E+01  0.7061654E-01  0.2558317E+00
 -0.3865100E+01  0.9331180E+01 -0.1027320E+00  0.2518703E+00 -0.1841641E+01  0.6738681E-01  0.2426884E+00
 -0.4761110E+01  0.8907400E+01 -0.1027320E+00  0.2361097E+00 -0.1845772E+01  0.6410924E-01  0.2272396E+00
 -0.5611260E+01  0.8397840E+01 -0.1027320E+00  0.2189045E+00 -0.1852603E+01  0.6087544E-01  0.2102697E+00
 -0.6407370E+01  0.7807410E+01 -0.1027320E+00  0.2005011E+00 -0.1863740E+01  0.5789903E-01  0.1919594E+00
 -0.7141780E+01  0.7141780E+01 -0.1027320E+00  0.1813028E+00 -0.1881136E+01  0.5536656E-01  0.1726419E+00
 -0.7807410E+01  0.6407370E+01 -0.1027320E+00  0.1610015E+00 -0.1909040E+01  0.5342519E-01  0.1518790E+00
 -0.8397840E+01  0.5611260E+01 -0.1027320E+00  0.1402029E+00 -0.1951233E+01  0.5206098E-01  0.1301787E+00
 -0.8907410E+01  0.4761110E+01 -0.1027320E+00  0.1194835E+00 -0.2015688E+01  0.5142092E-01  0.1078527E+00
 -0.9331180E+01  0.3865100E+01 -0.1027320E+00  0.9967528E-01 -0.2114476E+01  0.5156086E-01  0.8530322E-01
 -0.9665100E+01  0.2931880E+01 -0.1027320E+00  0.8169446E-01 -0.2270506E+01  0.5261088E-01  0.6249864E-01
 -0.9905930E+01  0.1970410E+01 -0.1027320E+00  0.6731289E-01 -0.2513203E+01  0.5445448E-01  0.3956937E-01
 -0.1005140E+02  0.9899730E+00 -0.1027320E+00  0.5953030E-01 -0.2853441E+01  0.5707592E-01  0.1691735E-01
 -0.1010000E+02 -0.8829700E-06 -0.1027320E+00  0.6057186E-01  0.3057231E+01  0.6035645E-01 -0.5103868E-02
 -0.1005140E+02 -0.9899740E+00 -0.1027320E+00  0.6942876E-01  0.2755797E+01  0.6432569E-01 -0.2612581E-01
 -0.9905930E+01 -0.1970410E+01 -0.1027320E+00  0.8302770E-01  0.2548169E+01  0.6883256E-01 -0.4642928E-01
 -0.9665100E+01 -0.2931880E+01 -0.1027320E+00  0.9869941E-01  0.2413928E+01  0.7370176E-01 -0.6564773E-01
 -0.9331180E+01 -0.3865100E+01 -0.1027320E+00  0.1147760E+00  0.2326417E+01  0.7870658E-01 -0.8353925E-01
 -0.8907400E+01 -0.4761110E+01 -0.1027320E+00  0.1299936E+00  0.2270854E+01  0.8374992E-01 -0.9941981E-01
 -0.8397840E+01 -0.5611260E+01 -0.1027320E+00  0.1444271E+00  0.2232486E+01  0.8874328E-01 -0.1139465E+00
 -0.7807400E+01 -0.6407370E+01 -0.1027320E+00  0.1575472E+00  0.2205765E+01  0.9344954E-01 -0.1268397E+00
 -0.7141780E+01 -0.7141780E+01 -0.1027320E+00  0.1690804E+00  0.2186639E+01  0.9766866E-01 -0.1380182E+00
 -0.6407370E+01 -0.7807410E+01 -0.1027320E+00  0.1781224E+00  0.2175180E+01  0.1012189E+00 -0.1465685E+00
 -0.5611260E+01 -0.8397850E+01 -0.1027320E+00  0.1854154E+00  0.2167158E+01  0.1041360E+00 -0.1534098E+00
 -0.4761110E+01 -0.8907410E+01 -0.1027320E+00  0.1907118E+00  0.2161749E+01  0.1062556E+00 -0.1583690E+00
 -0.3865100E+01 -0.9331190E+01 -0.1027320E+00  0.1939992E+00  0.2158186E+01  0.1075125E+00 -0.1614830E+00
 -0.2931870E+01 -0.9665100E+01 -0.1027320E+00  0.1943325E+00  0.2158391E+01  0.1077303E+00 -0.1617384E+00
 -0.1970410E+01 -0.9905930E+01 -0.1027320E+00  0.1926404E+00  0.2160052E+01  0.1070584E+00 -0.1601525E+00
 -0.9899710E+00 -0.1005140E+02 -0.1027320E+00  0.1888550E+00  0.2163472E+01  0.1054911E+00 -0.1566456E+00
  0.1204410E-06 -0.1010000E+02 -0.1027320E+00  0.1831566E+00  0.2168936E+01  0.1031365E+00 -0.1513579E+00
  0.9899760E+00 -0.1005140E+02 -0.1027320E+00  0.1746935E+00  0.2179616E+01  0.9990710E-01 -0.1433052E+00
  0.1970410E+01 -0.9905930E+01 -0.1027320E+00  0.1643990E+00  0.2194338E+01  0.9599482E-01 -0.1334617E+00
  0.2931880E+01 -0.9665100E+01 -0.1027320E+00  0.1524141E+00  0.2215168E+01  0.9155457E-01 -0.1218516E+00
  0.3865100E+01 -0.9331180E+01 -0.1027320E+00  0.1391216E+00  0.2244633E+01  0.8681031E-01 -0.1087143E+00
  0.4761110E+01 -0.8907410E+01 -0.1027320E+00  0.1240613E+00  0.2290796E+01  0.8180414E-01 -0.9327002E-01
  0.5611260E+01 -0.8397840E+01 -0.1027320E+00  0.1081737E+00  0.2358609E+01  0.7667484E-01 -0.7630544E-01
  0.6407370E+01 -0.7807410E+01 -0.1027320E+00  0.9218851E-01  0.2461132E+01  0.7165653E-01 -0.5800054E-01
  0.7141780E+01 -0.7141780E+01 -0.1027320E+00  0.7733607E-01  0.2617692E+01  0.6696334E-01 -0.3868823E-01
  0.7807410E+01 -0.6407370E+01 -0.1027320E+00  0.6524485E-01  0.2863219E+01  0.6273316E-01 -0.1792880E-01
  0.8397840E+01 -0.5611260E+01 -0.1027320E+00  0.5910859E-01 -0.3077801E+01  0.5898836E-01  0.3768046E-02
