 VARIABLES="X" "Y" "Z" "abs(eta) (m)" "angle(phi) (rad)" "PRE1" "PRE2"
ZONE N=   3200 ,E =    3136 ,F=FEPOINT,ET=QUADRILATERAL
  0.1010000E+02  0.0000000E+00  0.0000000E+00  0.2733362E+00 -0.1811325E+01  0.6511301E-01  0.2654674E+00
  0.1005140E+02  0.9899730E+00  0.0000000E+00  0.2950119E+00 -0.1807054E+01  0.6905213E-01  0.2868167E+00
  0.9905930E+01  0.1970410E+01  0.0000000E+00  0.3152294E+00 -0.1806052E+01  0.7347722E-01  0.3065464E+00
  0.9665100E+01  0.2931880E+01  0.0000000E+00  0.3337655E+00 -0.1806611E+01  0.7797941E-01  0.3245283E+00
  0.9331180E+01  0.3865100E+01  0.0000000E+00  0.3497143E+00 -0.1807938E+01  0.8215673E-01  0.3399270E+00
  0.8907400E+01  0.4761110E+01  0.0000000E+00  0.3628748E+00 -0.1810038E+01  0.8598896E-01  0.3525394E+00
  0.8397840E+01  0.5611260E+01  0.0000000E+00  0.3737381E+00 -0.1812472E+01  0.8944675E-01  0.3628766E+00
  0.7807410E+01  0.6407370E+01  0.0000000E+00  0.3824935E+00 -0.1814361E+01  0.9224339E-01  0.3712040E+00
  0.7141780E+01  0.7141780E+01  0.0000000E+00  0.3884231E+00 -0.1815605E+01  0.9414248E-01  0.3768417E+00
  0.6407370E+01  0.7807410E+01  0.0000000E+00  0.3911588E+00 -0.1816458E+01  0.9512912E-01  0.3794149E+00
  0.5611260E+01  0.8397840E+01  0.0000000E+00  0.3911580E+00 -0.1816651E+01  0.9520199E-01  0.3793957E+00
  0.4761110E+01  0.8907410E+01  0.0000000E+00  0.3889411E+00 -0.1815856E+01  0.9436282E-01  0.3773206E+00
  0.3865100E+01  0.9331180E+01  0.0000000E+00  0.3840433E+00 -0.1814510E+01  0.9267277E-01  0.3726943E+00
  0.2931870E+01  0.9665100E+01  0.0000000E+00  0.3760004E+00 -0.1812884E+01  0.9013870E-01  0.3650361E+00
  0.1970410E+01  0.9905930E+01  0.0000000E+00  0.3651417E+00 -0.1810744E+01  0.8677661E-01  0.3546805E+00
  0.9899730E+00  0.1005140E+02  0.0000000E+00  0.3522342E+00 -0.1808301E+01  0.8287310E-01  0.3423463E+00
 -0.4414850E-06  0.1010000E+02  0.0000000E+00  0.3371655E+00 -0.1806559E+01  0.7875668E-01  0.3278384E+00
 -0.9899740E+00  0.1005140E+02  0.0000000E+00  0.3194417E+00 -0.1806058E+01  0.7446119E-01  0.3106421E+00
 -0.1970410E+01  0.9905930E+01  0.0000000E+00  0.2992428E+00 -0.1806937E+01  0.7000850E-01  0.2909382E+00
 -0.2931880E+01  0.9665100E+01  0.0000000E+00  0.2774886E+00 -0.1810213E+01  0.6580243E-01  0.2695736E+00
 -0.3865100E+01  0.9331180E+01  0.0000000E+00  0.2545022E+00 -0.1817895E+01  0.6224907E-01  0.2467720E+00
 -0.4761110E+01  0.8907400E+01  0.0000000E+00  0.2299067E+00 -0.1832112E+01  0.5939686E-01  0.2221015E+00
 -0.5611260E+01  0.8397840E+01  0.0000000E+00  0.2037695E+00 -0.1855609E+01  0.5725464E-01  0.1955606E+00
 -0.6407370E+01  0.7807410E+01  0.0000000E+00  0.1772101E+00 -0.1892921E+01  0.5610168E-01  0.1680953E+00
 -0.7141780E+01  0.7141780E+01  0.0000000E+00  0.1511509E+00 -0.1951448E+01  0.5615646E-01  0.1403319E+00
 -0.7807410E+01  0.6407370E+01  0.0000000E+00  0.1258618E+00 -0.2044839E+01  0.5745422E-01  0.1119831E+00
 -0.8397840E+01  0.5611260E+01  0.0000000E+00  0.1023145E+00 -0.2197152E+01  0.5997637E-01  0.8289208E-01
 -0.8907410E+01  0.4761110E+01  0.0000000E+00  0.8343863E-01 -0.2439191E+01  0.6368808E-01  0.5390577E-01
 -0.9331180E+01  0.3865100E+01  0.0000000E+00  0.7320510E-01 -0.2779588E+01  0.6846060E-01  0.2592553E-01
 -0.9665100E+01  0.2931880E+01  0.0000000E+00  0.7429864E-01  0.3125696E+01  0.7428925E-01 -0.1181047E-02
 -0.9905930E+01  0.1970410E+01  0.0000000E+00  0.8574636E-01  0.2812180E+01  0.8113599E-01 -0.2773786E-01
 -0.1005140E+02  0.9899730E+00  0.0000000E+00  0.1033834E+00  0.2601275E+01  0.8865597E-01 -0.5318132E-01
 -0.1010000E+02 -0.8829700E-06  0.0000000E+00  0.1231407E+00  0.2470366E+01  0.9642642E-01 -0.7658704E-01
 -0.1005140E+02 -0.9899740E+00  0.0000000E+00  0.1431362E+00  0.2388276E+01  0.1044069E+00 -0.9791402E-01
 -0.9905930E+01 -0.1970410E+01  0.0000000E+00  0.1628032E+00  0.2334232E+01  0.1125633E+00 -0.1176196E+00
 -0.9665100E+01 -0.2931880E+01  0.0000000E+00  0.1813583E+00  0.2297178E+01  0.1204525E+00 -0.1355803E+00
 -0.9331180E+01 -0.3865100E+01  0.0000000E+00  0.1976484E+00  0.2272463E+01  0.1275804E+00 -0.1509574E+00
 -0.8907400E+01 -0.4761110E+01  0.0000000E+00  0.2113678E+00  0.2256809E+01  0.1338924E+00 -0.1635517E+00
 -0.8397840E+01 -0.5611260E+01  0.0000000E+00  0.2228436E+00  0.2246547E+01  0.1393850E+00 -0.1738709E+00
 -0.7807400E+01 -0.6407370E+01  0.0000000E+00  0.2320853E+00  0.2238899E+01  0.1437764E+00 -0.1821865E+00
 -0.7141780E+01 -0.7141780E+01  0.0000000E+00  0.2383552E+00  0.2234101E+01  0.1467611E+00 -0.1878147E+00
 -0.6407370E+01 -0.7807410E+01  0.0000000E+00  0.2413196E+00  0.2232532E+01  0.1482878E+00 -0.1903835E+00
 -0.5611260E+01 -0.8397850E+01  0.0000000E+00  0.2413650E+00  0.2232918E+01  0.1483892E+00 -0.1903621E+00
 -0.4761110E+01 -0.8907410E+01  0.0000000E+00  0.2389463E+00  0.2234021E+01  0.1471100E+00 -0.1882923E+00
 -0.3865100E+01 -0.9331190E+01  0.0000000E+00  0.2336860E+00  0.2237303E+01  0.1444751E+00 -0.1836739E+00
 -0.2931870E+01 -0.9665100E+01  0.0000000E+00  0.2251999E+00  0.2244277E+01  0.1404596E+00 -0.1760286E+00
 -0.1970410E+01 -0.9905930E+01  0.0000000E+00  0.2137954E+00  0.2254906E+01  0.1351151E+00 -0.1656877E+00
 -0.9899710E+00 -0.1005140E+02  0.0000000E+00  0.2002841E+00  0.2269340E+01  0.1288034E+00 -0.1533735E+00
  0.1204410E-06 -0.1010000E+02  0.0000000E+00  0.1847651E+00  0.2290974E+01  0.1218560E+00 -0.1388858E+00
  0.9899760E+00 -0.1005140E+02  0.0000000E+00  0.1669561E+00  0.2324725E+01  0.1142829E+00 -0.1217118E+00
  0.1970410E+01 -0.9905930E+01  0.0000000E+00  0.1472264E+00  0.2375936E+01  0.1061395E+00 -0.1020295E+00
  0.2931880E+01 -0.9665100E+01  0.0000000E+00  0.1268845E+00  0.2452395E+01  0.9792392E-01 -0.8068819E-01
  0.3865100E+01 -0.9331180E+01  0.0000000E+00  0.1070911E+00  0.2570281E+01  0.9008419E-01 -0.5790799E-01
  0.4761110E+01 -0.8907410E+01  0.0000000E+00  0.8909643E-01  0.2759073E+01  0.8265719E-01 -0.3325604E-01
  0.5611260E+01 -0.8397840E+01  0.0000000E+00  0.7597584E-01  0.3052892E+01  0.7567715E-01 -0.6730283E-02
  0.6407370E+01 -0.7807410E+01  0.0000000E+00  0.7254647E-01 -0.2851940E+01  0.6952441E-01  0.2072065E-01
  0.7141780E+01 -0.7141780E+01  0.0000000E+00  0.8067711E-01 -0.2497031E+01  0.6449034E-01  0.4847466E-01
  0.7807410E+01 -0.6407370E+01  0.0000000E+00  0.9785219E-01 -0.2238813E+01  0.6061258E-01  0.7681905E-01
  0.8397840E+01 -0.5611260E+01  0.0000000E+00  0.1206978E+00 -0.2070998E+01  0.5788699E-01  0.1059107E+00
  0.8907410E+01 -0.4761110E+01  0.0000000E+00  0.1462033E+00 -0.1966601E+01  0.5636875E-01  0.1348998E+00
  0.9331180E+01 -0.3865100E+01  0.0000000E+00  0.1722529E+00 -0.1902066E+01  0.5602419E-01  0.1628876E+00
  0.9665100E+01 -0.2931870E+01  0.0000000E+00  0.1983338E+00 -0.1861591E+01  0.5686506E-01  0.1900070E+00
  0.9905930E+01 -0.1970410E+01  0.0000000E+00  0.2244339E+00 -0.1836122E+01  0.5885183E-01  0.2165804E+00
  0.1005140E+02 -0.9899690E+00  0.0000000E+00  0.2497842E+00 -0.1820429E+01  0.6170877E-01  0.2420416E+00
  0.1010000E+02  0.0000000E+00 -0.2568960E-01  0.2730956E+00 -0.1811315E+01  0.6505316E-01  0.2652344E+00
  0.1005140E+02  0.9899730E+00 -0.2568960E-01  0.2947832E+00 -0.1807019E+01  0.6898875E-01  0.2865968E+00
  0.9905930E+01  0.1970410E+01 -0.2568960E-01  0.3149478E+00 -0.1806050E+01  0.7341114E-01  0.3062726E+00
  0.9665100E+01  0.2931880E+01 -0.2568960E-01  0.3335073E+00 -0.1806586E+01  0.7791094E-01  0.3242792E+00
  0.9331180E+01  0.3865100E+01 -0.2568960E-01  0.3494086E+00 -0.1807937E+01  0.8208445E-01  0.3396300E+00
  0.8907400E+01  0.4761110E+01 -0.2568960E-01  0.3625993E+00 -0.1810025E+01  0.8591918E-01  0.3522728E+00
  0.8397840E+01  0.5611260E+01 -0.2568960E-01  0.3734055E+00 -0.1812474E+01  0.8936790E-01  0.3625536E+00
  0.7807410E+01  0.6407370E+01 -0.2568960E-01  0.3822017E+00 -0.1814352E+01  0.9216966E-01  0.3709216E+00
  0.7141780E+01  0.7141780E+01 -0.2568960E-01  0.3880844E+00 -0.1815608E+01  0.9406132E-01  0.3765129E+00
  0.6407370E+01  0.7807410E+01 -0.2568960E-01  0.3908620E+00 -0.1816453E+01  0.9505485E-01  0.3791275E+00
  0.5611260E+01  0.8397840E+01 -0.2568960E-01  0.3908095E+00 -0.1816654E+01  0.9511854E-01  0.3790575E+00
  0.4761110E+01  0.8907410E+01 -0.2568960E-01  0.3886463E+00 -0.1815850E+01  0.9428892E-01  0.3770352E+00
  0.3865100E+01  0.9331180E+01 -0.2568960E-01  0.3837087E+00 -0.1814512E+01  0.9259260E-01  0.3723694E+00
  0.2931870E+01  0.9665100E+01 -0.2568960E-01  0.3757133E+00 -0.1812873E+01  0.9006578E-01  0.3647583E+00
  0.1970410E+01  0.9905930E+01 -0.2568960E-01  0.3648168E+00 -0.1810746E+01  0.8670001E-01  0.3543648E+00
  0.9899730E+00  0.1005140E+02 -0.2568960E-01  0.3519661E+00 -0.1808285E+01  0.8280458E-01  0.3420870E+00
 -0.4414850E-06  0.1010000E+02 -0.2568960E-01  0.3368708E+00 -0.1806556E+01  0.7868681E-01  0.3275520E+00
 -0.9899740E+00  0.1005140E+02 -0.2568960E-01  0.3191927E+00 -0.1806029E+01  0.7439410E-01  0.3104022E+00
 -0.1970410E+01  0.9905930E+01 -0.2568960E-01  0.2989751E+00 -0.1806935E+01  0.6994522E-01  0.2906781E+00
 -0.2931880E+01  0.9665100E+01 -0.2568960E-01  0.2772726E+00 -0.1810173E+01  0.6574041E-01  0.2693664E+00
 -0.3865100E+01  0.9331180E+01 -0.2568960E-01  0.2542775E+00 -0.1817883E+01  0.6219117E-01  0.2465548E+00
 -0.4761110E+01  0.8907400E+01 -0.2568960E-01  0.2297175E+00 -0.1832052E+01  0.5933463E-01  0.2219224E+00
 -0.5611260E+01  0.8397840E+01 -0.2568960E-01  0.2035848E+00 -0.1855601E+01  0.5720128E-01  0.1953836E+00
 -0.6407370E+01  0.7807410E+01 -0.2568960E-01  0.1770616E+00 -0.1892838E+01  0.5604076E-01  0.1679590E+00
 -0.7141780E+01  0.7141780E+01 -0.2568960E-01  0.1510126E+00 -0.1951429E+01  0.5610234E-01  0.1402046E+00
 -0.7807410E+01  0.6407370E+01 -0.2568960E-01  0.1257407E+00 -0.2044763E+01  0.5739052E-01  0.1118797E+00
 -0.8397840E+01  0.5611260E+01 -0.2568960E-01  0.1022183E+00 -0.2197153E+01  0.5992009E-01  0.8281405E-01
 -0.8907410E+01  0.4761110E+01 -0.2568960E-01  0.8334895E-01 -0.2439183E+01  0.6361922E-01  0.5384833E-01
 -0.9331180E+01  0.3865100E+01 -0.2568960E-01  0.7313369E-01 -0.2779661E+01  0.6839570E-01  0.2589526E-01
 -0.9665100E+01  0.2931880E+01 -0.2568960E-01  0.7422457E-01  0.3125342E+01  0.7421477E-01 -0.1206175E-02
 -0.9905930E+01  0.1970410E+01 -0.2568960E-01  0.8566979E-01  0.2812105E+01  0.8106145E-01 -0.2771920E-01
 -0.1005140E+02  0.9899730E+00 -0.2568960E-01  0.1033022E+00  0.2600984E+01  0.8857082E-01 -0.5316528E-01
 -0.1010000E+02 -0.8829700E-06 -0.2568960E-01  0.1230368E+00  0.2470284E+01  0.9633885E-01 -0.7653031E-01
 -0.1005140E+02 -0.9899740E+00 -0.2568960E-01  0.1430397E+00  0.2388054E+01  0.1043149E+00 -0.9787115E-01
 -0.9905930E+01 -0.1970410E+01 -0.2568960E-01  0.1626628E+00  0.2334196E+01  0.1124621E+00 -0.1175222E+00
 -0.9665100E+01 -0.2931880E+01 -0.2568960E-01  0.1812348E+00  0.2297019E+01  0.1203490E+00 -0.1355071E+00
 -0.9331180E+01 -0.3865100E+01 -0.2568960E-01  0.1974840E+00  0.2272420E+01  0.1274677E+00 -0.1508373E+00
 -0.8907400E+01 -0.4761110E+01 -0.2568960E-01  0.2112285E+00  0.2256680E+01  0.1337832E+00 -0.1634612E+00
 -0.8397840E+01 -0.5611260E+01 -0.2568960E-01  0.2226515E+00  0.2246525E+01  0.1392609E+00 -0.1737241E+00
 -0.7807400E+01 -0.6407370E+01 -0.2568960E-01  0.2319305E+00  0.2238787E+01  0.1436601E+00 -0.1820812E+00
 -0.7141780E+01 -0.7141780E+01 -0.2568960E-01  0.2381568E+00  0.2234071E+01  0.1466333E+00 -0.1876628E+00
 -0.6407370E+01 -0.7807410E+01 -0.2568960E-01  0.2411596E+00  0.2232429E+01  0.1481698E+00 -0.1902725E+00
 -0.5611260E+01 -0.8397850E+01 -0.2568960E-01  0.2411568E+00  0.2232900E+01  0.1482577E+00 -0.1902005E+00
 -0.4761110E+01 -0.8907410E+01 -0.2568960E-01  0.2387881E+00  0.2233915E+01  0.1469926E+00 -0.1881832E+00
 -0.3865100E+01 -0.9331190E+01 -0.2568960E-01  0.2334918E+00  0.2237271E+01  0.1443490E+00 -0.1835259E+00
 -0.2931870E+01 -0.9665100E+01 -0.2568960E-01  0.2250493E+00  0.2244161E+01  0.1403451E+00 -0.1759273E+00
 -0.1970410E+01 -0.9905930E+01 -0.2568960E-01  0.2136112E+00  0.2254883E+01  0.1349948E+00 -0.1655480E+00
 -0.9899710E+00 -0.1005140E+02 -0.2568960E-01  0.2001525E+00  0.2269200E+01  0.1286973E+00 -0.1532907E+00
  0.1204410E-06 -0.1010000E+02 -0.2568960E-01  0.1846112E+00  0.2290928E+01  0.1217480E+00 -0.1387758E+00
  0.9899760E+00 -0.1005140E+02 -0.2568960E-01  0.1668413E+00  0.2324548E+01  0.1141827E+00 -0.1216484E+00
  0.1970410E+01 -0.9905930E+01 -0.2568960E-01  0.1470992E+00  0.2375894E+01  0.1060436E+00 -0.1019458E+00
  0.2931880E+01 -0.9665100E+01 -0.2568960E-01  0.1267968E+00  0.2452135E+01  0.9783528E-01 -0.8065778E-01
  0.3865100E+01 -0.9331180E+01 -0.2568960E-01  0.1069994E+00  0.2570184E+01  0.9000148E-01 -0.5786720E-01
  0.4761110E+01 -0.8907410E+01 -0.2568960E-01  0.8902014E-01  0.2758756E+01  0.8257587E-01 -0.3325373E-01
  0.5611260E+01 -0.8397840E+01 -0.2568960E-01  0.7590620E-01  0.3052812E+01  0.7560726E-01 -0.6730160E-02
  0.6407370E+01 -0.7807410E+01 -0.2568960E-01  0.7246605E-01 -0.2852192E+01  0.6945256E-01  0.2068020E-01
  0.7141780E+01 -0.7141780E+01 -0.2568960E-01  0.8059811E-01 -0.2497059E+01  0.6442852E-01  0.4842542E-01
  0.7807410E+01 -0.6407370E+01 -0.2568960E-01  0.9775347E-01 -0.2238742E+01  0.6054599E-01  0.7674584E-01
  0.8397840E+01 -0.5611260E+01 -0.2568960E-01  0.1205855E+00 -0.2070992E+01  0.5783244E-01  0.1058124E+00
  0.8907410E+01 -0.4761110E+01 -0.2568960E-01  0.1460692E+00 -0.1966518E+01  0.5630593E-01  0.1347807E+00
  0.9331180E+01 -0.3865100E+01 -0.2568960E-01  0.1720972E+00 -0.1902046E+01  0.5597037E-01  0.1627414E+00
  0.9665100E+01 -0.2931870E+01 -0.2568960E-01  0.1981716E+00 -0.1861517E+01  0.5680448E-01  0.1898558E+00
  0.9905930E+01 -0.1970410E+01 -0.2568960E-01  0.2242319E+00 -0.1836115E+01  0.5879731E-01  0.2163858E+00
  0.1005140E+02 -0.9899690E+00 -0.2568960E-01  0.2495818E+00 -0.1820376E+01  0.6164585E-01  0.2418489E+00
  0.1010000E+02  0.0000000E+00 -0.1027320E+00  0.2723536E+00 -0.1811306E+01  0.6487394E-01  0.2645144E+00
  0.1005140E+02  0.9899730E+00 -0.1027320E+00  0.2940160E+00 -0.1807002E+01  0.6880428E-01  0.2858520E+00
  0.9905930E+01  0.1970410E+01 -0.1027320E+00  0.3140809E+00 -0.1806069E+01  0.7321495E-01  0.3054282E+00
  0.9665100E+01  0.2931880E+01 -0.1027320E+00  0.3326270E+00 -0.1806580E+01  0.7770342E-01  0.3234237E+00
  0.9331180E+01  0.3865100E+01 -0.1027320E+00  0.3484634E+00 -0.1807962E+01  0.8187087E-01  0.3387092E+00
  0.8907400E+01  0.4761110E+01 -0.1027320E+00  0.3616574E+00 -0.1810047E+01  0.8570381E-01  0.3513558E+00
  0.8397840E+01  0.5611260E+01 -0.1027320E+00  0.3723796E+00 -0.1812512E+01  0.8913594E-01  0.3615541E+00
  0.7807410E+01  0.6407370E+01 -0.1027320E+00  0.3812028E+00 -0.1814377E+01  0.9193830E-01  0.3699498E+00
  0.7141780E+01  0.7141780E+01 -0.1027320E+00  0.3870366E+00 -0.1815649E+01  0.9382290E-01  0.3754924E+00
  0.6407370E+01  0.7807410E+01 -0.1027320E+00  0.3898445E+00 -0.1816487E+01  0.9482045E-01  0.3781373E+00
  0.5611260E+01  0.8397840E+01 -0.1027320E+00  0.3897371E+00 -0.1816697E+01  0.9487361E-01  0.3780132E+00
  0.4761110E+01  0.8907410E+01 -0.1027320E+00  0.3876347E+00 -0.1815885E+01  0.9405656E-01  0.3760506E+00
  0.3865100E+01  0.9331180E+01 -0.1027320E+00  0.3826728E+00 -0.1814551E+01  0.9235731E-01  0.3713605E+00
  0.2931870E+01  0.9665100E+01 -0.1027320E+00  0.3747298E+00 -0.1812894E+01  0.8983762E-01  0.3638017E+00
  0.1970410E+01  0.9905930E+01 -0.1027320E+00  0.3638148E+00 -0.1810780E+01  0.8647398E-01  0.3533886E+00
  0.9899730E+00  0.1005140E+02 -0.1027320E+00  0.3510516E+00 -0.1808303E+01  0.8259529E-01  0.3411968E+00
 -0.4414850E-06  0.1010000E+02 -0.1027320E+00  0.3359590E+00 -0.1806576E+01  0.7848036E-01  0.3266639E+00
 -0.9899740E+00  0.1005140E+02 -0.1027320E+00  0.3183485E+00 -0.1806014E+01  0.7419247E-01  0.3095824E+00
 -0.1970410E+01  0.9905930E+01 -0.1027320E+00  0.2981525E+00 -0.1806949E+01  0.6975681E-01  0.2898774E+00
 -0.2931880E+01  0.9665100E+01 -0.1027320E+00  0.2765501E+00 -0.1810143E+01  0.6556112E-01  0.2686666E+00
 -0.3865100E+01  0.9331180E+01 -0.1027320E+00  0.2535854E+00 -0.1817865E+01  0.6201740E-01  0.2458849E+00
 -0.4761110E+01  0.8907400E+01 -0.1027320E+00  0.2290956E+00 -0.1831984E+01  0.5915902E-01  0.2213256E+00
 -0.5611260E+01  0.8397840E+01 -0.1027320E+00  0.2030214E+00 -0.1855583E+01  0.5703935E-01  0.1948441E+00
 -0.6407370E+01  0.7807410E+01 -0.1027320E+00  0.1765915E+00 -0.1892723E+01  0.5587268E-01  0.1675196E+00
 -0.7141780E+01  0.7141780E+01 -0.1027320E+00  0.1505927E+00 -0.1951363E+01  0.5593722E-01  0.1398184E+00
 -0.7807410E+01  0.6407370E+01 -0.1027320E+00  0.1253761E+00 -0.2044678E+01  0.5721462E-01  0.1115601E+00
 -0.8397840E+01  0.5611260E+01 -0.1027320E+00  0.1019292E+00 -0.2197121E+01  0.5974793E-01  0.8258172E-01
 -0.8907410E+01  0.4761110E+01 -0.1027320E+00  0.8310419E-01 -0.2439064E+01  0.6342599E-01  0.5369776E-01
 -0.9331180E+01  0.3865100E+01 -0.1027320E+00  0.7291996E-01 -0.2779747E+01  0.6819803E-01  0.2581374E-01
 -0.9665100E+01  0.2931880E+01 -0.1027320E+00  0.7401192E-01  0.3124859E+01  0.7400156E-01 -0.1238441E-02
 -0.9905930E+01  0.1970410E+01 -0.1027320E+00  0.8543327E-01  0.2812020E+01  0.8083532E-01 -0.2764951E-01
 -0.1005140E+02  0.9899730E+00 -0.1027320E+00  0.1030246E+00  0.2600719E+01  0.8831883E-01 -0.5304581E-01
 -0.1010000E+02 -0.8829700E-06 -0.1027320E+00  0.1227101E+00  0.2470170E+01  0.9607435E-01 -0.7633805E-01
 -0.1005140E+02 -0.9899740E+00 -0.1027320E+00  0.1426886E+00  0.2387829E+01  0.1040368E+00 -0.9765435E-01
 -0.9905930E+01 -0.1970410E+01 -0.1027320E+00  0.1622247E+00  0.2334190E+01  0.1121585E+00 -0.1172064E+00
 -0.9665100E+01 -0.2931880E+01 -0.1027320E+00  0.1807771E+00  0.2296891E+01  0.1200278E+00 -0.1351802E+00
 -0.9331180E+01 -0.3865100E+01 -0.1027320E+00  0.1969667E+00  0.2272399E+01  0.1271307E+00 -0.1504449E+00
 -0.8907400E+01 -0.4761110E+01 -0.1027320E+00  0.2107107E+00  0.2256592E+01  0.1334408E+00 -0.1630723E+00
 -0.8397840E+01 -0.5611260E+01 -0.1027320E+00  0.2220533E+00  0.2246556E+01  0.1388922E+00 -0.1732531E+00
 -0.7807400E+01 -0.6407370E+01 -0.1027320E+00  0.2313541E+00  0.2238724E+01  0.1432916E+00 -0.1816377E+00
 -0.7141780E+01 -0.7141780E+01 -0.1027320E+00  0.2375343E+00  0.2234081E+01  0.1462519E+00 -0.1871708E+00
 -0.6407370E+01 -0.7807410E+01 -0.1027320E+00  0.2405642E+00  0.2232376E+01  0.1477939E+00 -0.1898107E+00
 -0.5611260E+01 -0.8397850E+01 -0.1027320E+00  0.2405093E+00  0.2232939E+01  0.1478671E+00 -0.1896840E+00
 -0.4761110E+01 -0.8907410E+01 -0.1027320E+00  0.2381996E+00  0.2233860E+01  0.1466201E+00 -0.1877275E+00
 -0.3865100E+01 -0.9331190E+01 -0.1027320E+00  0.2328816E+00  0.2237278E+01  0.1439731E+00 -0.1830453E+00
 -0.2931870E+01 -0.9665100E+01 -0.1027320E+00  0.2244885E+00  0.2244089E+01  0.1399828E+00 -0.1754990E+00
 -0.1970410E+01 -0.9905930E+01 -0.1027320E+00  0.2130372E+00  0.2254908E+01  0.1346363E+00 -0.1650997E+00
 -0.9899710E+00 -0.1005140E+02 -0.1027320E+00  0.1996621E+00  0.2269097E+01  0.1283662E+00 -0.1529284E+00
  0.1204410E-06 -0.1010000E+02 -0.1027320E+00  0.1841276E+00  0.2290895E+01  0.1214245E+00 -0.1384162E+00
  0.9899760E+00 -0.1005140E+02 -0.1027320E+00  0.1664176E+00  0.2324400E+01  0.1138748E+00 -0.1213563E+00
  0.1970410E+01 -0.9905930E+01 -0.1027320E+00  0.1467024E+00  0.2375876E+01  0.1057557E+00 -0.1016726E+00
  0.2931880E+01 -0.9665100E+01 -0.1027320E+00  0.1264836E+00  0.2451858E+01  0.9757137E-01 -0.8048567E-01
  0.3865100E+01 -0.9331180E+01 -0.1027320E+00  0.1067128E+00  0.2570041E+01  0.8975213E-01 -0.5772500E-01
  0.4761110E+01 -0.8907410E+01 -0.1027320E+00  0.8877297E-01  0.2758475E+01  0.8233728E-01 -0.3318455E-01
  0.5611260E+01 -0.8397840E+01 -0.1027320E+00  0.7569351E-01  0.3052724E+01  0.7539481E-01 -0.6717948E-02
  0.6407370E+01 -0.7807410E+01 -0.1027320E+00  0.7224634E-01 -0.2852558E+01  0.6924953E-01  0.2059214E-01
  0.7141780E+01 -0.7141780E+01 -0.1027320E+00  0.8036287E-01 -0.2497066E+01  0.6424084E-01  0.4828360E-01
  0.7807410E+01 -0.6407370E+01 -0.1027320E+00  0.9747536E-01 -0.2238574E+01  0.6036086E-01  0.7653765E-01
  0.8397840E+01 -0.5611260E+01 -0.1027320E+00  0.1202467E+00 -0.2070954E+01  0.5766598E-01  0.1055173E+00
