 VARIABLES="X" "Y" "Z" "abs(eta) (m)" "angle(phi) (rad)" "PRE1" "PRE2"
ZONE N=   3200 ,E =    3136 ,F=FEPOINT,ET=QUADRILATERAL
  0.1100000E+02  0.0000000E+00  0.0000000E+00  0.1960218E+00  0.3066619E+01  0.1954712E+00 -0.1468265E-01
  0.1094700E+02  0.1078190E+01  0.0000000E+00  0.1960026E+00  0.3067274E+01  0.1954615E+00 -0.1455318E-01
  0.1078860E+02  0.2145990E+01  0.0000000E+00  0.1959893E+00  0.3067754E+01  0.1954553E+00 -0.1445845E-01
  0.1052630E+02  0.3193130E+01  0.0000000E+00  0.1960026E+00  0.3067275E+01  0.1954616E+00 -0.1455298E-01
  0.1016270E+02  0.4209520E+01  0.0000000E+00  0.1960215E+00  0.3066620E+01  0.1954708E+00 -0.1468252E-01
  0.9701130E+01  0.5185360E+01  0.0000000E+00  0.1960026E+00  0.3067276E+01  0.1954616E+00 -0.1455294E-01
  0.9146170E+01  0.6111270E+01  0.0000000E+00  0.1959889E+00  0.3067754E+01  0.1954548E+00 -0.1445842E-01
  0.8503110E+01  0.6978330E+01  0.0000000E+00  0.1960025E+00  0.3067276E+01  0.1954615E+00 -0.1455295E-01
  0.7778170E+01  0.7778170E+01  0.0000000E+00  0.1960215E+00  0.3066620E+01  0.1954709E+00 -0.1468241E-01
  0.6978330E+01  0.8503110E+01  0.0000000E+00  0.1960025E+00  0.3067276E+01  0.1954615E+00 -0.1455295E-01
  0.6111270E+01  0.9146170E+01  0.0000000E+00  0.1959890E+00  0.3067755E+01  0.1954549E+00 -0.1445829E-01
  0.5185360E+01  0.9701130E+01  0.0000000E+00  0.1960025E+00  0.3067276E+01  0.1954615E+00 -0.1455293E-01
  0.4209520E+01  0.1016270E+02  0.0000000E+00  0.1960215E+00  0.3066620E+01  0.1954708E+00 -0.1468241E-01
  0.3193130E+01  0.1052630E+02  0.0000000E+00  0.1960025E+00  0.3067276E+01  0.1954615E+00 -0.1455284E-01
  0.2145990E+01  0.1078860E+02  0.0000000E+00  0.1959891E+00  0.3067754E+01  0.1954550E+00 -0.1445836E-01
  0.1078190E+01  0.1094700E+02  0.0000000E+00  0.1960026E+00  0.3067275E+01  0.1954616E+00 -0.1455302E-01
 -0.4808250E-06  0.1100000E+02  0.0000000E+00  0.1960216E+00  0.3066620E+01  0.1954710E+00 -0.1468249E-01
 -0.1078190E+01  0.1094700E+02  0.0000000E+00  0.1960024E+00  0.3067275E+01  0.1954614E+00 -0.1455300E-01
 -0.2145990E+01  0.1078860E+02  0.0000000E+00  0.1959890E+00  0.3067755E+01  0.1954550E+00 -0.1445829E-01
 -0.3193130E+01  0.1052630E+02  0.0000000E+00  0.1960024E+00  0.3067276E+01  0.1954614E+00 -0.1455288E-01
 -0.4209520E+01  0.1016270E+02  0.0000000E+00  0.1960216E+00  0.3066621E+01  0.1954710E+00 -0.1468239E-01
 -0.5185370E+01  0.9701130E+01  0.0000000E+00  0.1960024E+00  0.3067276E+01  0.1954614E+00 -0.1455276E-01
 -0.6111270E+01  0.9146160E+01  0.0000000E+00  0.1959888E+00  0.3067755E+01  0.1954548E+00 -0.1445824E-01
 -0.6978330E+01  0.8503120E+01  0.0000000E+00  0.1960025E+00  0.3067276E+01  0.1954615E+00 -0.1455286E-01
 -0.7778170E+01  0.7778170E+01  0.0000000E+00  0.1960217E+00  0.3066621E+01  0.1954710E+00 -0.1468234E-01
 -0.8503120E+01  0.6978330E+01  0.0000000E+00  0.1960023E+00  0.3067276E+01  0.1954612E+00 -0.1455288E-01
 -0.9146170E+01  0.6111270E+01  0.0000000E+00  0.1959888E+00  0.3067755E+01  0.1954548E+00 -0.1445821E-01
 -0.9701130E+01  0.5185360E+01  0.0000000E+00  0.1960026E+00  0.3067276E+01  0.1954616E+00 -0.1455286E-01
 -0.1016270E+02  0.4209520E+01  0.0000000E+00  0.1960215E+00  0.3066620E+01  0.1954709E+00 -0.1468243E-01
 -0.1052630E+02  0.3193130E+01  0.0000000E+00  0.1960026E+00  0.3067276E+01  0.1954616E+00 -0.1455289E-01
 -0.1078860E+02  0.2145990E+01  0.0000000E+00  0.1959889E+00  0.3067754E+01  0.1954548E+00 -0.1445836E-01
 -0.1094700E+02  0.1078190E+01  0.0000000E+00  0.1960027E+00  0.3067275E+01  0.1954616E+00 -0.1455312E-01
 -0.1100000E+02 -0.9616510E-06  0.0000000E+00  0.1960215E+00  0.3066620E+01  0.1954709E+00 -0.1468257E-01
 -0.1094700E+02 -0.1078190E+01  0.0000000E+00  0.1960026E+00  0.3067275E+01  0.1954616E+00 -0.1455312E-01
 -0.1078860E+02 -0.2146000E+01  0.0000000E+00  0.1959888E+00  0.3067754E+01  0.1954548E+00 -0.1445838E-01
 -0.1052630E+02 -0.3193130E+01  0.0000000E+00  0.1960027E+00  0.3067276E+01  0.1954617E+00 -0.1455295E-01
 -0.1016270E+02 -0.4209520E+01  0.0000000E+00  0.1960216E+00  0.3066620E+01  0.1954710E+00 -0.1468246E-01
 -0.9701130E+01 -0.5185360E+01  0.0000000E+00  0.1960025E+00  0.3067275E+01  0.1954615E+00 -0.1455297E-01
 -0.9146160E+01 -0.6111270E+01  0.0000000E+00  0.1959891E+00  0.3067755E+01  0.1954551E+00 -0.1445828E-01
 -0.8503110E+01 -0.6978330E+01  0.0000000E+00  0.1960027E+00  0.3067275E+01  0.1954616E+00 -0.1455303E-01
 -0.7778170E+01 -0.7778180E+01  0.0000000E+00  0.1960214E+00  0.3066620E+01  0.1954707E+00 -0.1468248E-01
 -0.6978330E+01 -0.8503110E+01  0.0000000E+00  0.1960027E+00  0.3067275E+01  0.1954617E+00 -0.1455299E-01
 -0.6111270E+01 -0.9146170E+01  0.0000000E+00  0.1959890E+00  0.3067754E+01  0.1954550E+00 -0.1445842E-01
 -0.5185360E+01 -0.9701130E+01  0.0000000E+00  0.1960025E+00  0.3067275E+01  0.1954615E+00 -0.1455300E-01
 -0.4209510E+01 -0.1016270E+02  0.0000000E+00  0.1960217E+00  0.3066620E+01  0.1954710E+00 -0.1468252E-01
 -0.3193130E+01 -0.1052630E+02  0.0000000E+00  0.1960028E+00  0.3067275E+01  0.1954618E+00 -0.1455303E-01
 -0.2145990E+01 -0.1078860E+02  0.0000000E+00  0.1959890E+00  0.3067754E+01  0.1954549E+00 -0.1445842E-01
 -0.1078190E+01 -0.1094700E+02  0.0000000E+00  0.1960026E+00  0.3067274E+01  0.1954616E+00 -0.1455319E-01
  0.1311740E-06 -0.1100000E+02  0.0000000E+00  0.1960216E+00  0.3066619E+01  0.1954709E+00 -0.1468268E-01
  0.1078190E+01 -0.1094700E+02  0.0000000E+00  0.1960029E+00  0.3067275E+01  0.1954619E+00 -0.1455318E-01
  0.2145990E+01 -0.1078860E+02  0.0000000E+00  0.1959890E+00  0.3067753E+01  0.1954550E+00 -0.1445858E-01
  0.3193140E+01 -0.1052630E+02  0.0000000E+00  0.1960028E+00  0.3067275E+01  0.1954618E+00 -0.1455307E-01
  0.4209520E+01 -0.1016270E+02  0.0000000E+00  0.1960218E+00  0.3066620E+01  0.1954711E+00 -0.1468260E-01
  0.5185360E+01 -0.9701130E+01  0.0000000E+00  0.1960029E+00  0.3067275E+01  0.1954619E+00 -0.1455311E-01
  0.6111270E+01 -0.9146160E+01  0.0000000E+00  0.1959891E+00  0.3067754E+01  0.1954550E+00 -0.1445846E-01
  0.6978330E+01 -0.8503110E+01  0.0000000E+00  0.1960028E+00  0.3067275E+01  0.1954618E+00 -0.1455317E-01
  0.7778180E+01 -0.7778170E+01  0.0000000E+00  0.1960216E+00  0.3066620E+01  0.1954709E+00 -0.1468255E-01
  0.8503120E+01 -0.6978320E+01  0.0000000E+00  0.1960028E+00  0.3067274E+01  0.1954617E+00 -0.1455320E-01
  0.9146170E+01 -0.6111270E+01  0.0000000E+00  0.1959892E+00  0.3067754E+01  0.1954552E+00 -0.1445848E-01
  0.9701130E+01 -0.5185360E+01  0.0000000E+00  0.1960028E+00  0.3067275E+01  0.1954618E+00 -0.1455305E-01
  0.1016270E+02 -0.4209520E+01  0.0000000E+00  0.1960217E+00  0.3066619E+01  0.1954710E+00 -0.1468266E-01
  0.1052630E+02 -0.3193130E+01  0.0000000E+00  0.1960025E+00  0.3067275E+01  0.1954615E+00 -0.1455302E-01
  0.1078860E+02 -0.2145990E+01  0.0000000E+00  0.1959891E+00  0.3067753E+01  0.1954550E+00 -0.1445854E-01
  0.1094700E+02 -0.1078180E+01  0.0000000E+00  0.1960028E+00  0.3067274E+01  0.1954618E+00 -0.1455324E-01
  0.1100000E+02  0.0000000E+00 -0.2568960E-01  0.1956871E+00  0.3066991E+01  0.1951428E+00 -0.1458511E-01
  0.1094700E+02  0.1078190E+01 -0.2568960E-01  0.1956697E+00  0.3067602E+01  0.1951344E+00 -0.1446445E-01
  0.1078860E+02  0.2145990E+01 -0.2568960E-01  0.1956573E+00  0.3068034E+01  0.1951282E+00 -0.1437933E-01
  0.1052630E+02  0.3193130E+01 -0.2568960E-01  0.1956692E+00  0.3067603E+01  0.1951338E+00 -0.1446430E-01
  0.1016270E+02  0.4209520E+01 -0.2568960E-01  0.1956870E+00  0.3066991E+01  0.1951427E+00 -0.1458498E-01
  0.9701130E+01  0.5185360E+01 -0.2568960E-01  0.1956695E+00  0.3067603E+01  0.1951341E+00 -0.1446428E-01
  0.9146170E+01  0.6111270E+01 -0.2568960E-01  0.1956572E+00  0.3068034E+01  0.1951281E+00 -0.1437922E-01
  0.8503110E+01  0.6978330E+01 -0.2568960E-01  0.1956694E+00  0.3067603E+01  0.1951341E+00 -0.1446425E-01
  0.7778170E+01  0.7778170E+01 -0.2568960E-01  0.1956870E+00  0.3066991E+01  0.1951428E+00 -0.1458497E-01
  0.6978330E+01  0.8503110E+01 -0.2568960E-01  0.1956694E+00  0.3067604E+01  0.1951340E+00 -0.1446420E-01
  0.6111270E+01  0.9146170E+01 -0.2568960E-01  0.1956572E+00  0.3068034E+01  0.1951281E+00 -0.1437924E-01
  0.5185360E+01  0.9701130E+01 -0.2568960E-01  0.1956692E+00  0.3067604E+01  0.1951339E+00 -0.1446417E-01
  0.4209520E+01  0.1016270E+02 -0.2568960E-01  0.1956870E+00  0.3066992E+01  0.1951427E+00 -0.1458488E-01
  0.3193130E+01  0.1052630E+02 -0.2568960E-01  0.1956696E+00  0.3067604E+01  0.1951343E+00 -0.1446420E-01
  0.2145990E+01  0.1078860E+02 -0.2568960E-01  0.1956571E+00  0.3068034E+01  0.1951280E+00 -0.1437921E-01
  0.1078190E+01  0.1094700E+02 -0.2568960E-01  0.1956694E+00  0.3067603E+01  0.1951341E+00 -0.1446438E-01
 -0.4808250E-06  0.1100000E+02 -0.2568960E-01  0.1956870E+00  0.3066991E+01  0.1951427E+00 -0.1458499E-01
 -0.1078190E+01  0.1094700E+02 -0.2568960E-01  0.1956694E+00  0.3067603E+01  0.1951340E+00 -0.1446434E-01
 -0.2145990E+01  0.1078860E+02 -0.2568960E-01  0.1956571E+00  0.3068035E+01  0.1951280E+00 -0.1437918E-01
 -0.3193130E+01  0.1052630E+02 -0.2568960E-01  0.1956694E+00  0.3067604E+01  0.1951341E+00 -0.1446417E-01
 -0.4209520E+01  0.1016270E+02 -0.2568960E-01  0.1956868E+00  0.3066992E+01  0.1951425E+00 -0.1458485E-01
 -0.5185370E+01  0.9701130E+01 -0.2568960E-01  0.1956694E+00  0.3067604E+01  0.1951340E+00 -0.1446410E-01
 -0.6111270E+01  0.9146160E+01 -0.2568960E-01  0.1956572E+00  0.3068035E+01  0.1951282E+00 -0.1437914E-01
 -0.6978330E+01  0.8503120E+01 -0.2568960E-01  0.1956694E+00  0.3067604E+01  0.1951340E+00 -0.1446421E-01
 -0.7778170E+01  0.7778170E+01 -0.2568960E-01  0.1956870E+00  0.3066992E+01  0.1951427E+00 -0.1458483E-01
 -0.8503120E+01  0.6978330E+01 -0.2568960E-01  0.1956693E+00  0.3067604E+01  0.1951340E+00 -0.1446419E-01
 -0.9146170E+01  0.6111270E+01 -0.2568960E-01  0.1956573E+00  0.3068035E+01  0.1951282E+00 -0.1437914E-01
 -0.9701130E+01  0.5185360E+01 -0.2568960E-01  0.1956694E+00  0.3067604E+01  0.1951341E+00 -0.1446413E-01
 -0.1016270E+02  0.4209520E+01 -0.2568960E-01  0.1956872E+00  0.3066992E+01  0.1951429E+00 -0.1458490E-01
 -0.1052630E+02  0.3193130E+01 -0.2568960E-01  0.1956695E+00  0.3067603E+01  0.1951341E+00 -0.1446422E-01
 -0.1078860E+02  0.2145990E+01 -0.2568960E-01  0.1956571E+00  0.3068034E+01  0.1951280E+00 -0.1437926E-01
 -0.1094700E+02  0.1078190E+01 -0.2568960E-01  0.1956693E+00  0.3067603E+01  0.1951339E+00 -0.1446438E-01
 -0.1100000E+02 -0.9616510E-06 -0.2568960E-01  0.1956869E+00  0.3066991E+01  0.1951426E+00 -0.1458506E-01
 -0.1094700E+02 -0.1078190E+01 -0.2568960E-01  0.1956695E+00  0.3067602E+01  0.1951341E+00 -0.1446441E-01
 -0.1078860E+02 -0.2146000E+01 -0.2568960E-01  0.1956572E+00  0.3068034E+01  0.1951281E+00 -0.1437926E-01
 -0.1052630E+02 -0.3193130E+01 -0.2568960E-01  0.1956695E+00  0.3067603E+01  0.1951341E+00 -0.1446425E-01
 -0.1016270E+02 -0.4209520E+01 -0.2568960E-01  0.1956871E+00  0.3066992E+01  0.1951429E+00 -0.1458493E-01
 -0.9701130E+01 -0.5185360E+01 -0.2568960E-01  0.1956694E+00  0.3067603E+01  0.1951340E+00 -0.1446428E-01
 -0.9146160E+01 -0.6111270E+01 -0.2568960E-01  0.1956572E+00  0.3068034E+01  0.1951281E+00 -0.1437926E-01
 -0.8503110E+01 -0.6978330E+01 -0.2568960E-01  0.1956694E+00  0.3067603E+01  0.1951341E+00 -0.1446429E-01
 -0.7778170E+01 -0.7778180E+01 -0.2568960E-01  0.1956872E+00  0.3066991E+01  0.1951430E+00 -0.1458499E-01
 -0.6978330E+01 -0.8503110E+01 -0.2568960E-01  0.1956695E+00  0.3067603E+01  0.1951341E+00 -0.1446432E-01
 -0.6111270E+01 -0.9146170E+01 -0.2568960E-01  0.1956573E+00  0.3068034E+01  0.1951282E+00 -0.1437929E-01
 -0.5185360E+01 -0.9701130E+01 -0.2568960E-01  0.1956696E+00  0.3067603E+01  0.1951343E+00 -0.1446428E-01
 -0.4209510E+01 -0.1016270E+02 -0.2568960E-01  0.1956870E+00  0.3066991E+01  0.1951428E+00 -0.1458502E-01
 -0.3193130E+01 -0.1052630E+02 -0.2568960E-01  0.1956695E+00  0.3067603E+01  0.1951341E+00 -0.1446436E-01
 -0.2145990E+01 -0.1078860E+02 -0.2568960E-01  0.1956573E+00  0.3068034E+01  0.1951281E+00 -0.1437937E-01
 -0.1078190E+01 -0.1094700E+02 -0.2568960E-01  0.1956696E+00  0.3067602E+01  0.1951343E+00 -0.1446443E-01
  0.1311740E-06 -0.1100000E+02 -0.2568960E-01  0.1956872E+00  0.3066991E+01  0.1951430E+00 -0.1458515E-01
  0.1078190E+01 -0.1094700E+02 -0.2568960E-01  0.1956695E+00  0.3067601E+01  0.1951341E+00 -0.1446462E-01
  0.2145990E+01 -0.1078860E+02 -0.2568960E-01  0.1956571E+00  0.3068034E+01  0.1951280E+00 -0.1437937E-01
  0.3193140E+01 -0.1052630E+02 -0.2568960E-01  0.1956695E+00  0.3067603E+01  0.1951341E+00 -0.1446432E-01
  0.4209520E+01 -0.1016270E+02 -0.2568960E-01  0.1956872E+00  0.3066991E+01  0.1951429E+00 -0.1458503E-01
  0.5185360E+01 -0.9701130E+01 -0.2568960E-01  0.1956696E+00  0.3067603E+01  0.1951343E+00 -0.1446433E-01
  0.6111270E+01 -0.9146160E+01 -0.2568960E-01  0.1956574E+00  0.3068034E+01  0.1951283E+00 -0.1437940E-01
  0.6978330E+01 -0.8503110E+01 -0.2568960E-01  0.1956694E+00  0.3067603E+01  0.1951341E+00 -0.1446436E-01
  0.7778180E+01 -0.7778170E+01 -0.2568960E-01  0.1956869E+00  0.3066991E+01  0.1951426E+00 -0.1458511E-01
  0.8503120E+01 -0.6978320E+01 -0.2568960E-01  0.1956693E+00  0.3067603E+01  0.1951340E+00 -0.1446439E-01
  0.9146170E+01 -0.6111270E+01 -0.2568960E-01  0.1956574E+00  0.3068034E+01  0.1951283E+00 -0.1437940E-01
  0.9701130E+01 -0.5185360E+01 -0.2568960E-01  0.1956695E+00  0.3067602E+01  0.1951341E+00 -0.1446442E-01
  0.1016270E+02 -0.4209520E+01 -0.2568960E-01  0.1956870E+00  0.3066991E+01  0.1951427E+00 -0.1458506E-01
  0.1052630E+02 -0.3193130E+01 -0.2568960E-01  0.1956695E+00  0.3067602E+01  0.1951341E+00 -0.1446443E-01
  0.1078860E+02 -0.2145990E+01 -0.2568960E-01  0.1956573E+00  0.3068034E+01  0.1951282E+00 -0.1437935E-01
  0.1094700E+02 -0.1078180E+01 -0.2568960E-01  0.1956693E+00  0.3067602E+01  0.1951340E+00 -0.1446451E-01
  0.1100000E+02  0.0000000E+00 -0.1027320E+00  0.1946948E+00  0.3067837E+01  0.1941655E+00 -0.1434682E-01
  0.1094700E+02  0.1078190E+01 -0.1027320E+00  0.1946806E+00  0.3068341E+01  0.1941586E+00 -0.1424787E-01
  0.1078860E+02  0.2145990E+01 -0.1027320E+00  0.1946722E+00  0.3068651E+01  0.1941545E+00 -0.1418711E-01
  0.1052630E+02  0.3193130E+01 -0.1027320E+00  0.1946806E+00  0.3068342E+01  0.1941585E+00 -0.1424772E-01
  0.1016270E+02  0.4209520E+01 -0.1027320E+00  0.1946946E+00  0.3067838E+01  0.1941653E+00 -0.1434666E-01
  0.9701130E+01  0.5185360E+01 -0.1027320E+00  0.1946807E+00  0.3068342E+01  0.1941587E+00 -0.1424764E-01
  0.9146170E+01  0.6111270E+01 -0.1027320E+00  0.1946723E+00  0.3068652E+01  0.1941547E+00 -0.1418701E-01
  0.8503110E+01  0.6978330E+01 -0.1027320E+00  0.1946806E+00  0.3068343E+01  0.1941586E+00 -0.1424759E-01
  0.7778170E+01  0.7778170E+01 -0.1027320E+00  0.1946948E+00  0.3067838E+01  0.1941655E+00 -0.1434665E-01
  0.6978330E+01  0.8503110E+01 -0.1027320E+00  0.1946806E+00  0.3068342E+01  0.1941586E+00 -0.1424765E-01
  0.6111270E+01  0.9146170E+01 -0.1027320E+00  0.1946720E+00  0.3068652E+01  0.1941544E+00 -0.1418693E-01
  0.5185360E+01  0.9701130E+01 -0.1027320E+00  0.1946805E+00  0.3068343E+01  0.1941584E+00 -0.1424757E-01
  0.4209520E+01  0.1016270E+02 -0.1027320E+00  0.1946947E+00  0.3067838E+01  0.1941654E+00 -0.1434657E-01
  0.3193130E+01  0.1052630E+02 -0.1027320E+00  0.1946805E+00  0.3068343E+01  0.1941584E+00 -0.1424757E-01
  0.2145990E+01  0.1078860E+02 -0.1027320E+00  0.1946722E+00  0.3068652E+01  0.1941545E+00 -0.1418698E-01
  0.1078190E+01  0.1094700E+02 -0.1027320E+00  0.1946806E+00  0.3068342E+01  0.1941585E+00 -0.1424771E-01
 -0.4808250E-06  0.1100000E+02 -0.1027320E+00  0.1946947E+00  0.3067838E+01  0.1941654E+00 -0.1434669E-01
 -0.1078190E+01  0.1094700E+02 -0.1027320E+00  0.1946805E+00  0.3068342E+01  0.1941584E+00 -0.1424773E-01
 -0.2145990E+01  0.1078860E+02 -0.1027320E+00  0.1946721E+00  0.3068652E+01  0.1941544E+00 -0.1418694E-01
 -0.3193130E+01  0.1052630E+02 -0.1027320E+00  0.1946807E+00  0.3068343E+01  0.1941587E+00 -0.1424757E-01
 -0.4209520E+01  0.1016270E+02 -0.1027320E+00  0.1946947E+00  0.3067838E+01  0.1941654E+00 -0.1434655E-01
 -0.5185370E+01  0.9701130E+01 -0.1027320E+00  0.1946806E+00  0.3068343E+01  0.1941585E+00 -0.1424748E-01
 -0.6111270E+01  0.9146160E+01 -0.1027320E+00  0.1946723E+00  0.3068652E+01  0.1941546E+00 -0.1418687E-01
 -0.6978330E+01  0.8503120E+01 -0.1027320E+00  0.1946807E+00  0.3068343E+01  0.1941586E+00 -0.1424751E-01
 -0.7778170E+01  0.7778170E+01 -0.1027320E+00  0.1946948E+00  0.3067838E+01  0.1941655E+00 -0.1434654E-01
 -0.8503120E+01  0.6978330E+01 -0.1027320E+00  0.1946807E+00  0.3068343E+01  0.1941586E+00 -0.1424755E-01
 -0.9146170E+01  0.6111270E+01 -0.1027320E+00  0.1946720E+00  0.3068652E+01  0.1941544E+00 -0.1418689E-01
 -0.9701130E+01  0.5185360E+01 -0.1027320E+00  0.1946807E+00  0.3068343E+01  0.1941587E+00 -0.1424749E-01
 -0.1016270E+02  0.4209520E+01 -0.1027320E+00  0.1946948E+00  0.3067838E+01  0.1941655E+00 -0.1434658E-01
 -0.1052630E+02  0.3193130E+01 -0.1027320E+00  0.1946807E+00  0.3068343E+01  0.1941587E+00 -0.1424761E-01
 -0.1078860E+02  0.2145990E+01 -0.1027320E+00  0.1946720E+00  0.3068651E+01  0.1941544E+00 -0.1418703E-01
 -0.1094700E+02  0.1078190E+01 -0.1027320E+00  0.1946807E+00  0.3068342E+01  0.1941587E+00 -0.1424779E-01
 -0.1100000E+02 -0.9616510E-06 -0.1027320E+00  0.1946949E+00  0.3067837E+01  0.1941656E+00 -0.1434675E-01
 -0.1094700E+02 -0.1078190E+01 -0.1027320E+00  0.1946807E+00  0.3068342E+01  0.1941586E+00 -0.1424781E-01
 -0.1078860E+02 -0.2146000E+01 -0.1027320E+00  0.1946722E+00  0.3068651E+01  0.1941546E+00 -0.1418703E-01
 -0.1052630E+02 -0.3193130E+01 -0.1027320E+00  0.1946806E+00  0.3068342E+01  0.1941585E+00 -0.1424764E-01
 -0.1016270E+02 -0.4209520E+01 -0.1027320E+00  0.1946947E+00  0.3067838E+01  0.1941653E+00 -0.1434667E-01
 -0.9701130E+01 -0.5185360E+01 -0.1027320E+00  0.1946806E+00  0.3068343E+01  0.1941585E+00 -0.1424761E-01
 -0.9146160E+01 -0.6111270E+01 -0.1027320E+00  0.1946721E+00  0.3068651E+01  0.1941544E+00 -0.1418703E-01
 -0.8503110E+01 -0.6978330E+01 -0.1027320E+00  0.1946807E+00  0.3068342E+01  0.1941586E+00 -0.1424765E-01
 -0.7778170E+01 -0.7778180E+01 -0.1027320E+00  0.1946947E+00  0.3067838E+01  0.1941654E+00 -0.1434670E-01
 -0.6978330E+01 -0.8503110E+01 -0.1027320E+00  0.1946805E+00  0.3068342E+01  0.1941585E+00 -0.1424764E-01
 -0.6111270E+01 -0.9146170E+01 -0.1027320E+00  0.1946722E+00  0.3068652E+01  0.1941546E+00 -0.1418698E-01
 -0.5185360E+01 -0.9701130E+01 -0.1027320E+00  0.1946806E+00  0.3068342E+01  0.1941585E+00 -0.1424769E-01
 -0.4209510E+01 -0.1016270E+02 -0.1027320E+00  0.1946946E+00  0.3067838E+01  0.1941653E+00 -0.1434667E-01
 -0.3193130E+01 -0.1052630E+02 -0.1027320E+00  0.1946808E+00  0.3068342E+01  0.1941587E+00 -0.1424770E-01
 -0.2145990E+01 -0.1078860E+02 -0.1027320E+00  0.1946722E+00  0.3068651E+01  0.1941546E+00 -0.1418709E-01
 -0.1078190E+01 -0.1094700E+02 -0.1027320E+00  0.1946807E+00  0.3068341E+01  0.1941586E+00 -0.1424792E-01
  0.1311740E-06 -0.1100000E+02 -0.1027320E+00  0.1946950E+00  0.3067837E+01  0.1941657E+00 -0.1434685E-01
  0.1078190E+01 -0.1094700E+02 -0.1027320E+00  0.1946809E+00  0.3068341E+01  0.1941588E+00 -0.1424788E-01
  0.2145990E+01 -0.1078860E+02 -0.1027320E+00  0.1946724E+00  0.3068651E+01  0.1941547E+00 -0.1418714E-01
  0.3193140E+01 -0.1052630E+02 -0.1027320E+00  0.1946805E+00  0.3068341E+01  0.1941585E+00 -0.1424780E-01
  0.4209520E+01 -0.1016270E+02 -0.1027320E+00  0.1946950E+00  0.3067837E+01  0.1941657E+00 -0.1434676E-01
  0.5185360E+01 -0.9701130E+01 -0.1027320E+00  0.1946808E+00  0.3068342E+01  0.1941587E+00 -0.1424767E-01
  0.6111270E+01 -0.9146160E+01 -0.1027320E+00  0.1946720E+00  0.3068651E+01  0.1941544E+00 -0.1418719E-01
  0.6978330E+01 -0.8503110E+01 -0.1027320E+00  0.1946806E+00  0.3068342E+01  0.1941585E+00 -0.1424776E-01
  0.7778180E+01 -0.7778170E+01 -0.1027320E+00  0.1946946E+00  0.3067837E+01  0.1941653E+00 -0.1434685E-01
  0.8503120E+01 -0.6978320E+01 -0.1027320E+00  0.1946808E+00  0.3068342E+01  0.1941587E+00 -0.1424782E-01
  0.9146170E+01 -0.6111270E+01 -0.1027320E+00  0.1946721E+00  0.3068651E+01  0.1941544E+00 -0.1418710E-01
