 VARIABLES="X" "Y" "Z" "abs(eta) (m)" "angle(phi) (rad)" "PRE1" "PRE2"
ZONE N=   3200 ,E =    3136 ,F=FEPOINT,ET=QUADRILATERAL
  0.1010000E+02  0.0000000E+00  0.0000000E+00  0.3803976E-08  0.2360128E+01  0.2700376E-08 -0.2679217E-08
  0.1005140E+02  0.9899730E+00  0.0000000E+00  0.2334664E-05  0.1572226E+01  0.3338825E-08 -0.2334662E-05
  0.9905930E+01  0.1970410E+01  0.0000000E+00  0.2551729E-04  0.1570961E+01  0.4210865E-08 -0.2551729E-04
  0.9665100E+01  0.2931880E+01  0.0000000E+00  0.1987183E-05  0.1572572E+01  0.3529523E-08 -0.1987180E-05
  0.9331180E+01  0.3865100E+01  0.0000000E+00  0.2816227E-05  0.1572083E+01  0.3623637E-08 -0.2816224E-05
  0.8907400E+01  0.4761110E+01  0.0000000E+00  0.5282636E-05  0.1571323E+01  0.2782930E-08 -0.5282635E-05
  0.8397840E+01  0.5611260E+01  0.0000000E+00  0.1451727E-04 -0.1570911E+01  0.1666485E-08  0.1451727E-04
  0.7807410E+01  0.6407370E+01  0.0000000E+00  0.1154499E-04  0.1570991E+01  0.2245095E-08 -0.1154499E-04
  0.7141780E+01  0.7141780E+01  0.0000000E+00  0.5053500E-08  0.2134601E+01  0.2700619E-08 -0.4271360E-08
  0.6407370E+01  0.7807410E+01  0.0000000E+00  0.1153659E-04 -0.1571069E+01  0.3151907E-08  0.1153659E-04
  0.5611260E+01  0.8397840E+01  0.0000000E+00  0.1452517E-04  0.1571054E+01  0.3744627E-08 -0.1452517E-04
  0.4761110E+01  0.8907410E+01  0.0000000E+00  0.5275321E-05 -0.1571292E+01  0.2614892E-08  0.5275321E-05
  0.3865100E+01  0.9331180E+01  0.0000000E+00  0.2809609E-05 -0.1571430E+01  0.1781220E-08  0.2809609E-05
  0.2931870E+01  0.9665100E+01  0.0000000E+00  0.1981252E-05 -0.1571734E+01  0.1858161E-08  0.1981251E-05
  0.1970410E+01  0.9905930E+01  0.0000000E+00  0.2551163E-04 -0.1570843E+01  0.1188102E-08  0.2551163E-04
  0.9899730E+00  0.1005140E+02  0.0000000E+00  0.2329245E-05 -0.1571684E+01  0.2066505E-08  0.2329244E-05
 -0.4414850E-06  0.1010000E+02  0.0000000E+00  0.3800047E-08  0.2362086E+01  0.2702823E-08 -0.2671162E-08
 -0.9899740E+00  0.1005140E+02  0.0000000E+00  0.2334702E-05  0.1572229E+01  0.3344005E-08 -0.2334700E-05
 -0.1970410E+01  0.9905930E+01  0.0000000E+00  0.2551732E-04  0.1570962E+01  0.4222418E-08 -0.2551732E-04
 -0.2931880E+01  0.9665100E+01  0.0000000E+00  0.1987213E-05  0.1572573E+01  0.3530997E-08 -0.1987210E-05
 -0.3865100E+01  0.9331180E+01  0.0000000E+00  0.2816222E-05  0.1572084E+01  0.3626293E-08 -0.2816219E-05
 -0.4761110E+01  0.8907400E+01  0.0000000E+00  0.5282620E-05  0.1571324E+01  0.2785171E-08 -0.5282619E-05
 -0.5611260E+01  0.8397840E+01  0.0000000E+00  0.1451723E-04 -0.1570911E+01  0.1665131E-08  0.1451723E-04
 -0.6407370E+01  0.7807410E+01  0.0000000E+00  0.1154501E-04  0.1570991E+01  0.2246320E-08 -0.1154501E-04
 -0.7141780E+01  0.7141780E+01  0.0000000E+00  0.5071949E-08  0.2131679E+01  0.2697939E-08 -0.4294856E-08
 -0.7807410E+01  0.6407370E+01  0.0000000E+00  0.1153658E-04 -0.1571070E+01  0.3156793E-08  0.1153658E-04
 -0.8397840E+01  0.5611260E+01  0.0000000E+00  0.1452518E-04  0.1571054E+01  0.3744189E-08 -0.1452517E-04
 -0.8907410E+01  0.4761110E+01  0.0000000E+00  0.5275303E-05 -0.1571292E+01  0.2616890E-08  0.5275302E-05
 -0.9331180E+01  0.3865100E+01  0.0000000E+00  0.2809607E-05 -0.1571427E+01  0.1772695E-08  0.2809607E-05
 -0.9665100E+01  0.2931880E+01  0.0000000E+00  0.1981144E-05 -0.1571741E+01  0.1871963E-08  0.1981143E-05
 -0.9905930E+01  0.1970410E+01  0.0000000E+00  0.2551170E-04 -0.1570843E+01  0.1183395E-08  0.2551170E-04
 -0.1005140E+02  0.9899730E+00  0.0000000E+00  0.2329277E-05 -0.1571684E+01  0.2066701E-08  0.2329276E-05
 -0.1010000E+02 -0.8829700E-06  0.0000000E+00  0.3770202E-08  0.2371231E+01  0.2705719E-08 -0.2625550E-08
 -0.1005140E+02 -0.9899740E+00  0.0000000E+00  0.2334685E-05  0.1572225E+01  0.3336099E-08 -0.2334683E-05
 -0.9905930E+01 -0.1970410E+01  0.0000000E+00  0.2551732E-04  0.1570962E+01  0.4223705E-08 -0.2551732E-04
 -0.9665100E+01 -0.2931880E+01  0.0000000E+00  0.1987174E-05  0.1572571E+01  0.3527472E-08 -0.1987171E-05
 -0.9331180E+01 -0.3865100E+01  0.0000000E+00  0.2816206E-05  0.1572083E+01  0.3622245E-08 -0.2816204E-05
 -0.8907400E+01 -0.4761110E+01  0.0000000E+00  0.5282630E-05  0.1571324E+01  0.2787906E-08 -0.5282629E-05
 -0.8397840E+01 -0.5611260E+01  0.0000000E+00  0.1451728E-04 -0.1570911E+01  0.1662833E-08  0.1451728E-04
 -0.7807400E+01 -0.6407370E+01  0.0000000E+00  0.1154532E-04  0.1570991E+01  0.2246493E-08 -0.1154532E-04
 -0.7141780E+01 -0.7141780E+01  0.0000000E+00  0.5070629E-08  0.2132506E+01  0.2700787E-08 -0.4291506E-08
 -0.6407370E+01 -0.7807410E+01  0.0000000E+00  0.1153662E-04 -0.1571070E+01  0.3152217E-08  0.1153662E-04
 -0.5611260E+01 -0.8397850E+01  0.0000000E+00  0.1452500E-04  0.1571054E+01  0.3742495E-08 -0.1452499E-04
 -0.4761110E+01 -0.8907410E+01  0.0000000E+00  0.5275319E-05 -0.1571292E+01  0.2615240E-08  0.5275318E-05
 -0.3865100E+01 -0.9331190E+01  0.0000000E+00  0.2809530E-05 -0.1571431E+01  0.1782841E-08  0.2809530E-05
 -0.2931870E+01 -0.9665100E+01  0.0000000E+00  0.1981235E-05 -0.1571740E+01  0.1868653E-08  0.1981234E-05
 -0.1970410E+01 -0.9905930E+01  0.0000000E+00  0.2551163E-04 -0.1570843E+01  0.1187081E-08  0.2551163E-04
 -0.9899710E+00 -0.1005140E+02  0.0000000E+00  0.2329212E-05 -0.1571681E+01  0.2060109E-08  0.2329211E-05
  0.1204410E-06 -0.1010000E+02  0.0000000E+00  0.3809053E-08  0.2358819E+01  0.2700468E-08 -0.2686328E-08
  0.9899760E+00 -0.1005140E+02  0.0000000E+00  0.2334750E-05  0.1572226E+01  0.3336973E-08 -0.2334748E-05
  0.1970410E+01 -0.9905930E+01  0.0000000E+00  0.2551731E-04  0.1570962E+01  0.4223822E-08 -0.2551731E-04
  0.2931880E+01 -0.9665100E+01  0.0000000E+00  0.1987199E-05  0.1572574E+01  0.3532065E-08 -0.1987196E-05
  0.3865100E+01 -0.9331180E+01  0.0000000E+00  0.2816229E-05  0.1572085E+01  0.3629864E-08 -0.2816226E-05
  0.4761110E+01 -0.8907410E+01  0.0000000E+00  0.5282588E-05  0.1571324E+01  0.2786513E-08 -0.5282587E-05
  0.5611260E+01 -0.8397840E+01  0.0000000E+00  0.1451724E-04 -0.1570911E+01  0.1659606E-08  0.1451724E-04
  0.6407370E+01 -0.7807410E+01  0.0000000E+00  0.1154504E-04  0.1570991E+01  0.2251378E-08 -0.1154504E-04
  0.7141780E+01 -0.7141780E+01  0.0000000E+00  0.5098539E-08  0.2129669E+01  0.2703402E-08 -0.4322814E-08
  0.7807410E+01 -0.6407370E+01  0.0000000E+00  0.1153657E-04 -0.1571070E+01  0.3156809E-08  0.1153657E-04
  0.8397840E+01 -0.5611260E+01  0.0000000E+00  0.1452521E-04  0.1571054E+01  0.3748195E-08 -0.1452520E-04
  0.8907410E+01 -0.4761110E+01  0.0000000E+00  0.5275288E-05 -0.1571293E+01  0.2620824E-08  0.5275287E-05
  0.9331180E+01 -0.3865100E+01  0.0000000E+00  0.2809591E-05 -0.1571432E+01  0.1786267E-08  0.2809591E-05
  0.9665100E+01 -0.2931870E+01  0.0000000E+00  0.1981228E-05 -0.1571736E+01  0.1862701E-08  0.1981227E-05
  0.9905930E+01 -0.1970410E+01  0.0000000E+00  0.2551160E-04 -0.1570843E+01  0.1180404E-08  0.2551160E-04
  0.1005140E+02 -0.9899690E+00  0.0000000E+00  0.2329106E-05 -0.1571686E+01  0.2071458E-08  0.2329105E-05
  0.1010000E+02  0.0000000E+00 -0.2568960E-01  0.3813875E-08  0.2359072E+01  0.2704566E-08 -0.2689044E-08
  0.1005140E+02  0.9899730E+00 -0.2568960E-01  0.2318548E-05  0.1572235E+01  0.3335806E-08 -0.2318546E-05
  0.9905930E+01  0.1970410E+01 -0.2568960E-01  0.2548017E-04  0.1570962E+01  0.4213772E-08 -0.2548017E-04
  0.9665100E+01  0.2931880E+01 -0.2568960E-01  0.1963463E-05  0.1572592E+01  0.3526098E-08 -0.1963460E-05
  0.9331180E+01  0.3865100E+01 -0.2568960E-01  0.2816207E-05  0.1572082E+01  0.3621928E-08 -0.2816205E-05
  0.8907400E+01  0.4761110E+01 -0.2568960E-01  0.5299915E-05  0.1571321E+01  0.2780380E-08 -0.5299914E-05
  0.8397840E+01  0.5611260E+01 -0.2568960E-01  0.1448491E-04 -0.1570910E+01  0.1651074E-08  0.1448491E-04
  0.7807410E+01  0.6407370E+01 -0.2568960E-01  0.1157707E-04  0.1570990E+01  0.2245060E-08 -0.1157707E-04
  0.7141780E+01  0.7141780E+01 -0.2568960E-01  0.5032709E-08  0.2137311E+01  0.2701025E-08 -0.4246484E-08
  0.6407370E+01  0.7807410E+01 -0.2568960E-01  0.1156871E-04 -0.1571069E+01  0.3154579E-08  0.1156871E-04
  0.5611260E+01  0.8397840E+01 -0.2568960E-01  0.1449283E-04  0.1571055E+01  0.3745554E-08 -0.1449282E-04
  0.4761110E+01  0.8907410E+01 -0.2568960E-01  0.5292599E-05 -0.1571291E+01  0.2618716E-08  0.5292598E-05
  0.3865100E+01  0.9331180E+01 -0.2568960E-01  0.2809614E-05 -0.1571430E+01  0.1781167E-08  0.2809613E-05
  0.2931870E+01  0.9665100E+01 -0.2568960E-01  0.1957597E-05 -0.1571748E+01  0.1862014E-08  0.1957596E-05
  0.1970410E+01  0.9905930E+01 -0.2568960E-01  0.2547449E-04 -0.1570843E+01  0.1188138E-08  0.2547449E-04
  0.9899730E+00  0.1005140E+02 -0.2568960E-01  0.2313145E-05 -0.1571689E+01  0.2064361E-08  0.2313144E-05
 -0.4414850E-06  0.1010000E+02 -0.2568960E-01  0.3789008E-08  0.2364806E+01  0.2702207E-08 -0.2656060E-08
 -0.9899740E+00  0.1005140E+02 -0.2568960E-01  0.2318567E-05  0.1572233E+01  0.3330073E-08 -0.2318565E-05
 -0.1970410E+01  0.9905930E+01 -0.2568960E-01  0.2548019E-04  0.1570962E+01  0.4211162E-08 -0.2548019E-04
 -0.2931880E+01  0.9665100E+01 -0.2568960E-01  0.1963489E-05  0.1572590E+01  0.3520943E-08 -0.1963485E-05
 -0.3865100E+01  0.9331180E+01 -0.2568960E-01  0.2816215E-05  0.1572082E+01  0.3621228E-08 -0.2816212E-05
 -0.4761110E+01  0.8907400E+01 -0.2568960E-01  0.5299886E-05  0.1571321E+01  0.2782320E-08 -0.5299885E-05
 -0.5611260E+01  0.8397840E+01 -0.2568960E-01  0.1448489E-04 -0.1570911E+01  0.1667120E-08  0.1448489E-04
 -0.6407370E+01  0.7807410E+01 -0.2568960E-01  0.1157709E-04  0.1570990E+01  0.2246741E-08 -0.1157709E-04
 -0.7141780E+01  0.7141780E+01 -0.2568960E-01  0.5059829E-08  0.2132904E+01  0.2696741E-08 -0.4281291E-08
 -0.7807410E+01  0.6407370E+01 -0.2568960E-01  0.1156866E-04 -0.1571069E+01  0.3151865E-08  0.1156866E-04
 -0.8397840E+01  0.5611260E+01 -0.2568960E-01  0.1449283E-04  0.1571054E+01  0.3740370E-08 -0.1449283E-04
 -0.8907410E+01  0.4761110E+01 -0.2568960E-01  0.5292580E-05 -0.1571289E+01  0.2606205E-08  0.5292580E-05
 -0.9331180E+01  0.3865100E+01 -0.2568960E-01  0.2809599E-05 -0.1571427E+01  0.1773275E-08  0.2809599E-05
 -0.9665100E+01  0.2931880E+01 -0.2568960E-01  0.1957454E-05 -0.1571755E+01  0.1877201E-08  0.1957453E-05
 -0.9905930E+01  0.1970410E+01 -0.2568960E-01  0.2547458E-04 -0.1570843E+01  0.1187008E-08  0.2547458E-04
 -0.1005140E+02  0.9899730E+00 -0.2568960E-01  0.2313175E-05 -0.1571687E+01  0.2061056E-08  0.2313174E-05
 -0.1010000E+02 -0.8829700E-06 -0.2568960E-01  0.3771698E-08  0.2371372E+01  0.2707164E-08 -0.2626208E-08
 -0.1005140E+02 -0.9899740E+00 -0.2568960E-01  0.2318552E-05  0.1572236E+01  0.3338813E-08 -0.2318549E-05
 -0.9905930E+01 -0.1970410E+01 -0.2568960E-01  0.2548017E-04  0.1570962E+01  0.4216761E-08 -0.2548017E-04
 -0.9665100E+01 -0.2931880E+01 -0.2568960E-01  0.1963462E-05  0.1572594E+01  0.3529609E-08 -0.1963459E-05
 -0.9331180E+01 -0.3865100E+01 -0.2568960E-01  0.2816192E-05  0.1572084E+01  0.3625079E-08 -0.2816190E-05
 -0.8907400E+01 -0.4761110E+01 -0.2568960E-01  0.5299893E-05  0.1571321E+01  0.2782668E-08 -0.5299892E-05
 -0.8397840E+01 -0.5611260E+01 -0.2568960E-01  0.1448495E-04 -0.1570911E+01  0.1656500E-08  0.1448495E-04
 -0.7807400E+01 -0.6407370E+01 -0.2568960E-01  0.1157744E-04  0.1570990E+01  0.2243366E-08 -0.1157744E-04
 -0.7141780E+01 -0.7141780E+01 -0.2568960E-01  0.5058558E-08  0.2132728E+01  0.2695309E-08 -0.4280692E-08
 -0.6407370E+01 -0.7807410E+01 -0.2568960E-01  0.1156870E-04 -0.1571069E+01  0.3148605E-08  0.1156870E-04
 -0.5611260E+01 -0.8397850E+01 -0.2568960E-01  0.1449268E-04  0.1571055E+01  0.3742540E-08 -0.1449268E-04
 -0.4761110E+01 -0.8907410E+01 -0.2568960E-01  0.5292603E-05 -0.1571290E+01  0.2613233E-08  0.5292603E-05
 -0.3865100E+01 -0.9331190E+01 -0.2568960E-01  0.2809515E-05 -0.1571429E+01  0.1777759E-08  0.2809514E-05
 -0.2931870E+01 -0.9665100E+01 -0.2568960E-01  0.1957576E-05 -0.1571747E+01  0.1860565E-08  0.1957575E-05
 -0.1970410E+01 -0.9905930E+01 -0.2568960E-01  0.2547453E-04 -0.1570843E+01  0.1188764E-08  0.2547453E-04
 -0.9899710E+00 -0.1005140E+02 -0.2568960E-01  0.2313072E-05 -0.1571691E+01  0.2068340E-08  0.2313071E-05
  0.1204410E-06 -0.1010000E+02 -0.2568960E-01  0.3797728E-08  0.2360641E+01  0.2697312E-08 -0.2673433E-08
  0.9899760E+00 -0.1005140E+02 -0.2568960E-01  0.2318598E-05  0.1572235E+01  0.3334798E-08 -0.2318596E-05
  0.1970410E+01 -0.9905930E+01 -0.2568960E-01  0.2548017E-04  0.1570962E+01  0.4219269E-08 -0.2548017E-04
  0.2931880E+01 -0.9665100E+01 -0.2568960E-01  0.1963481E-05  0.1572591E+01  0.3523600E-08 -0.1963478E-05
  0.3865100E+01 -0.9331180E+01 -0.2568960E-01  0.2816211E-05  0.1572081E+01  0.3618586E-08 -0.2816209E-05
  0.4761110E+01 -0.8907410E+01 -0.2568960E-01  0.5299836E-05  0.1571321E+01  0.2782304E-08 -0.5299835E-05
  0.5611260E+01 -0.8397840E+01 -0.2568960E-01  0.1448491E-04 -0.1570911E+01  0.1658782E-08  0.1448491E-04
  0.6407370E+01 -0.7807410E+01 -0.2568960E-01  0.1157713E-04  0.1570990E+01  0.2244487E-08 -0.1157713E-04
  0.7141780E+01 -0.7141780E+01 -0.2568960E-01  0.5082116E-08  0.2131841E+01  0.2704048E-08 -0.4303025E-08
  0.7807410E+01 -0.6407370E+01 -0.2568960E-01  0.1156866E-04 -0.1571069E+01  0.3155377E-08  0.1156866E-04
  0.8397840E+01 -0.5611260E+01 -0.2568960E-01  0.1449285E-04  0.1571055E+01  0.3751429E-08 -0.1449285E-04
  0.8907410E+01 -0.4761110E+01 -0.2568960E-01  0.5292588E-05 -0.1571291E+01  0.2616470E-08  0.5292588E-05
  0.9331180E+01 -0.3865100E+01 -0.2568960E-01  0.2809583E-05 -0.1571432E+01  0.1785816E-08  0.2809582E-05
  0.9665100E+01 -0.2931870E+01 -0.2568960E-01  0.1957558E-05 -0.1571747E+01  0.1861618E-08  0.1957558E-05
  0.9905930E+01 -0.1970410E+01 -0.2568960E-01  0.2547449E-04 -0.1570843E+01  0.1187024E-08  0.2547449E-04
  0.1005140E+02 -0.9899690E+00 -0.2568960E-01  0.2312998E-05 -0.1571691E+01  0.2069641E-08  0.2312997E-05
  0.1010000E+02  0.0000000E+00 -0.1027320E+00  0.3801983E-08  0.2357859E+01  0.2692880E-08 -0.2683928E-08
  0.1005140E+02  0.9899730E+00 -0.1027320E+00  0.2335794E-05  0.1572220E+01  0.3324968E-08 -0.2335792E-05
  0.9905930E+01  0.1970410E+01 -0.1027320E+00  0.2535600E-04  0.1570962E+01  0.4205042E-08 -0.2535600E-04
  0.9665100E+01  0.2931880E+01 -0.1027320E+00  0.1972444E-05  0.1572578E+01  0.3514746E-08 -0.1972441E-05
  0.9331180E+01  0.3865100E+01 -0.1027320E+00  0.2816419E-05  0.1572080E+01  0.3616343E-08 -0.2816417E-05
  0.8907400E+01  0.4761110E+01 -0.1027320E+00  0.5277451E-05  0.1571322E+01  0.2774714E-08 -0.5277450E-05
  0.8397840E+01  0.5611260E+01 -0.1027320E+00  0.1437712E-04 -0.1570912E+01  0.1659010E-08  0.1437712E-04
  0.7807410E+01  0.6407370E+01 -0.1027320E+00  0.1154723E-04  0.1570990E+01  0.2241561E-08 -0.1154723E-04
  0.7141780E+01  0.7141780E+01 -0.1027320E+00  0.5045919E-08  0.2134115E+01  0.2694498E-08 -0.4266260E-08
  0.6407370E+01  0.7807410E+01 -0.1027320E+00  0.1153887E-04 -0.1571069E+01  0.3150902E-08  0.1153887E-04
  0.5611260E+01  0.8397840E+01 -0.1027320E+00  0.1438503E-04  0.1571056E+01  0.3731698E-08 -0.1438502E-04
  0.4761110E+01  0.8907410E+01 -0.1027320E+00  0.5270207E-05 -0.1571291E+01  0.2609620E-08  0.5270207E-05
  0.3865100E+01  0.9331180E+01 -0.1027320E+00  0.2809842E-05 -0.1571430E+01  0.1779809E-08  0.2809841E-05
  0.2931870E+01  0.9665100E+01 -0.1027320E+00  0.1966580E-05 -0.1571740E+01  0.1856651E-08  0.1966579E-05
  0.1970410E+01  0.9905930E+01 -0.1027320E+00  0.2535039E-04 -0.1570843E+01  0.1179642E-08  0.2535039E-04
  0.9899730E+00  0.1005140E+02 -0.1027320E+00  0.2330388E-05 -0.1571679E+01  0.2056501E-08  0.2330388E-05
 -0.4414850E-06  0.1010000E+02 -0.1027320E+00  0.3788695E-08  0.2362852E+01  0.2696789E-08 -0.2661116E-08
 -0.9899740E+00  0.1005140E+02 -0.1027320E+00  0.2335819E-05  0.1572216E+01  0.3315323E-08 -0.2335817E-05
 -0.1970410E+01  0.9905930E+01 -0.1027320E+00  0.2535603E-04  0.1570962E+01  0.4196917E-08 -0.2535603E-04
 -0.2931880E+01  0.9665100E+01 -0.1027320E+00  0.1972474E-05  0.1572578E+01  0.3513641E-08 -0.1972471E-05
 -0.3865100E+01  0.9331180E+01 -0.1027320E+00  0.2816417E-05  0.1572078E+01  0.3608321E-08 -0.2816414E-05
 -0.4761110E+01  0.8907400E+01 -0.1027320E+00  0.5277448E-05  0.1571323E+01  0.2778052E-08 -0.5277447E-05
 -0.5611260E+01  0.8397840E+01 -0.1027320E+00  0.1437711E-04 -0.1570912E+01  0.1657848E-08  0.1437711E-04
 -0.6407370E+01  0.7807410E+01 -0.1027320E+00  0.1154722E-04  0.1570990E+01  0.2240116E-08 -0.1154722E-04
 -0.7141780E+01  0.7141780E+01 -0.1027320E+00  0.5059428E-08  0.2132420E+01  0.2694453E-08 -0.4282258E-08
 -0.7807410E+01  0.6407370E+01 -0.1027320E+00  0.1153881E-04 -0.1571069E+01  0.3145122E-08  0.1153881E-04
 -0.8397840E+01  0.5611260E+01 -0.1027320E+00  0.1438504E-04  0.1571056E+01  0.3729538E-08 -0.1438504E-04
 -0.8907410E+01  0.4761110E+01 -0.1027320E+00  0.5270200E-05 -0.1571290E+01  0.2603048E-08  0.5270199E-05
 -0.9331180E+01  0.3865100E+01 -0.1027320E+00  0.2809832E-05 -0.1571428E+01  0.1774565E-08  0.2809832E-05
 -0.9665100E+01  0.2931880E+01 -0.1027320E+00  0.1966450E-05 -0.1571745E+01  0.1865561E-08  0.1966449E-05
 -0.9905930E+01  0.1970410E+01 -0.1027320E+00  0.2535042E-04 -0.1570843E+01  0.1177514E-08  0.2535042E-04
 -0.1005140E+02  0.9899730E+00 -0.1027320E+00  0.2330416E-05 -0.1571679E+01  0.2056587E-08  0.2330415E-05
 -0.1010000E+02 -0.8829700E-06 -0.1027320E+00  0.3750127E-08  0.2369615E+01  0.2687088E-08 -0.2615915E-08
 -0.1005140E+02 -0.9899740E+00 -0.1027320E+00  0.2335802E-05  0.1572219E+01  0.3323406E-08 -0.2335799E-05
 -0.9905930E+01 -0.1970410E+01 -0.1027320E+00  0.2535599E-04  0.1570962E+01  0.4207798E-08 -0.2535599E-04
 -0.9665100E+01 -0.2931880E+01 -0.1027320E+00  0.1972444E-05  0.1572574E+01  0.3507398E-08 -0.1972441E-05
 -0.9331180E+01 -0.3865100E+01 -0.1027320E+00  0.2816402E-05  0.1572079E+01  0.3611803E-08 -0.2816400E-05
 -0.8907400E+01 -0.4761110E+01 -0.1027320E+00  0.5277455E-05  0.1571323E+01  0.2777934E-08 -0.5277454E-05
 -0.8397840E+01 -0.5611260E+01 -0.1027320E+00  0.1437717E-04 -0.1570912E+01  0.1661126E-08  0.1437717E-04
 -0.7807400E+01 -0.6407370E+01 -0.1027320E+00  0.1154758E-04  0.1570990E+01  0.2236532E-08 -0.1154758E-04
 -0.7141780E+01 -0.7141780E+01 -0.1027320E+00  0.5064774E-08  0.2131123E+01  0.2691741E-08 -0.4290276E-08
 -0.6407370E+01 -0.7807410E+01 -0.1027320E+00  0.1153884E-04 -0.1571069E+01  0.3144617E-08  0.1153884E-04
 -0.5611260E+01 -0.8397850E+01 -0.1027320E+00  0.1438479E-04  0.1571056E+01  0.3735305E-08 -0.1438479E-04
 -0.4761110E+01 -0.8907410E+01 -0.1027320E+00  0.5270211E-05 -0.1571291E+01  0.2609689E-08  0.5270211E-05
 -0.3865100E+01 -0.9331190E+01 -0.1027320E+00  0.2809738E-05 -0.1571429E+01  0.1778096E-08  0.2809737E-05
 -0.2931870E+01 -0.9665100E+01 -0.1027320E+00  0.1966561E-05 -0.1571741E+01  0.1858246E-08  0.1966560E-05
 -0.1970410E+01 -0.9905930E+01 -0.1027320E+00  0.2535038E-04 -0.1570843E+01  0.1185018E-08  0.2535038E-04
 -0.9899710E+00 -0.1005140E+02 -0.1027320E+00  0.2330341E-05 -0.1571681E+01  0.2061225E-08  0.2330341E-05
  0.1204410E-06 -0.1010000E+02 -0.1027320E+00  0.3783888E-08  0.2363381E+01  0.2694772E-08 -0.2656316E-08
  0.9899760E+00 -0.1005140E+02 -0.1027320E+00  0.2335907E-05  0.1572223E+01  0.3332797E-08 -0.2335905E-05
  0.1970410E+01 -0.9905930E+01 -0.1027320E+00  0.2535599E-04  0.1570962E+01  0.4211308E-08 -0.2535599E-04
  0.2931880E+01 -0.9665100E+01 -0.1027320E+00  0.1972453E-05  0.1572576E+01  0.3510553E-08 -0.1972450E-05
  0.3865100E+01 -0.9331180E+01 -0.1027320E+00  0.2816419E-05  0.1572078E+01  0.3608996E-08 -0.2816417E-05
  0.4761110E+01 -0.8907410E+01 -0.1027320E+00  0.5277450E-05  0.1571323E+01  0.2777185E-08 -0.5277449E-05
  0.5611260E+01 -0.8397840E+01 -0.1027320E+00  0.1437712E-04 -0.1570912E+01  0.1662914E-08  0.1437712E-04
  0.6407370E+01 -0.7807410E+01 -0.1027320E+00  0.1154723E-04  0.1570990E+01  0.2237144E-08 -0.1154723E-04
  0.7141780E+01 -0.7141780E+01 -0.1027320E+00  0.5083417E-08  0.2128548E+01  0.2690550E-08 -0.4313011E-08
  0.7807410E+01 -0.6407370E+01 -0.1027320E+00  0.1153882E-04 -0.1571069E+01  0.3147610E-08  0.1153882E-04
  0.8397840E+01 -0.5611260E+01 -0.1027320E+00  0.1438503E-04  0.1571055E+01  0.3726213E-08 -0.1438503E-04
