 VARIABLES="X" "Y" "Z" "abs(eta) (m)" "angle(phi) (rad)" "PRE1" "PRE2"
ZONE N=   3200 ,E =    3136 ,F=FEPOINT,ET=QUADRILATERAL
  0.1010000E+02  0.0000000E+00  0.0000000E+00  0.2154743E+00  0.2773547E+01  0.2010445E+00 -0.7752599E-01
  0.1005140E+02  0.9899730E+00  0.0000000E+00  0.1746967E+00  0.2912501E+01  0.1701324E+00 -0.3967240E-01
  0.9905930E+01  0.1970410E+01  0.0000000E+00  0.1396870E+00 -0.3126503E+01  0.1396711E+00  0.2107674E-02
  0.9665100E+01  0.2931880E+01  0.0000000E+00  0.1202758E+00 -0.2742685E+01  0.1108325E+00  0.4671658E-01
  0.9331180E+01  0.3865100E+01  0.0000000E+00  0.1259658E+00 -0.2309994E+01  0.8486249E-01  0.9308990E-01
  0.8907400E+01  0.4761110E+01  0.0000000E+00  0.1538959E+00 -0.1983518E+01  0.6172819E-01  0.1409737E+00
  0.8397840E+01  0.5611260E+01  0.0000000E+00  0.1952392E+00 -0.1787100E+01  0.4190239E-01  0.1906896E+00
  0.7807410E+01  0.6407370E+01  0.0000000E+00  0.2421301E+00 -0.1677202E+01  0.2571554E-01  0.2407607E+00
  0.7141780E+01  0.7141780E+01  0.0000000E+00  0.2900509E+00 -0.1617594E+01  0.1356879E-01  0.2897333E+00
  0.6407370E+01  0.7807410E+01  0.0000000E+00  0.3377940E+00 -0.1585848E+01  0.5084225E-02  0.3377557E+00
  0.5611260E+01  0.8397840E+01  0.0000000E+00  0.3846727E+00 -0.1572210E+01  0.5437766E-03  0.3846723E+00
  0.4761110E+01  0.8907410E+01  0.0000000E+00  0.4293048E+00 -0.1569184E+01 -0.6921346E-03  0.4293042E+00
  0.3865100E+01  0.9331180E+01  0.0000000E+00  0.4703865E+00 -0.1572569E+01  0.8337125E-03  0.4703858E+00
  0.2931870E+01  0.9665100E+01  0.0000000E+00  0.5086106E+00 -0.1580061E+01  0.4712230E-02  0.5085888E+00
  0.1970410E+01  0.9905930E+01  0.0000000E+00  0.5436258E+00 -0.1590816E+01  0.1088237E-01  0.5435168E+00
  0.9899730E+00  0.1005140E+02  0.0000000E+00  0.5749429E+00 -0.1602610E+01  0.1828824E-01  0.5746520E+00
 -0.4414850E-06  0.1010000E+02  0.0000000E+00  0.6018785E+00 -0.1613953E+01  0.2596678E-01  0.6013181E+00
 -0.9899740E+00  0.1005140E+02  0.0000000E+00  0.6253839E+00 -0.1624841E+01  0.3378205E-01  0.6244708E+00
 -0.1970410E+01  0.9905930E+01  0.0000000E+00  0.6449329E+00 -0.1635066E+01  0.4142133E-01  0.6436014E+00
 -0.2931880E+01  0.9665100E+01  0.0000000E+00  0.6604958E+00 -0.1643739E+01  0.4813537E-01  0.6587394E+00
 -0.3865100E+01  0.9331180E+01  0.0000000E+00  0.6716907E+00 -0.1650064E+01  0.5318754E-01  0.6695816E+00
 -0.4761110E+01  0.8907400E+01  0.0000000E+00  0.6794502E+00 -0.1654454E+01  0.5677466E-01  0.6770740E+00
 -0.5611260E+01  0.8397840E+01  0.0000000E+00  0.6830358E+00 -0.1656570E+01  0.5851446E-01  0.6805248E+00
 -0.6407370E+01  0.7807410E+01  0.0000000E+00  0.6826343E+00 -0.1656382E+01  0.5835257E-01  0.6801357E+00
 -0.7141780E+01  0.7141780E+01  0.0000000E+00  0.6780348E+00 -0.1653771E+01  0.5619529E-01  0.6757021E+00
 -0.7807410E+01  0.6407370E+01  0.0000000E+00  0.6700019E+00 -0.1649103E+01  0.5241229E-01  0.6679487E+00
 -0.8397840E+01  0.5611260E+01  0.0000000E+00  0.6576430E+00 -0.1641958E+01  0.4675950E-01  0.6559786E+00
 -0.8907410E+01  0.4761110E+01  0.0000000E+00  0.6412856E+00 -0.1632998E+01  0.3986329E-01  0.6400454E+00
 -0.9331180E+01  0.3865100E+01  0.0000000E+00  0.6209058E+00 -0.1622926E+01  0.3235283E-01  0.6200624E+00
 -0.9665100E+01  0.2931880E+01  0.0000000E+00  0.5970789E+00 -0.1611962E+01  0.2457198E-01  0.5965731E+00
 -0.9905930E+01  0.1970410E+01  0.0000000E+00  0.5688285E+00 -0.1599952E+01  0.1658200E-01  0.5685867E+00
 -0.1005140E+02  0.9899730E+00  0.0000000E+00  0.5367765E+00 -0.1588223E+01  0.9353631E-02  0.5366950E+00
 -0.1010000E+02 -0.8829700E-06  0.0000000E+00  0.5012858E+00 -0.1578633E+01  0.3928546E-02  0.5012704E+00
 -0.1005140E+02 -0.9899740E+00  0.0000000E+00  0.4627330E+00 -0.1571731E+01  0.4323307E-03  0.4627328E+00
 -0.9905930E+01 -0.1970410E+01  0.0000000E+00  0.4203401E+00 -0.1568981E+01 -0.7629236E-03  0.4203394E+00
 -0.9665100E+01 -0.2931880E+01  0.0000000E+00  0.3752292E+00 -0.1573522E+01  0.1022900E-02  0.3752278E+00
 -0.9331180E+01 -0.3865100E+01  0.0000000E+00  0.3285462E+00 -0.1590807E+01  0.6573853E-02  0.3284804E+00
 -0.8907400E+01 -0.4761110E+01  0.0000000E+00  0.2807498E+00 -0.1626647E+01  0.1567193E-01  0.2803120E+00
 -0.8397840E+01 -0.5611260E+01  0.0000000E+00  0.2322432E+00 -0.1694838E+01  0.2873405E-01  0.2304588E+00
 -0.7807400E+01 -0.6407370E+01  0.0000000E+00  0.1860736E+00 -0.1818157E+01  0.4555929E-01  0.1804099E+00
 -0.7141780E+01 -0.7141780E+01  0.0000000E+00  0.1472476E+00 -0.2035811E+01  0.6603113E-01  0.1316122E+00
 -0.6407370E+01 -0.7807410E+01  0.0000000E+00  0.1227882E+00 -0.2389747E+01  0.8968812E-01  0.8386292E-01
 -0.5611260E+01 -0.8397850E+01  0.0000000E+00  0.1224800E+00 -0.2831621E+01  0.1166429E+00  0.3736032E-01
 -0.4761110E+01 -0.8907410E+01  0.0000000E+00  0.1459396E+00  0.3095446E+01  0.1457842E+00 -0.6732184E-02
 -0.3865100E+01 -0.9331190E+01  0.0000000E+00  0.1822689E+00  0.2879746E+01  0.1760560E+00 -0.4718290E-01
 -0.2931870E+01 -0.9665100E+01  0.0000000E+00  0.2237505E+00  0.2753247E+01  0.2070892E+00 -0.8472495E-01
 -0.1970410E+01 -0.9905930E+01  0.0000000E+00  0.2665741E+00  0.2679123E+01  0.2385714E+00 -0.1189345E+00
 -0.9899710E+00 -0.1005140E+02  0.0000000E+00  0.3077451E+00  0.2634974E+01  0.2690892E+00 -0.1493253E+00
  0.1204410E-06 -0.1010000E+02  0.0000000E+00  0.3450867E+00  0.2608865E+01  0.2972664E+00 -0.1752643E+00
  0.9899760E+00 -0.1005140E+02  0.0000000E+00  0.3788330E+00  0.2592356E+01  0.3231155E+00 -0.1977644E+00
  0.1970410E+01 -0.9905930E+01  0.0000000E+00  0.4080676E+00  0.2582930E+01  0.3460269E+00 -0.2162974E+00
  0.2931880E+01 -0.9665100E+01  0.0000000E+00  0.4319755E+00  0.2577603E+01  0.3650751E+00 -0.2309178E+00
  0.3865100E+01 -0.9331180E+01  0.0000000E+00  0.4495428E+00  0.2574849E+01  0.3792585E+00 -0.2413538E+00
  0.4761110E+01 -0.8907410E+01  0.0000000E+00  0.4616628E+00  0.2572969E+01  0.3890168E+00 -0.2485930E+00
  0.5611260E+01 -0.8397840E+01  0.0000000E+00  0.4673748E+00  0.2572326E+01  0.3936682E+00 -0.2519218E+00
  0.6407370E+01 -0.7807410E+01  0.0000000E+00  0.4667604E+00  0.2572455E+01  0.3931831E+00 -0.2515399E+00
  0.7141780E+01 -0.7141780E+01  0.0000000E+00  0.4595800E+00  0.2573541E+01  0.3874033E+00 -0.2472498E+00
  0.7807410E+01 -0.6407370E+01  0.0000000E+00  0.4467938E+00  0.2575053E+01  0.3769881E+00 -0.2398012E+00
  0.8397840E+01 -0.5611260E+01  0.0000000E+00  0.4274848E+00  0.2578317E+01  0.3614430E+00 -0.2282592E+00
  0.8907410E+01 -0.4761110E+01  0.0000000E+00  0.4025024E+00  0.2584383E+01  0.3416174E+00 -0.2128513E+00
  0.9331180E+01 -0.3865100E+01  0.0000000E+00  0.3724663E+00  0.2595418E+01  0.3182791E+00 -0.1934672E+00
  0.9665100E+01 -0.2931870E+01  0.0000000E+00  0.3382837E+00  0.2612765E+01  0.2920739E+00 -0.1706713E+00
  0.9905930E+01 -0.1970410E+01  0.0000000E+00  0.2994661E+00  0.2642181E+01  0.2628906E+00 -0.1434170E+00
  0.1005140E+02 -0.9899690E+00  0.0000000E+00  0.2578146E+00  0.2691098E+01  0.2320929E+00 -0.1122552E+00
  0.1010000E+02  0.0000000E+00 -0.2568960E-01  0.2151605E+00  0.2773373E+01  0.2007382E+00 -0.7744816E-01
  0.1005140E+02  0.9899730E+00 -0.2568960E-01  0.1744395E+00  0.2912220E+01  0.1698708E+00 -0.3966179E-01
  0.9905930E+01  0.1970410E+01 -0.2568960E-01  0.1394763E+00 -0.3126523E+01  0.1394605E+00  0.2101856E-02
  0.9665100E+01  0.2931880E+01 -0.2568960E-01  0.1200689E+00 -0.2743002E+01  0.1106566E+00  0.4660117E-01
  0.9331180E+01  0.3865100E+01 -0.2568960E-01  0.1257459E+00 -0.2310148E+01  0.8472867E-01  0.9291436E-01
  0.8907400E+01  0.4761110E+01 -0.2568960E-01  0.1536255E+00 -0.1983541E+01  0.6162298E-01  0.1407246E+00
  0.8397840E+01  0.5611260E+01 -0.2568960E-01  0.1949211E+00 -0.1787193E+01  0.4185189E-01  0.1903750E+00
  0.7807410E+01  0.6407370E+01 -0.2568960E-01  0.2417337E+00 -0.1677172E+01  0.2566600E-01  0.2403673E+00
  0.7141780E+01  0.7141780E+01 -0.2568960E-01  0.2895845E+00 -0.1617589E+01  0.1354539E-01  0.2892675E+00
  0.6407370E+01  0.7807410E+01 -0.2568960E-01  0.3372634E+00 -0.1585827E+01  0.5069112E-02  0.3372253E+00
  0.5611260E+01  0.8397840E+01 -0.2568960E-01  0.3840409E+00 -0.1572253E+01  0.5592162E-03  0.3840405E+00
  0.4761110E+01  0.8907410E+01 -0.2568960E-01  0.4286407E+00 -0.1569180E+01 -0.6928230E-03  0.4286401E+00
  0.3865100E+01  0.9331180E+01 -0.2568960E-01  0.4696526E+00 -0.1572581E+01  0.8380053E-03  0.4696518E+00
  0.2931870E+01  0.9665100E+01 -0.2568960E-01  0.5078324E+00 -0.1580074E+01  0.4711509E-02  0.5078105E+00
  0.1970410E+01  0.9905930E+01 -0.2568960E-01  0.5427338E+00 -0.1590845E+01  0.1088021E-01  0.5426248E+00
  0.9899730E+00  0.1005140E+02 -0.2568960E-01  0.5740672E+00 -0.1602635E+01  0.1827426E-01  0.5737763E+00
 -0.4414850E-06  0.1010000E+02 -0.2568960E-01  0.6009477E+00 -0.1613981E+01  0.2594369E-01  0.6003875E+00
 -0.9899740E+00  0.1005140E+02 -0.2568960E-01  0.6244337E+00 -0.1624876E+01  0.3375268E-01  0.6235208E+00
 -0.1970410E+01  0.9905930E+01 -0.2568960E-01  0.6438747E+00 -0.1635088E+01  0.4136717E-01  0.6425444E+00
 -0.2931880E+01  0.9665100E+01 -0.2568960E-01  0.6594936E+00 -0.1643780E+01  0.4808922E-01  0.6577379E+00
 -0.3865100E+01  0.9331180E+01 -0.2568960E-01  0.6706544E+00 -0.1650101E+01  0.5313039E-01  0.6685466E+00
 -0.4761110E+01  0.8907400E+01 -0.2568960E-01  0.6784192E+00 -0.1654499E+01  0.5671920E-01  0.6760440E+00
 -0.5611260E+01  0.8397840E+01 -0.2568960E-01  0.6819155E+00 -0.1656589E+01  0.5843177E-01  0.6794074E+00
 -0.6407370E+01  0.7807410E+01 -0.2568960E-01  0.6815984E+00 -0.1656428E+01  0.5829525E-01  0.6791009E+00
 -0.7141780E+01  0.7141780E+01 -0.2568960E-01  0.6769893E+00 -0.1653809E+01  0.5613436E-01  0.6746581E+00
 -0.7807410E+01  0.6407370E+01 -0.2568960E-01  0.6689851E+00 -0.1649146E+01  0.5236129E-01  0.6669328E+00
 -0.8397840E+01  0.5611260E+01 -0.2568960E-01  0.6565640E+00 -0.1641979E+01  0.4669644E-01  0.6549013E+00
 -0.8907410E+01  0.4761110E+01 -0.2568960E-01  0.6403124E+00 -0.1633036E+01  0.3982725E-01  0.6390726E+00
 -0.9331180E+01  0.3865100E+01 -0.2568960E-01  0.6199471E+00 -0.1622957E+01  0.3232194E-01  0.6191039E+00
 -0.9665100E+01  0.2931880E+01 -0.2568960E-01  0.5961707E+00 -0.1611990E+01  0.2455177E-01  0.5956649E+00
 -0.9905930E+01  0.1970410E+01 -0.2568960E-01  0.5678945E+00 -0.1599978E+01  0.1656977E-01  0.5676528E+00
 -0.1005140E+02  0.9899730E+00 -0.2568960E-01  0.5359569E+00 -0.1588241E+01  0.9349340E-02  0.5358754E+00
 -0.1010000E+02 -0.8829700E-06 -0.2568960E-01  0.5005064E+00 -0.1578650E+01  0.3930639E-02  0.5004910E+00
 -0.1005140E+02 -0.9899740E+00 -0.2568960E-01  0.4620200E+00 -0.1571733E+01  0.4327128E-03  0.4620198E+00
 -0.9905930E+01 -0.1970410E+01 -0.2568960E-01  0.4196501E+00 -0.1569020E+01 -0.7453557E-03  0.4196495E+00
 -0.9665100E+01 -0.2931880E+01 -0.2568960E-01  0.3746443E+00 -0.1573510E+01  0.1016553E-02  0.3746429E+00
 -0.9331180E+01 -0.3865100E+01 -0.2568960E-01  0.3280227E+00 -0.1590804E+01  0.6562495E-02  0.3279570E+00
 -0.8907400E+01 -0.4761110E+01 -0.2568960E-01  0.2802987E+00 -0.1626618E+01  0.1563851E-01  0.2798621E+00
 -0.8397840E+01 -0.5611260E+01 -0.2568960E-01  0.2318629E+00 -0.1694916E+01  0.2870487E-01  0.2300792E+00
 -0.7807400E+01 -0.6407370E+01 -0.2568960E-01  0.1857576E+00 -0.1818141E+01  0.4547906E-01  0.1801042E+00
 -0.7141780E+01 -0.7141780E+01 -0.2568960E-01  0.1469927E+00 -0.2035878E+01  0.6592565E-01  0.1313799E+00
 -0.6407370E+01 -0.7807410E+01 -0.2568960E-01  0.1225668E+00 -0.2389943E+01  0.8954277E-01  0.8369412E-01
 -0.5611260E+01 -0.8397850E+01 -0.2568960E-01  0.1222958E+00 -0.2831684E+01  0.1164698E+00  0.3729678E-01
 -0.4761110E+01 -0.8907410E+01 -0.2568960E-01  0.1457144E+00  0.3095120E+01  0.1455571E+00 -0.6769277E-02
 -0.3865100E+01 -0.9331190E+01 -0.2568960E-01  0.1820007E+00  0.2879536E+01  0.1757870E+00 -0.4715053E-01
 -0.2931870E+01 -0.9665100E+01 -0.2568960E-01  0.2234323E+00  0.2753027E+01  0.2067763E+00 -0.8464980E-01
 -0.1970410E+01 -0.9905930E+01 -0.2568960E-01  0.2661538E+00  0.2679146E+01  0.2381979E+00 -0.1187416E+00
 -0.9899710E+00 -0.1005140E+02 -0.2568960E-01  0.3073113E+00  0.2634826E+01  0.2686880E+00 -0.1491543E+00
  0.1204410E-06 -0.1010000E+02 -0.2568960E-01  0.3445877E+00  0.2608769E+01  0.2968197E+00 -0.1750394E+00
  0.9899760E+00 -0.1005140E+02 -0.2568960E-01  0.3783001E+00  0.2592246E+01  0.3226393E+00 -0.1975218E+00
  0.1970410E+01 -0.9905930E+01 -0.2568960E-01  0.4074143E+00  0.2582949E+01  0.3454771E+00 -0.2159444E+00
  0.2931880E+01 -0.9665100E+01 -0.2568960E-01  0.4313660E+00  0.2577513E+01  0.3645393E+00 -0.2306246E+00
  0.3865100E+01 -0.9331180E+01 -0.2568960E-01  0.4488899E+00  0.2574785E+01  0.3786922E+00 -0.2410277E+00
  0.4761110E+01 -0.8907410E+01 -0.2568960E-01  0.4610114E+00  0.2572889E+01  0.3884481E+00 -0.2482731E+00
  0.5611260E+01 -0.8397840E+01 -0.2568960E-01  0.4666233E+00  0.2572343E+01  0.3930394E+00 -0.2515102E+00
  0.6407370E+01 -0.7807410E+01 -0.2568960E-01  0.4661016E+00  0.2572377E+01  0.3926086E+00 -0.2512152E+00
  0.7141780E+01 -0.7141780E+01 -0.2568960E-01  0.4589122E+00  0.2573478E+01  0.3868250E+00 -0.2469147E+00
  0.7807410E+01 -0.6407370E+01 -0.2568960E-01  0.4461629E+00  0.2574968E+01  0.3764355E+00 -0.2394946E+00
  0.8397840E+01 -0.5611260E+01 -0.2568960E-01  0.4267997E+00  0.2578336E+01  0.3608680E+00 -0.2278866E+00
  0.8907410E+01 -0.4761110E+01 -0.2568960E-01  0.4019360E+00  0.2584283E+01  0.3411155E+00 -0.2125859E+00
  0.9331180E+01 -0.3865100E+01 -0.2568960E-01  0.3719268E+00  0.2595332E+01  0.3178014E+00 -0.1932145E+00
  0.9665100E+01 -0.2931870E+01 -0.2568960E-01  0.3378070E+00  0.2612636E+01  0.2916403E+00 -0.1704684E+00
  0.9905930E+01 -0.1970410E+01 -0.2568960E-01  0.2989916E+00  0.2642203E+01  0.2624773E+00 -0.1431840E+00
  0.1005140E+02 -0.9899690E+00 -0.2568960E-01  0.2574507E+00  0.2690913E+01  0.2317447E+00 -0.1121396E+00
  0.1010000E+02  0.0000000E+00 -0.1027320E+00  0.2142216E+00  0.2772682E+01  0.1998089E+00 -0.7724830E-01
  0.1005140E+02  0.9899730E+00 -0.1027320E+00  0.1736376E+00  0.2911656E+01  0.1690676E+00 -0.3957474E-01
  0.9905930E+01  0.1970410E+01 -0.1027320E+00  0.1388130E+00 -0.3126995E+01  0.1387983E+00  0.2026218E-02
  0.9665100E+01  0.2931880E+01 -0.1027320E+00  0.1194577E+00 -0.2743656E+01  0.1101236E+00  0.4629185E-01
  0.9331180E+01  0.3865100E+01 -0.1027320E+00  0.1250572E+00 -0.2310473E+01  0.8429464E-01  0.9237807E-01
  0.8907400E+01  0.4761110E+01 -0.1027320E+00  0.1528381E+00 -0.1983543E+01  0.6130752E-01  0.1400031E+00
  0.8397840E+01  0.5611260E+01 -0.1027320E+00  0.1939538E+00 -0.1787180E+01  0.4164166E-01  0.1894308E+00
  0.7807410E+01  0.6407370E+01 -0.1027320E+00  0.2405471E+00 -0.1677087E+01  0.2551969E-01  0.2391896E+00
  0.7141780E+01  0.7141780E+01 -0.1027320E+00  0.2882015E+00 -0.1617433E+01  0.1343577E-01  0.2878881E+00
  0.6407370E+01  0.7807410E+01 -0.1027320E+00  0.3356614E+00 -0.1585772E+01  0.5026428E-02  0.3356237E+00
  0.5611260E+01  0.8397840E+01 -0.1027320E+00  0.3822034E+00 -0.1572245E+01  0.5535588E-03  0.3822030E+00
  0.4761110E+01  0.8907410E+01 -0.1027320E+00  0.4266196E+00 -0.1569156E+01 -0.6998376E-03  0.4266190E+00
  0.3865100E+01  0.9331180E+01 -0.1027320E+00  0.4674960E+00 -0.1572555E+01  0.8219918E-03  0.4674953E+00
  0.2931870E+01  0.9665100E+01 -0.1027320E+00  0.5054623E+00 -0.1580096E+01  0.4700486E-02  0.5054404E+00
  0.1970410E+01  0.9905930E+01 -0.1027320E+00  0.5401612E+00 -0.1590882E+01  0.1084852E-01  0.5400522E+00
  0.9899730E+00  0.1005140E+02 -0.1027320E+00  0.5713910E+00 -0.1602675E+01  0.1821190E-01  0.5711007E+00
 -0.4414850E-06  0.1010000E+02 -0.1027320E+00  0.5982180E+00 -0.1614044E+01  0.2586329E-01  0.5976587E+00
 -0.9899740E+00  0.1005140E+02 -0.1027320E+00  0.6215335E+00 -0.1624947E+01  0.3364005E-01  0.6206224E+00
 -0.1970410E+01  0.9905930E+01 -0.1027320E+00  0.6408315E+00 -0.1635155E+01  0.4121458E-01  0.6395048E+00
 -0.2931880E+01  0.9665100E+01 -0.1027320E+00  0.6564313E+00 -0.1643859E+01  0.4791810E-01  0.6546800E+00
 -0.3865100E+01  0.9331180E+01 -0.1027320E+00  0.6676195E+00 -0.1650209E+01  0.5296196E-01  0.6655154E+00
 -0.4761110E+01  0.8907400E+01 -0.1027320E+00  0.6752730E+00 -0.1654591E+01  0.5651793E-01  0.6729037E+00
 -0.5611260E+01  0.8397840E+01 -0.1027320E+00  0.6786950E+00 -0.1656667E+01  0.5820875E-01  0.6761942E+00
 -0.6407370E+01  0.7807410E+01 -0.1027320E+00  0.6784381E+00 -0.1656520E+01  0.5808720E-01  0.6759468E+00
 -0.7141780E+01  0.7141780E+01 -0.1027320E+00  0.6739255E+00 -0.1653922E+01  0.5595572E-01  0.6715985E+00
 -0.7807410E+01  0.6407370E+01 -0.1027320E+00  0.6658806E+00 -0.1649230E+01  0.5217413E-01  0.6638334E+00
 -0.8397840E+01  0.5611260E+01 -0.1027320E+00  0.6534606E+00 -0.1642050E+01  0.4652180E-01  0.6518025E+00
 -0.8907410E+01  0.4761110E+01 -0.1027320E+00  0.6373398E+00 -0.1633113E+01  0.3969145E-01  0.6361027E+00
 -0.9331180E+01  0.3865100E+01 -0.1027320E+00  0.6171331E+00 -0.1623031E+01  0.3222139E-01  0.6162914E+00
 -0.9665100E+01  0.2931880E+01 -0.1027320E+00  0.5933949E+00 -0.1612041E+01  0.2446733E-01  0.5928903E+00
 -0.9905930E+01  0.1970410E+01 -0.1027320E+00  0.5652045E+00 -0.1600022E+01  0.1651636E-01  0.5649631E+00
 -0.1005140E+02  0.9899730E+00 -0.1027320E+00  0.5334584E+00 -0.1588275E+01  0.9323426E-02  0.5333769E+00
 -0.1010000E+02 -0.8829700E-06 -0.1027320E+00  0.4982142E+00 -0.1578645E+01  0.3910272E-02  0.4981989E+00
 -0.1005140E+02 -0.9899740E+00 -0.1027320E+00  0.4598489E+00 -0.1571724E+01  0.4264075E-03  0.4598487E+00
 -0.9905930E+01 -0.1970410E+01 -0.1027320E+00  0.4176479E+00 -0.1569022E+01 -0.7409690E-03  0.4176473E+00
 -0.9665100E+01 -0.2931880E+01 -0.1027320E+00  0.3728748E+00 -0.1573470E+01  0.9968162E-03  0.3728735E+00
 -0.9331180E+01 -0.3865100E+01 -0.1027320E+00  0.3264762E+00 -0.1590675E+01  0.6489612E-02  0.3264117E+00
 -0.8907400E+01 -0.4761110E+01 -0.1027320E+00  0.2789408E+00 -0.1626537E+01  0.1554033E-01  0.2785076E+00
 -0.8397840E+01 -0.5611260E+01 -0.1027320E+00  0.2307260E+00 -0.1694884E+01  0.2855690E-01  0.2289519E+00
 -0.7807400E+01 -0.6407370E+01 -0.1027320E+00  0.1848284E+00 -0.1818066E+01  0.4523807E-01  0.1792067E+00
 -0.7141780E+01 -0.7141780E+01 -0.1027320E+00  0.1462080E+00 -0.2035882E+01  0.6557424E-01  0.1306783E+00
 -0.6407370E+01 -0.7807410E+01 -0.1027320E+00  0.1219214E+00 -0.2390340E+01  0.8910437E-01  0.8321810E-01
 -0.5611260E+01 -0.8397850E+01 -0.1027320E+00  0.1216932E+00 -0.2832155E+01  0.1159134E+00  0.3705836E-01
 -0.4761110E+01 -0.8907410E+01 -0.1027320E+00  0.1450232E+00  0.3094479E+01  0.1448623E+00 -0.6830057E-02
 -0.3865100E+01 -0.9331190E+01 -0.1027320E+00  0.1811867E+00  0.2878721E+01  0.1749625E+00 -0.4708228E-01
 -0.2931870E+01 -0.9665100E+01 -0.1027320E+00  0.2224378E+00  0.2752571E+01  0.2058173E+00 -0.8436701E-01
 -0.1970410E+01 -0.9905930E+01 -0.1027320E+00  0.2649427E+00  0.2678912E+01  0.2370864E+00 -0.1182569E+00
 -0.9899710E+00 -0.1005140E+02 -0.1027320E+00  0.3059459E+00  0.2634521E+01  0.2674489E+00 -0.1485731E+00
  0.1204410E-06 -0.1010000E+02 -0.1027320E+00  0.3431212E+00  0.2608373E+01  0.2954874E+00 -0.1744114E+00
  0.9899760E+00 -0.1005140E+02 -0.1027320E+00  0.3766312E+00  0.2592017E+01  0.3211708E+00 -0.1967240E+00
  0.1970410E+01 -0.9905930E+01 -0.1027320E+00  0.4055615E+00  0.2582825E+01  0.3438793E+00 -0.2150052E+00
  0.2931880E+01 -0.9665100E+01 -0.1027320E+00  0.4294563E+00  0.2577323E+01  0.3628817E+00 -0.2296728E+00
  0.3865100E+01 -0.9331180E+01 -0.1027320E+00  0.4469841E+00  0.2574514E+01  0.3770195E+00 -0.2401064E+00
  0.4761110E+01 -0.8907410E+01 -0.1027320E+00  0.4589736E+00  0.2572720E+01  0.3866892E+00 -0.2472412E+00
  0.5611260E+01 -0.8397840E+01 -0.1027320E+00  0.4644999E+00  0.2572247E+01  0.3912268E+00 -0.2504032E+00
  0.6407370E+01 -0.7807410E+01 -0.1027320E+00  0.4640405E+00  0.2572211E+01  0.3908309E+00 -0.2501696E+00
  0.7141780E+01 -0.7141780E+01 -0.1027320E+00  0.4569634E+00  0.2573218E+01  0.3851182E+00 -0.2459664E+00
  0.7807410E+01 -0.6407370E+01 -0.1027320E+00  0.4441885E+00  0.2574788E+01  0.3747267E+00 -0.2385023E+00
  0.8397840E+01 -0.5611260E+01 -0.1027320E+00  0.4248581E+00  0.2578221E+01  0.3592003E+00 -0.2268911E+00
