 VARIABLES="X" "Y" "Z" "abs(eta) (m)" "angle(phi) (rad)" "PRE1" "PRE2"
ZONE N=   3200 ,E =    3136 ,F=FEPOINT,ET=QUADRILATERAL
  0.1010000E+02  0.0000000E+00  0.0000000E+00  0.1013595E+00 -0.2812506E+01  0.9592031E-01  0.3275724E-01
  0.1005140E+02  0.9899730E+00  0.0000000E+00  0.1140987E+00  0.3087854E+01  0.1139340E+00 -0.6128593E-02
  0.9905930E+01  0.1970410E+01  0.0000000E+00  0.1403000E+00  0.2827698E+01  0.1334447E+00 -0.4331974E-01
  0.9665100E+01  0.2931880E+01  0.0000000E+00  0.1725694E+00  0.2671538E+01  0.1538531E+00 -0.7816278E-01
  0.9331180E+01  0.3865100E+01  0.0000000E+00  0.2062857E+00  0.2577784E+01  0.1743580E+00 -0.1102410E+00
  0.8907400E+01  0.4761110E+01  0.0000000E+00  0.2387423E+00  0.2522808E+01  0.1944757E+00 -0.1384814E+00
  0.8397840E+01  0.5611260E+01  0.0000000E+00  0.2695726E+00  0.2487982E+01  0.2140119E+00 -0.1639155E+00
  0.7807410E+01  0.6407370E+01  0.0000000E+00  0.2976466E+00  0.2465632E+01  0.2321960E+00 -0.1862217E+00
  0.7141780E+01  0.7141780E+01  0.0000000E+00  0.3222637E+00  0.2450778E+01  0.2483775E+00 -0.2053351E+00
  0.6407370E+01  0.7807410E+01  0.0000000E+00  0.3419243E+00  0.2442998E+01  0.2618274E+00 -0.2199061E+00
  0.5611260E+01  0.8397840E+01  0.0000000E+00  0.3576867E+00  0.2438125E+01  0.2727732E+00 -0.2313753E+00
  0.4761110E+01  0.8907410E+01  0.0000000E+00  0.3690901E+00  0.2434910E+01  0.2807004E+00 -0.2396555E+00
  0.3865100E+01  0.9331180E+01  0.0000000E+00  0.3760051E+00  0.2432669E+01  0.2854116E+00 -0.2447857E+00
  0.2931870E+01  0.9665100E+01  0.0000000E+00  0.3769237E+00  0.2433086E+01  0.2862111E+00 -0.2452645E+00
  0.1970410E+01  0.9905930E+01  0.0000000E+00  0.3732994E+00  0.2434094E+01  0.2837037E+00 -0.2426203E+00
  0.9899730E+00  0.1005140E+02  0.0000000E+00  0.3650868E+00  0.2435806E+01  0.2778680E+00 -0.2368074E+00
 -0.4414850E-06  0.1010000E+02  0.0000000E+00  0.3525860E+00  0.2438818E+01  0.2690413E+00 -0.2278896E+00
 -0.9899740E+00  0.1005140E+02  0.0000000E+00  0.3345174E+00  0.2446103E+01  0.2568224E+00 -0.2143458E+00
 -0.1970410E+01  0.9905930E+01  0.0000000E+00  0.3124039E+00  0.2456766E+01  0.2419658E+00 -0.1976076E+00
 -0.2931880E+01  0.9665100E+01  0.0000000E+00  0.2866563E+00  0.2473119E+01  0.2249588E+00 -0.1776665E+00
 -0.3865100E+01  0.9331180E+01  0.0000000E+00  0.2580522E+00  0.2498590E+01  0.2065189E+00 -0.1547284E+00
 -0.4761110E+01  0.8907400E+01  0.0000000E+00  0.2261009E+00  0.2542157E+01  0.1866811E+00 -0.1275608E+00
 -0.5611260E+01  0.8397840E+01  0.0000000E+00  0.1924876E+00  0.2611313E+01  0.1660524E+00 -0.9735540E-01
 -0.6407370E+01  0.7807410E+01  0.0000000E+00  0.1590414E+00  0.2724862E+01  0.1454302E+00 -0.6437563E-01
 -0.7141780E+01  0.7141780E+01  0.0000000E+00  0.1288690E+00  0.2913518E+01  0.1255318E+00 -0.2913760E-01
 -0.7807410E+01  0.6407370E+01  0.0000000E+00  0.1071054E+00 -0.3057322E+01  0.1067253E+00  0.9015147E-02
 -0.8397840E+01  0.5611260E+01  0.0000000E+00  0.1019260E+00 -0.2637739E+01  0.8925946E-01  0.4921026E-01
 -0.8907410E+01  0.4761110E+01  0.0000000E+00  0.1170289E+00 -0.2253084E+01  0.7379496E-01  0.9082985E-01
 -0.9331180E+01  0.3865100E+01  0.0000000E+00  0.1462324E+00 -0.1998466E+01  0.6065015E-01  0.1330619E+00
 -0.9665100E+01  0.2931880E+01  0.0000000E+00  0.1828945E+00 -0.1848937E+01  0.5021697E-01  0.1758654E+00
 -0.9905930E+01  0.1970410E+01  0.0000000E+00  0.2229534E+00 -0.1761804E+01  0.4232727E-01  0.2188986E+00
 -0.1005140E+02  0.9899730E+00  0.0000000E+00  0.2639417E+00 -0.1711966E+01  0.3713692E-01  0.2613160E+00
 -0.1010000E+02 -0.8829700E-06  0.0000000E+00  0.3043266E+00 -0.1684016E+01  0.3438203E-01  0.3023781E+00
 -0.1005140E+02 -0.9899740E+00  0.0000000E+00  0.3431456E+00 -0.1670660E+01  0.3421103E-01  0.3414360E+00
 -0.9905930E+01 -0.1970410E+01  0.0000000E+00  0.3805508E+00 -0.1666122E+01  0.3622127E-01  0.3788231E+00
 -0.9665100E+01 -0.2931880E+01  0.0000000E+00  0.4158046E+00 -0.1667217E+01  0.4003007E-01  0.4138733E+00
 -0.9331180E+01 -0.3865100E+01  0.0000000E+00  0.4484291E+00 -0.1671378E+01  0.4502794E-01  0.4461627E+00
 -0.8907400E+01 -0.4761110E+01  0.0000000E+00  0.4773888E+00 -0.1677920E+01  0.5104203E-01  0.4746522E+00
 -0.8397840E+01 -0.5611260E+01  0.0000000E+00  0.5036502E+00 -0.1685726E+01  0.5775678E-01  0.5003276E+00
 -0.7807400E+01 -0.6407370E+01  0.0000000E+00  0.5268238E+00 -0.1693667E+01  0.6456865E-01  0.5228519E+00
 -0.7141780E+01 -0.7141780E+01  0.0000000E+00  0.5467756E+00 -0.1700920E+01  0.7094808E-01  0.5421530E+00
 -0.6407370E+01 -0.7807410E+01  0.0000000E+00  0.5621454E+00 -0.1707345E+01  0.7652191E-01  0.5569128E+00
 -0.5611260E+01 -0.8397850E+01  0.0000000E+00  0.5743120E+00 -0.1712793E+01  0.8127657E-01  0.5685318E+00
 -0.4761110E+01 -0.8907410E+01  0.0000000E+00  0.5831070E+00 -0.1716721E+01  0.8478802E-01  0.5769097E+00
 -0.3865100E+01 -0.9331190E+01  0.0000000E+00  0.5885344E+00 -0.1718983E+01  0.8689418E-01  0.5820843E+00
 -0.2931870E+01 -0.9665100E+01  0.0000000E+00  0.5890868E+00 -0.1719444E+01  0.8724438E-01  0.5825905E+00
 -0.1970410E+01 -0.9905930E+01  0.0000000E+00  0.5862799E+00 -0.1718218E+01  0.8611770E-01  0.5799206E+00
 -0.9899710E+00 -0.1005140E+02  0.0000000E+00  0.5800649E+00 -0.1715237E+01  0.8349386E-01  0.5740244E+00
  0.1204410E-06 -0.1010000E+02  0.0000000E+00  0.5705605E+00 -0.1710864E+01  0.7965585E-01  0.5649727E+00
  0.9899760E+00 -0.1005140E+02  0.0000000E+00  0.5562968E+00 -0.1705086E+01  0.7448082E-01  0.5512882E+00
  0.1970410E+01 -0.9905930E+01  0.0000000E+00  0.5387236E+00 -0.1698042E+01  0.6836543E-01  0.5343681E+00
  0.2931880E+01 -0.9665100E+01  0.0000000E+00  0.5178970E+00 -0.1690239E+01  0.6171210E-01  0.5142070E+00
  0.3865100E+01 -0.9331180E+01  0.0000000E+00  0.4941080E+00 -0.1682532E+01  0.5509473E-01  0.4910267E+00
  0.4761110E+01 -0.8907410E+01  0.0000000E+00  0.4661934E+00 -0.1675499E+01  0.4872241E-01  0.4636404E+00
  0.5611260E+01 -0.8397840E+01  0.0000000E+00  0.4353224E+00 -0.1669433E+01  0.4286927E-01  0.4332064E+00
  0.6407370E+01 -0.7807410E+01  0.0000000E+00  0.4018125E+00 -0.1665918E+01  0.3816359E-01  0.3999960E+00
  0.7141780E+01 -0.7141780E+01  0.0000000E+00  0.3662280E+00 -0.1666849E+01  0.3512331E-01  0.3645398E+00
  0.7807410E+01 -0.6407370E+01  0.0000000E+00  0.3280110E+00 -0.1675120E+01  0.3415734E-01  0.3262276E+00
  0.8397840E+01 -0.5611260E+01  0.0000000E+00  0.2880604E+00 -0.1693467E+01  0.3524815E-01  0.2858957E+00
  0.8907410E+01 -0.4761110E+01  0.0000000E+00  0.2472360E+00 -0.1728562E+01  0.3884383E-01  0.2441656E+00
  0.9331180E+01 -0.3865100E+01  0.0000000E+00  0.2068188E+00 -0.1790259E+01  0.4502549E-01  0.2018581E+00
  0.9665100E+01 -0.2931870E+01  0.0000000E+00  0.1680017E+00 -0.1898589E+01  0.5408885E-01  0.1590565E+00
  0.9905930E+01 -0.1970410E+01  0.0000000E+00  0.1333762E+00 -0.2085998E+01  0.6571577E-01  0.1160631E+00
  0.1005140E+02 -0.9899690E+00  0.0000000E+00  0.1086549E+00 -0.2395943E+01  0.7982307E-01  0.7371685E-01
  0.1010000E+02  0.0000000E+00 -0.2568960E-01  0.1012103E+00 -0.2812825E+01  0.9578960E-01  0.3267846E-01
  0.1005140E+02  0.9899730E+00 -0.2568960E-01  0.1139516E+00  0.3087557E+01  0.1137853E+00 -0.6154496E-02
  0.9905930E+01  0.1970410E+01 -0.2568960E-01  0.1401185E+00  0.2827845E+01  0.1332784E+00 -0.4324411E-01
  0.9665100E+01  0.2931880E+01 -0.2568960E-01  0.1723684E+00  0.2671340E+01  0.1536585E+00 -0.7810219E-01
  0.9331180E+01  0.3865100E+01 -0.2568960E-01  0.2060573E+00  0.2577573E+01  0.1741417E+00 -0.1101556E+00
  0.8907400E+01  0.4761110E+01 -0.2568960E-01  0.2384694E+00  0.2522680E+01  0.1942356E+00 -0.1383481E+00
  0.8397840E+01  0.5611260E+01 -0.2568960E-01  0.2691950E+00  0.2488078E+01  0.2137278E+00 -0.1636653E+00
  0.7807410E+01  0.6407370E+01 -0.2568960E-01  0.2973064E+00  0.2465540E+01  0.2319134E+00 -0.1860302E+00
  0.7141780E+01  0.7141780E+01 -0.2568960E-01  0.3219107E+00  0.2450672E+01  0.2480837E+00 -0.2051365E+00
  0.6407370E+01  0.7807410E+01 -0.2568960E-01  0.3415322E+00  0.2442926E+01  0.2615113E+00 -0.2196727E+00
  0.5611260E+01  0.8397840E+01 -0.2568960E-01  0.3571795E+00  0.2438196E+01  0.2724029E+00 -0.2310278E+00
  0.4761110E+01  0.8907410E+01 -0.2568960E-01  0.3686662E+00  0.2434849E+01  0.2803634E+00 -0.2393974E+00
  0.3865100E+01  0.9331180E+01 -0.2568960E-01  0.3755918E+00  0.2432590E+01  0.2850785E+00 -0.2445391E+00
  0.2931870E+01  0.9665100E+01 -0.2568960E-01  0.3764908E+00  0.2433031E+01  0.2858689E+00 -0.2449986E+00
  0.1970410E+01  0.9905930E+01 -0.2568960E-01  0.3727693E+00  0.2434163E+01  0.2833177E+00 -0.2422561E+00
  0.9899730E+00  0.1005140E+02 -0.2568960E-01  0.3646681E+00  0.2435744E+01  0.2775347E+00 -0.2365529E+00
 -0.4414850E-06  0.1010000E+02 -0.2568960E-01  0.3521985E+00  0.2438729E+01  0.2687254E+00 -0.2276630E+00
 -0.9899740E+00  0.1005140E+02 -0.2568960E-01  0.3341342E+00  0.2446028E+01  0.2565122E+00 -0.2141194E+00
 -0.1970410E+01  0.9905930E+01 -0.2568960E-01  0.3119630E+00  0.2456847E+01  0.2416403E+00 -0.1973092E+00
 -0.2931880E+01  0.9665100E+01 -0.2568960E-01  0.2863291E+00  0.2473023E+01  0.2246851E+00 -0.1774851E+00
 -0.3865100E+01  0.9331180E+01 -0.2568960E-01  0.2577692E+00  0.2498440E+01  0.2062693E+00 -0.1545896E+00
 -0.4761110E+01  0.8907400E+01 -0.2568960E-01  0.2258414E+00  0.2542017E+01  0.1864490E+00 -0.1274406E+00
 -0.5611260E+01  0.8397840E+01 -0.2568960E-01  0.1922255E+00  0.2611442E+01  0.1658389E+00 -0.9720140E-01
 -0.6407370E+01  0.7807410E+01 -0.2568960E-01  0.1588549E+00  0.2724642E+01  0.1452456E+00 -0.6433215E-01
 -0.7141780E+01  0.7141780E+01 -0.2568960E-01  0.1287114E+00  0.2913171E+01  0.1253681E+00 -0.2914549E-01
 -0.7807410E+01  0.6407370E+01 -0.2568960E-01  0.1069617E+00 -0.3057619E+01  0.1065848E+00  0.8971392E-02
 -0.8397840E+01  0.5611260E+01 -0.2568960E-01  0.1018084E+00 -0.2637756E+01  0.8915737E-01  0.4915196E-01
 -0.8907410E+01  0.4761110E+01 -0.2568960E-01  0.1168556E+00 -0.2253171E+01  0.7369354E-01  0.9068897E-01
 -0.9331180E+01  0.3865100E+01 -0.2568960E-01  0.1460198E+00 -0.1998449E+01  0.6055969E-01  0.1328695E+00
 -0.9665100E+01  0.2931880E+01 -0.2568960E-01  0.1826433E+00 -0.1848916E+01  0.5014444E-01  0.1756249E+00
 -0.9905930E+01  0.1970410E+01 -0.2568960E-01  0.2226483E+00 -0.1761905E+01  0.4229150E-01  0.2185948E+00
 -0.1005140E+02  0.9899730E+00 -0.2568960E-01  0.2635957E+00 -0.1711946E+01  0.3708301E-01  0.2609743E+00
 -0.1010000E+02 -0.8829700E-06 -0.2568960E-01  0.3039393E+00 -0.1683986E+01  0.3432931E-01  0.3019944E+00
 -0.1005140E+02 -0.9899740E+00 -0.2568960E-01  0.3427066E+00 -0.1670654E+01  0.3416506E-01  0.3409994E+00
 -0.9905930E+01 -0.1970410E+01 -0.2568960E-01  0.3800145E+00 -0.1666178E+01  0.3619153E-01  0.3782872E+00
 -0.9665100E+01 -0.2931880E+01 -0.2568960E-01  0.4152791E+00 -0.1667224E+01  0.3998245E-01  0.4133499E+00
 -0.9331180E+01 -0.3865100E+01 -0.2568960E-01  0.4478775E+00 -0.1671386E+01  0.4497600E-01  0.4456135E+00
 -0.8907400E+01 -0.4761110E+01 -0.2568960E-01  0.4767898E+00 -0.1677940E+01  0.5098732E-01  0.4740557E+00
 -0.8397840E+01 -0.5611260E+01 -0.2568960E-01  0.5029353E+00 -0.1685758E+01  0.5769126E-01  0.4996156E+00
 -0.7807400E+01 -0.6407370E+01 -0.2568960E-01  0.5261652E+00 -0.1693696E+01  0.6450261E-01  0.5221966E+00
 -0.7141780E+01 -0.7141780E+01 -0.2568960E-01  0.5461082E+00 -0.1700953E+01  0.7087912E-01  0.5414890E+00
 -0.6407370E+01 -0.7807410E+01 -0.2568960E-01  0.5614437E+00 -0.1707380E+01  0.7644589E-01  0.5562149E+00
 -0.5611260E+01 -0.8397850E+01 -0.2568960E-01  0.5734953E+00 -0.1712817E+01  0.8117449E-01  0.5677214E+00
 -0.4761110E+01 -0.8907410E+01 -0.2568960E-01  0.5823792E+00 -0.1716760E+01  0.8470456E-01  0.5761863E+00
 -0.3865100E+01 -0.9331190E+01 -0.2568960E-01  0.5878181E+00 -0.1719026E+01  0.8681358E-01  0.5813721E+00
 -0.2931870E+01 -0.9665100E+01 -0.2568960E-01  0.5883518E+00 -0.1719484E+01  0.8715858E-01  0.5818602E+00
 -0.1970410E+01 -0.9905930E+01 -0.2568960E-01  0.5854458E+00 -0.1718240E+01  0.8600792E-01  0.5790936E+00
 -0.9899710E+00 -0.1005140E+02 -0.2568960E-01  0.5793406E+00 -0.1715275E+01  0.8341163E-01  0.5733045E+00
  0.1204410E-06 -0.1010000E+02 -0.2568960E-01  0.5698666E+00 -0.1710902E+01  0.7958052E-01  0.5642826E+00
  0.9899760E+00 -0.1005140E+02 -0.2568960E-01  0.5556021E+00 -0.1705120E+01  0.7440628E-01  0.5505973E+00
  0.1970410E+01 -0.9905930E+01 -0.2568960E-01  0.5379579E+00 -0.1698071E+01  0.6828351E-01  0.5336066E+00
  0.2931880E+01 -0.9665100E+01 -0.2568960E-01  0.5172482E+00 -0.1690266E+01  0.6164856E-01  0.5135612E+00
  0.3865100E+01 -0.9331180E+01 -0.2568960E-01  0.4935028E+00 -0.1682552E+01  0.5503683E-01  0.4904243E+00
  0.4761110E+01 -0.8907410E+01 -0.2568960E-01  0.4656077E+00 -0.1675516E+01  0.4866905E-01  0.4630571E+00
  0.5611260E+01 -0.8397840E+01 -0.2568960E-01  0.4347063E+00 -0.1669477E+01  0.4282756E-01  0.4325914E+00
  0.6407370E+01 -0.7807410E+01 -0.2568960E-01  0.4013041E+00 -0.1665923E+01  0.3811739E-01  0.3994898E+00
  0.7141780E+01 -0.7141780E+01 -0.2568960E-01  0.3657701E+00 -0.1666836E+01  0.3507459E-01  0.3640845E+00
  0.7807410E+01 -0.6407370E+01 -0.2568960E-01  0.3275896E+00 -0.1675110E+01  0.3411016E-01  0.3258089E+00
  0.8397840E+01 -0.5611260E+01 -0.2568960E-01  0.2876589E+00 -0.1693547E+01  0.3522179E-01  0.2854944E+00
  0.8907410E+01 -0.4761110E+01 -0.2568960E-01  0.2469099E+00 -0.1728540E+01  0.3878704E-01  0.2438443E+00
  0.9331180E+01 -0.3865100E+01 -0.2568960E-01  0.2065396E+00 -0.1790210E+01  0.4495486E-01  0.2015878E+00
  0.9665100E+01 -0.2931870E+01 -0.2568960E-01  0.1677674E+00 -0.1898577E+01  0.5401152E-01  0.1588353E+00
  0.9905930E+01 -0.1970410E+01 -0.2568960E-01  0.1332074E+00 -0.2086126E+01  0.6564755E-01  0.1159078E+00
  0.1005140E+02 -0.9899690E+00 -0.2568960E-01  0.1084931E+00 -0.2396076E+01  0.7971396E-01  0.7359644E-01
  0.1010000E+02  0.0000000E+00 -0.1027320E+00  0.1007751E+00 -0.2813514E+01  0.9540009E-01  0.3247224E-01
  0.1005140E+02  0.9899730E+00 -0.1027320E+00  0.1135089E+00  0.3086944E+01  0.1133395E+00 -0.6200018E-02
  0.9905930E+01  0.1970410E+01 -0.1027320E+00  0.1395709E+00  0.2828159E+01  0.1327710E+00 -0.4303339E-01
  0.9665100E+01  0.2931880E+01 -0.1027320E+00  0.1717406E+00  0.2670941E+01  0.1530677E+00 -0.7787879E-01
  0.9331180E+01  0.3865100E+01 -0.1027320E+00  0.2053333E+00  0.2577142E+01  0.1734826E+00 -0.1098434E+00
  0.8907400E+01  0.4761110E+01 -0.1027320E+00  0.2376109E+00  0.2522435E+01  0.1935026E+00 -0.1378974E+00
  0.8397840E+01  0.5611260E+01 -0.1027320E+00  0.2680815E+00  0.2488295E+01  0.2128792E+00 -0.1629421E+00
  0.7807410E+01  0.6407370E+01 -0.1027320E+00  0.2962341E+00  0.2465371E+01  0.2310457E+00 -0.1853983E+00
  0.7141780E+01  0.7141780E+01 -0.1027320E+00  0.3207875E+00  0.2450463E+01  0.2471752E+00 -0.2044726E+00
  0.6407370E+01  0.7807410E+01 -0.1027320E+00  0.3402995E+00  0.2442804E+01  0.2605408E+00 -0.2189115E+00
  0.5611260E+01  0.8397840E+01 -0.1027320E+00  0.3556887E+00  0.2438362E+01  0.2713040E+00 -0.2300187E+00
  0.4761110E+01  0.8907410E+01 -0.1027320E+00  0.3673340E+00  0.2434746E+01  0.2793258E+00 -0.2385610E+00
  0.3865100E+01  0.9331180E+01 -0.1027320E+00  0.3742792E+00  0.2432441E+01  0.2840461E+00 -0.2437268E+00
  0.2931870E+01  0.9665100E+01 -0.1027320E+00  0.3751294E+00  0.2432932E+01  0.2848110E+00 -0.2441409E+00
  0.1970410E+01  0.9905930E+01 -0.1027320E+00  0.3712118E+00  0.2434321E+01  0.2821721E+00 -0.2411994E+00
  0.9899730E+00  0.1005140E+02 -0.1027320E+00  0.3633507E+00  0.2435639E+01  0.2765073E+00 -0.2357274E+00
 -0.4414850E-06  0.1010000E+02 -0.1027320E+00  0.3509688E+00  0.2438557E+01  0.2677481E+00 -0.2269142E+00
 -0.9899740E+00  0.1005140E+02 -0.1027320E+00  0.3329276E+00  0.2445895E+01  0.2555576E+00 -0.2133802E+00
 -0.1970410E+01  0.9905930E+01 -0.1027320E+00  0.3106650E+00  0.2457036E+01  0.2406721E+00 -0.1964426E+00
 -0.2931880E+01  0.9665100E+01 -0.1027320E+00  0.2852975E+00  0.2472845E+01  0.2238440E+00 -0.1768856E+00
 -0.3865100E+01  0.9331180E+01 -0.1027320E+00  0.2568694E+00  0.2498128E+01  0.2055011E+00 -0.1541142E+00
 -0.4761110E+01  0.8907400E+01 -0.1027320E+00  0.2250269E+00  0.2541745E+01  0.1857421E+00 -0.1270315E+00
 -0.5611260E+01  0.8397840E+01 -0.1027320E+00  0.1914455E+00  0.2611722E+01  0.1651931E+00 -0.9676077E-01
 -0.6407370E+01  0.7807410E+01 -0.1027320E+00  0.1582742E+00  0.2724208E+01  0.1446867E+00 -0.6415982E-01
 -0.7141780E+01  0.7141780E+01 -0.1027320E+00  0.1282280E+00  0.2912430E+01  0.1248757E+00 -0.2912858E-01
 -0.7807410E+01  0.6407370E+01 -0.1027320E+00  0.1065333E+00 -0.3058233E+01  0.1061633E+00  0.8870354E-02
 -0.8397840E+01  0.5611260E+01 -0.1027320E+00  0.1014401E+00 -0.2637810E+01  0.8883741E-01  0.4896939E-01
 -0.8907410E+01  0.4761110E+01 -0.1027320E+00  0.1163523E+00 -0.2253373E+01  0.7339437E-01  0.9028353E-01
 -0.9331180E+01  0.3865100E+01 -0.1027320E+00  0.1453959E+00 -0.1998421E+01  0.6029723E-01  0.1323035E+00
 -0.9665100E+01  0.2931880E+01 -0.1027320E+00  0.1818947E+00 -0.1848893E+01  0.4993479E-01  0.1749063E+00
 -0.9905930E+01  0.1970410E+01 -0.1027320E+00  0.2217367E+00 -0.1762133E+01  0.4216792E-01  0.2176902E+00
 -0.1005140E+02  0.9899730E+00 -0.1027320E+00  0.2625476E+00 -0.1711917E+01  0.3692811E-01  0.2599376E+00
 -0.1010000E+02 -0.8829700E-06 -0.1027320E+00  0.3027572E+00 -0.1683926E+01  0.3417780E-01  0.3008219E+00
 -0.1005140E+02 -0.9899740E+00 -0.1027320E+00  0.3413676E+00 -0.1670656E+01  0.3403220E-01  0.3396670E+00
 -0.9905930E+01 -0.1970410E+01 -0.1027320E+00  0.3784277E+00 -0.1666305E+01  0.3608814E-01  0.3767030E+00
 -0.9665100E+01 -0.2931880E+01 -0.1027320E+00  0.4136689E+00 -0.1667251E+01  0.3983834E-01  0.4117461E+00
 -0.9331180E+01 -0.3865100E+01 -0.1027320E+00  0.4461762E+00 -0.1671415E+01  0.4481790E-01  0.4439196E+00
 -0.8907400E+01 -0.4761110E+01 -0.1027320E+00  0.4749497E+00 -0.1677996E+01  0.5081702E-01  0.4722233E+00
 -0.8397840E+01 -0.5611260E+01 -0.1027320E+00  0.5008261E+00 -0.1685843E+01  0.5749132E-01  0.4975154E+00
 -0.7807400E+01 -0.6407370E+01 -0.1027320E+00  0.5241396E+00 -0.1693769E+01  0.6429230E-01  0.5201816E+00
 -0.7141780E+01 -0.7141780E+01 -0.1027320E+00  0.5440485E+00 -0.1701040E+01  0.7065853E-01  0.5394406E+00
 -0.6407370E+01 -0.7807410E+01 -0.1027320E+00  0.5592856E+00 -0.1707471E+01  0.7620213E-01  0.5540701E+00
 -0.5611260E+01 -0.8397850E+01 -0.1027320E+00  0.5710865E+00 -0.1712884E+01  0.8087146E-01  0.5653315E+00
 -0.4761110E+01 -0.8907410E+01 -0.1027320E+00  0.5801416E+00 -0.1716857E+01  0.8443518E-01  0.5739643E+00
 -0.3865100E+01 -0.9331190E+01 -0.1027320E+00  0.5856047E+00 -0.1719137E+01  0.8655066E-01  0.5791734E+00
 -0.2931870E+01 -0.9665100E+01 -0.1027320E+00  0.5860918E+00 -0.1719585E+01  0.8688218E-01  0.5796163E+00
 -0.1970410E+01 -0.9905930E+01 -0.1027320E+00  0.5829868E+00 -0.1718304E+01  0.8568360E-01  0.5766558E+00
 -0.9899710E+00 -0.1005140E+02 -0.1027320E+00  0.5771150E+00 -0.1715373E+01  0.8314688E-01  0.5710940E+00
  0.1204410E-06 -0.1010000E+02 -0.1027320E+00  0.5677186E+00 -0.1711002E+01  0.7933659E-01  0.5621478E+00
  0.9899760E+00 -0.1005140E+02 -0.1027320E+00  0.5534665E+00 -0.1705206E+01  0.7416727E-01  0.5484746E+00
  0.1970410E+01 -0.9905930E+01 -0.1027320E+00  0.5357003E+00 -0.1698146E+01  0.6803691E-01  0.5313622E+00
  0.2931880E+01 -0.9665100E+01 -0.1027320E+00  0.5152562E+00 -0.1690339E+01  0.6144849E-01  0.5115789E+00
  0.3865100E+01 -0.9331180E+01 -0.1027320E+00  0.4916355E+00 -0.1682608E+01  0.5485613E-01  0.4885656E+00
  0.4761110E+01 -0.8907410E+01 -0.1027320E+00  0.4638093E+00 -0.1675562E+01  0.4850265E-01  0.4612663E+00
  0.5611260E+01 -0.8397840E+01 -0.1027320E+00  0.4328869E+00 -0.1669584E+01  0.4269440E-01  0.4307763E+00
  0.6407370E+01 -0.7807410E+01 -0.1027320E+00  0.3997464E+00 -0.1665949E+01  0.3797949E-01  0.3979381E+00
  0.7141780E+01 -0.7141780E+01 -0.1027320E+00  0.3643660E+00 -0.1666815E+01  0.3493226E-01  0.3626876E+00
  0.7807410E+01 -0.6407370E+01 -0.1027320E+00  0.3263054E+00 -0.1675101E+01  0.3397335E-01  0.3245320E+00
  0.8397840E+01 -0.5611260E+01 -0.1027320E+00  0.2864665E+00 -0.1693724E+01  0.3512613E-01  0.2843048E+00
