 VARIABLES="X" "Y" "Z" "abs(eta) (m)" "angle(phi) (rad)" "PRE1" "PRE2"
ZONE N=   3200 ,E =    3136 ,F=FEPOINT,ET=QUADRILATERAL
  0.1010000E+02  0.0000000E+00  0.0000000E+00  0.1908326E+00  0.2426551E+01  0.1440912E+00 -0.1251192E+00
  0.1005140E+02  0.9899730E+00  0.0000000E+00  0.2152646E+00  0.2385142E+01  0.1565569E+00 -0.1477456E+00
  0.9905930E+01  0.1970410E+01  0.0000000E+00  0.2373294E+00  0.2359194E+01  0.1683199E+00 -0.1673131E+00
  0.9665100E+01  0.2931880E+01  0.0000000E+00  0.2570632E+00  0.2341336E+01  0.1790504E+00 -0.1844517E+00
  0.9331180E+01  0.3865100E+01  0.0000000E+00  0.2730945E+00  0.2330483E+01  0.1880786E+00 -0.1980077E+00
  0.8907400E+01  0.4761110E+01  0.0000000E+00  0.2862453E+00  0.2322834E+01  0.1955423E+00 -0.2090444E+00
  0.8397840E+01  0.5611260E+01  0.0000000E+00  0.2954287E+00  0.2318873E+01  0.2009595E+00 -0.2165488E+00
  0.7807410E+01  0.6407370E+01  0.0000000E+00  0.3014158E+00  0.2316137E+01  0.2044269E+00 -0.2214974E+00
  0.7141780E+01  0.7141780E+01  0.0000000E+00  0.3030548E+00  0.2315750E+01  0.2054524E+00 -0.2227814E+00
  0.6407370E+01  0.7807410E+01  0.0000000E+00  0.3014154E+00  0.2316139E+01  0.2044270E+00 -0.2214969E+00
  0.5611260E+01  0.8397840E+01  0.0000000E+00  0.2954282E+00  0.2318872E+01  0.2009591E+00 -0.2165485E+00
  0.4761110E+01  0.8907410E+01  0.0000000E+00  0.2862450E+00  0.2322834E+01  0.1955421E+00 -0.2090443E+00
  0.3865100E+01  0.9331180E+01  0.0000000E+00  0.2730943E+00  0.2330483E+01  0.1880785E+00 -0.1980074E+00
  0.2931870E+01  0.9665100E+01  0.0000000E+00  0.2570629E+00  0.2341336E+01  0.1790502E+00 -0.1844515E+00
  0.1970410E+01  0.9905930E+01  0.0000000E+00  0.2373291E+00  0.2359194E+01  0.1683196E+00 -0.1673129E+00
  0.9899730E+00  0.1005140E+02  0.0000000E+00  0.2152643E+00  0.2385143E+01  0.1565568E+00 -0.1477454E+00
 -0.4414850E-06  0.1010000E+02  0.0000000E+00  0.1908320E+00  0.2426551E+01  0.1440907E+00 -0.1251188E+00
 -0.9899740E+00  0.1005140E+02  0.0000000E+00  0.1651996E+00  0.2489313E+01  0.1312845E+00 -0.1002761E+00
 -0.1970410E+01  0.9905930E+01  0.0000000E+00  0.1387123E+00  0.2592249E+01  0.1183032E+00 -0.7242553E-01
 -0.2931880E+01  0.9665100E+01  0.0000000E+00  0.1139684E+00  0.2757679E+01  0.1056721E+00 -0.4268715E-01
 -0.3865100E+01  0.9331180E+01  0.0000000E+00  0.9458573E-01  0.3024962E+01  0.9394315E-01 -0.1100664E-01
 -0.4761110E+01  0.8907400E+01  0.0000000E+00  0.8607485E-01 -0.2882785E+01  0.8320821E-01  0.2202894E-01
 -0.5611260E+01  0.8397840E+01  0.0000000E+00  0.9310254E-01 -0.2485901E+01  0.7379552E-01  0.5676536E-01
 -0.6407370E+01  0.7807410E+01  0.0000000E+00  0.1133146E+00 -0.2190787E+01  0.6583889E-01  0.9222492E-01
 -0.7141780E+01  0.7141780E+01  0.0000000E+00  0.1411498E+00 -0.2007940E+01  0.5975620E-01  0.1278767E+00
 -0.7807410E+01  0.6407370E+01  0.0000000E+00  0.1726463E+00 -0.1897189E+01  0.5535530E-01  0.1635315E+00
 -0.8397840E+01  0.5611260E+01  0.0000000E+00  0.2059262E+00 -0.1830590E+01  0.5289861E-01  0.1990159E+00
 -0.8907410E+01  0.4761110E+01  0.0000000E+00  0.2395175E+00 -0.1790003E+01  0.5208440E-01  0.2337859E+00
 -0.9331180E+01  0.3865100E+01  0.0000000E+00  0.2720764E+00 -0.1766665E+01  0.5295119E-01  0.2668740E+00
 -0.9665100E+01  0.2931880E+01  0.0000000E+00  0.3036645E+00 -0.1753518E+01  0.5517777E-01  0.2986093E+00
 -0.9905930E+01  0.1970410E+01  0.0000000E+00  0.3336385E+00 -0.1747942E+01  0.5879385E-01  0.3284173E+00
 -0.1005140E+02  0.9899730E+00  0.0000000E+00  0.3619169E+00 -0.1746583E+01  0.6329295E-01  0.3563395E+00
 -0.1010000E+02 -0.8829700E-06  0.0000000E+00  0.3873394E+00 -0.1748182E+01  0.6834877E-01  0.3812614E+00
 -0.1005140E+02 -0.9899740E+00  0.0000000E+00  0.4106351E+00 -0.1751353E+01  0.7374080E-01  0.4039597E+00
 -0.9905930E+01 -0.1970410E+01  0.0000000E+00  0.4309543E+00 -0.1755768E+01  0.7926048E-01  0.4236029E+00
 -0.9665100E+01 -0.2931880E+01  0.0000000E+00  0.4488416E+00 -0.1760287E+01  0.8454315E-01  0.4408075E+00
 -0.9331180E+01 -0.3865100E+01  0.0000000E+00  0.4630820E+00 -0.1764452E+01  0.8911885E-01  0.4544258E+00
 -0.8907400E+01 -0.4761110E+01  0.0000000E+00  0.4747089E+00 -0.1768008E+01  0.9301262E-01  0.4655075E+00
 -0.8397840E+01 -0.5611260E+01  0.0000000E+00  0.4826745E+00 -0.1770828E+01  0.9590767E-01  0.4730501E+00
 -0.7807400E+01 -0.6407370E+01  0.0000000E+00  0.4879191E+00 -0.1772590E+01  0.9779231E-01  0.4780185E+00
 -0.7141780E+01 -0.7141780E+01  0.0000000E+00  0.4892974E+00 -0.1773156E+01  0.9833948E-01  0.4793133E+00
 -0.6407370E+01 -0.7807410E+01  0.0000000E+00  0.4879194E+00 -0.1772590E+01  0.9779225E-01  0.4780188E+00
 -0.5611260E+01 -0.8397850E+01  0.0000000E+00  0.4826740E+00 -0.1770829E+01  0.9590798E-01  0.4730496E+00
 -0.4761110E+01 -0.8907410E+01  0.0000000E+00  0.4747086E+00 -0.1768008E+01  0.9301252E-01  0.4655071E+00
 -0.3865100E+01 -0.9331190E+01  0.0000000E+00  0.4630815E+00 -0.1764451E+01  0.8911841E-01  0.4544253E+00
 -0.2931870E+01 -0.9665100E+01  0.0000000E+00  0.4488414E+00 -0.1760287E+01  0.8454328E-01  0.4408072E+00
 -0.1970410E+01 -0.9905930E+01  0.0000000E+00  0.4309546E+00 -0.1755768E+01  0.7926055E-01  0.4236031E+00
 -0.9899710E+00 -0.1005140E+02  0.0000000E+00  0.4106349E+00 -0.1751354E+01  0.7374091E-01  0.4039596E+00
  0.1204410E-06 -0.1010000E+02  0.0000000E+00  0.3873395E+00 -0.1748182E+01  0.6834869E-01  0.3812616E+00
  0.9899760E+00 -0.1005140E+02  0.0000000E+00  0.3619165E+00 -0.1746583E+01  0.6329297E-01  0.3563391E+00
  0.1970410E+01 -0.9905930E+01  0.0000000E+00  0.3336385E+00 -0.1747941E+01  0.5879373E-01  0.3284174E+00
  0.2931880E+01 -0.9665100E+01  0.0000000E+00  0.3036645E+00 -0.1753518E+01  0.5517776E-01  0.2986094E+00
  0.3865100E+01 -0.9331180E+01  0.0000000E+00  0.2720762E+00 -0.1766665E+01  0.5295114E-01  0.2668738E+00
  0.4761110E+01 -0.8907410E+01  0.0000000E+00  0.2395176E+00 -0.1790003E+01  0.5208432E-01  0.2337860E+00
  0.5611260E+01 -0.8397840E+01  0.0000000E+00  0.2059259E+00 -0.1830593E+01  0.5289897E-01  0.1990155E+00
  0.6407370E+01 -0.7807410E+01  0.0000000E+00  0.1726464E+00 -0.1897189E+01  0.5535531E-01  0.1635316E+00
  0.7141780E+01 -0.7141780E+01  0.0000000E+00  0.1411497E+00 -0.2007941E+01  0.5975637E-01  0.1278766E+00
  0.7807410E+01 -0.6407370E+01  0.0000000E+00  0.1133146E+00 -0.2190787E+01  0.6583890E-01  0.9222490E-01
  0.8397840E+01 -0.5611260E+01  0.0000000E+00  0.9310246E-01 -0.2485902E+01  0.7379550E-01  0.5676523E-01
  0.8907410E+01 -0.4761110E+01  0.0000000E+00  0.8607505E-01 -0.2882787E+01  0.8320843E-01  0.2202889E-01
  0.9331180E+01 -0.3865100E+01  0.0000000E+00  0.9458607E-01  0.3024961E+01  0.9394348E-01 -0.1100672E-01
  0.9665100E+01 -0.2931870E+01  0.0000000E+00  0.1139687E+00  0.2757674E+01  0.1056722E+00 -0.4268768E-01
  0.9905930E+01 -0.1970410E+01  0.0000000E+00  0.1387123E+00  0.2592248E+01  0.1183031E+00 -0.7242562E-01
  0.1005140E+02 -0.9899690E+00  0.0000000E+00  0.1652001E+00  0.2489314E+01  0.1312850E+00 -0.1002763E+00
  0.1010000E+02  0.0000000E+00 -0.2568960E-01  0.1906404E+00  0.2426468E+01  0.1439357E+00 -0.1250051E+00
  0.1005140E+02  0.9899730E+00 -0.2568960E-01  0.2149952E+00  0.2385274E+01  0.1563805E+00 -0.1475401E+00
  0.9905930E+01  0.1970410E+01 -0.2568960E-01  0.2370065E+00  0.2359392E+01  0.1681240E+00 -0.1670521E+00
  0.9665100E+01  0.2931880E+01 -0.2568960E-01  0.2567439E+00  0.2341460E+01  0.1788507E+00 -0.1842006E+00
  0.9331180E+01  0.3865100E+01 -0.2568960E-01  0.2728258E+00  0.2330469E+01  0.1878909E+00 -0.1978154E+00
  0.8907400E+01  0.4761110E+01 -0.2568960E-01  0.2858889E+00  0.2322953E+01  0.1953236E+00 -0.2087610E+00
  0.8397840E+01  0.5611260E+01 -0.2568960E-01  0.2950265E+00  0.2319045E+01  0.2007232E+00 -0.2162194E+00
  0.7807410E+01  0.6407370E+01 -0.2568960E-01  0.3010412E+00  0.2316257E+01  0.2041994E+00 -0.2211977E+00
  0.7141780E+01  0.7141780E+01 -0.2568960E-01  0.3027578E+00  0.2315754E+01  0.2052518E+00 -0.2225624E+00
  0.6407370E+01  0.7807410E+01 -0.2568960E-01  0.3010414E+00  0.2316256E+01  0.2041992E+00 -0.2211981E+00
  0.5611260E+01  0.8397840E+01 -0.2568960E-01  0.2950269E+00  0.2319045E+01  0.2007235E+00 -0.2162197E+00
  0.4761110E+01  0.8907410E+01 -0.2568960E-01  0.2858882E+00  0.2322955E+01  0.1953235E+00 -0.2087601E+00
  0.3865100E+01  0.9331180E+01 -0.2568960E-01  0.2728259E+00  0.2330470E+01  0.1878910E+00 -0.1978155E+00
  0.2931870E+01  0.9665100E+01 -0.2568960E-01  0.2567437E+00  0.2341460E+01  0.1788507E+00 -0.1842003E+00
  0.1970410E+01  0.9905930E+01 -0.2568960E-01  0.2370066E+00  0.2359394E+01  0.1681244E+00 -0.1670519E+00
  0.9899730E+00  0.1005140E+02 -0.2568960E-01  0.2149949E+00  0.2385276E+01  0.1563805E+00 -0.1475396E+00
 -0.4414850E-06  0.1010000E+02 -0.2568960E-01  0.1906404E+00  0.2426470E+01  0.1439360E+00 -0.1250048E+00
 -0.9899740E+00  0.1005140E+02 -0.2568960E-01  0.1649962E+00  0.2489460E+01  0.1311375E+00 -0.1001333E+00
 -0.1970410E+01  0.9905930E+01 -0.2568960E-01  0.1385302E+00  0.2592549E+01  0.1181696E+00 -0.7229500E-01
 -0.2931880E+01  0.9665100E+01 -0.2568960E-01  0.1138292E+00  0.2757871E+01  0.1055513E+00 -0.4261474E-01
 -0.3865100E+01  0.9331180E+01 -0.2568960E-01  0.9447135E-01  0.3024780E+01  0.9382754E-01 -0.1101041E-01
 -0.4761110E+01  0.8907400E+01 -0.2568960E-01  0.8598011E-01 -0.2882643E+01  0.8311348E-01  0.2201655E-01
 -0.5611260E+01  0.8397840E+01 -0.2568960E-01  0.9301243E-01 -0.2485785E+01  0.7371752E-01  0.5671895E-01
 -0.6407370E+01  0.7807410E+01 -0.2568960E-01  0.1131913E+00 -0.2190738E+01  0.6576281E-01  0.9212777E-01
 -0.7141780E+01  0.7141780E+01 -0.2568960E-01  0.1409829E+00 -0.2007824E+01  0.5967074E-01  0.1277325E+00
 -0.7807410E+01  0.6407370E+01 -0.2568960E-01  0.1724459E+00 -0.1897196E+01  0.5529217E-01  0.1633413E+00
 -0.8397840E+01  0.5611260E+01 -0.2568960E-01  0.2056800E+00 -0.1830647E+01  0.5284657E-01  0.1987750E+00
 -0.8907410E+01  0.4761110E+01 -0.2568960E-01  0.2392366E+00 -0.1790016E+01  0.5202629E-01  0.2335111E+00
 -0.9331180E+01  0.3865100E+01 -0.2568960E-01  0.2717833E+00 -0.1766610E+01  0.5287955E-01  0.2665894E+00
 -0.9665100E+01  0.2931880E+01 -0.2568960E-01  0.3032998E+00 -0.1753536E+01  0.5511706E-01  0.2982496E+00
 -0.9905930E+01  0.1970410E+01 -0.2568960E-01  0.3332170E+00 -0.1747985E+01  0.5873391E-01  0.3279998E+00
 -0.1005140E+02  0.9899730E+00 -0.2568960E-01  0.3614816E+00 -0.1746609E+01  0.6322618E-01  0.3559093E+00
 -0.1010000E+02 -0.8829700E-06 -0.2568960E-01  0.3869305E+00 -0.1748179E+01  0.6827534E-01  0.3808591E+00
 -0.1005140E+02 -0.9899740E+00 -0.2568960E-01  0.4101358E+00 -0.1751382E+01  0.7366265E-01  0.4034664E+00
 -0.9905930E+01 -0.1970410E+01 -0.2568960E-01  0.4303992E+00 -0.1755807E+01  0.7917494E-01  0.4230541E+00
 -0.9665100E+01 -0.2931880E+01 -0.2568960E-01  0.4482953E+00 -0.1760321E+01  0.8445548E-01  0.4402681E+00
 -0.9331180E+01 -0.3865100E+01 -0.2568960E-01  0.4625944E+00 -0.1764479E+01  0.8903740E-01  0.4539449E+00
 -0.8907400E+01 -0.4761110E+01 -0.2568960E-01  0.4741291E+00 -0.1768044E+01  0.9291560E-01  0.4649356E+00
 -0.8397840E+01 -0.5611260E+01 -0.2568960E-01  0.4820480E+00 -0.1770867E+01  0.9580162E-01  0.4724323E+00
 -0.7807400E+01 -0.6407370E+01 -0.2568960E-01  0.4873231E+00 -0.1772629E+01  0.9769113E-01  0.4774309E+00
 -0.7141780E+01 -0.7141780E+01 -0.2568960E-01  0.4887824E+00 -0.1773193E+01  0.9825414E-01  0.4788052E+00
 -0.6407370E+01 -0.7807410E+01 -0.2568960E-01  0.4873224E+00 -0.1772629E+01  0.9769113E-01  0.4774302E+00
 -0.5611260E+01 -0.8397850E+01 -0.2568960E-01  0.4820479E+00 -0.1770867E+01  0.9580133E-01  0.4724323E+00
 -0.4761110E+01 -0.8907410E+01 -0.2568960E-01  0.4741288E+00 -0.1768044E+01  0.9291549E-01  0.4649353E+00
 -0.3865100E+01 -0.9331190E+01 -0.2568960E-01  0.4625939E+00 -0.1764479E+01  0.8903731E-01  0.4539444E+00
 -0.2931870E+01 -0.9665100E+01 -0.2568960E-01  0.4482958E+00 -0.1760321E+01  0.8445545E-01  0.4402685E+00
 -0.1970410E+01 -0.9905930E+01 -0.2568960E-01  0.4303992E+00 -0.1755807E+01  0.7917510E-01  0.4230542E+00
 -0.9899710E+00 -0.1005140E+02 -0.2568960E-01  0.4101356E+00 -0.1751381E+01  0.7366248E-01  0.4034663E+00
  0.1204410E-06 -0.1010000E+02 -0.2568960E-01  0.3869298E+00 -0.1748179E+01  0.6827537E-01  0.3808585E+00
  0.9899760E+00 -0.1005140E+02 -0.2568960E-01  0.3614810E+00 -0.1746609E+01  0.6322596E-01  0.3559087E+00
  0.1970410E+01 -0.9905930E+01 -0.2568960E-01  0.3332164E+00 -0.1747985E+01  0.5873382E-01  0.3279993E+00
  0.2931880E+01 -0.9665100E+01 -0.2568960E-01  0.3032992E+00 -0.1753536E+01  0.5511698E-01  0.2982491E+00
  0.3865100E+01 -0.9331180E+01 -0.2568960E-01  0.2717833E+00 -0.1766610E+01  0.5287956E-01  0.2665894E+00
  0.4761110E+01 -0.8907410E+01 -0.2568960E-01  0.2392366E+00 -0.1790015E+01  0.5202619E-01  0.2335111E+00
  0.5611260E+01 -0.8397840E+01 -0.2568960E-01  0.2056800E+00 -0.1830646E+01  0.5284649E-01  0.1987750E+00
  0.6407370E+01 -0.7807410E+01 -0.2568960E-01  0.1724461E+00 -0.1897195E+01  0.5529214E-01  0.1633415E+00
  0.7141780E+01 -0.7141780E+01 -0.2568960E-01  0.1409830E+00 -0.2007826E+01  0.5967104E-01  0.1277324E+00
  0.7807410E+01 -0.6407370E+01 -0.2568960E-01  0.1131915E+00 -0.2190743E+01  0.6576335E-01  0.9212758E-01
  0.8397840E+01 -0.5611260E+01 -0.2568960E-01  0.9301213E-01 -0.2485783E+01  0.7371718E-01  0.5671891E-01
  0.8907410E+01 -0.4761110E+01 -0.2568960E-01  0.8598041E-01 -0.2882645E+01  0.8311383E-01  0.2201640E-01
  0.9331180E+01 -0.3865100E+01 -0.2568960E-01  0.9447125E-01  0.3024778E+01  0.9382741E-01 -0.1101056E-01
  0.9665100E+01 -0.2931870E+01 -0.2568960E-01  0.1138296E+00  0.2757865E+01  0.1055514E+00 -0.4261547E-01
  0.9905930E+01 -0.1970410E+01 -0.2568960E-01  0.1385306E+00  0.2592548E+01  0.1181699E+00 -0.7229529E-01
  0.1005140E+02 -0.9899690E+00 -0.2568960E-01  0.1649964E+00  0.2489458E+01  0.1311375E+00 -0.1001338E+00
  0.1010000E+02  0.0000000E+00 -0.1027320E+00  0.1901152E+00  0.2425909E+01  0.1434695E+00 -0.1247410E+00
  0.1005140E+02  0.9899730E+00 -0.1027320E+00  0.2143036E+00  0.2385149E+01  0.1558590E+00 -0.1470850E+00
  0.9905930E+01  0.1970410E+01 -0.1027320E+00  0.2362893E+00  0.2359186E+01  0.1675809E+00 -0.1665811E+00
  0.9665100E+01  0.2931880E+01 -0.1027320E+00  0.2559338E+00  0.2341367E+01  0.1782694E+00 -0.1836359E+00
  0.9331180E+01  0.3865100E+01 -0.1027320E+00  0.2720934E+00  0.2330133E+01  0.1873201E+00 -0.1973474E+00
  0.8907400E+01  0.4761110E+01 -0.1027320E+00  0.2849803E+00  0.2322880E+01  0.1946877E+00 -0.2081117E+00
  0.8397840E+01  0.5611260E+01 -0.1027320E+00  0.2941385E+00  0.2318908E+01  0.2000895E+00 -0.2155960E+00
  0.7807410E+01  0.6407370E+01 -0.1027320E+00  0.3000886E+00  0.2316193E+01  0.2035390E+00 -0.2205108E+00
  0.7141780E+01  0.7141780E+01 -0.1027320E+00  0.3019471E+00  0.2315477E+01  0.2046407E+00 -0.2220231E+00
  0.6407370E+01  0.7807410E+01 -0.1027320E+00  0.3000891E+00  0.2316194E+01  0.2035396E+00 -0.2205109E+00
  0.5611260E+01  0.8397840E+01 -0.1027320E+00  0.2941383E+00  0.2318907E+01  0.2000892E+00 -0.2155960E+00
  0.4761110E+01  0.8907410E+01 -0.1027320E+00  0.2849791E+00  0.2322880E+01  0.1946868E+00 -0.2081109E+00
  0.3865100E+01  0.9331180E+01 -0.1027320E+00  0.2720933E+00  0.2330134E+01  0.1873204E+00 -0.1973471E+00
  0.2931870E+01  0.9665100E+01 -0.1027320E+00  0.2559335E+00  0.2341368E+01  0.1782694E+00 -0.1836354E+00
  0.1970410E+01  0.9905930E+01 -0.1027320E+00  0.2362891E+00  0.2359188E+01  0.1675810E+00 -0.1665807E+00
  0.9899730E+00  0.1005140E+02 -0.1027320E+00  0.2143033E+00  0.2385149E+01  0.1558588E+00 -0.1470848E+00
 -0.4414850E-06  0.1010000E+02 -0.1027320E+00  0.1901147E+00  0.2425909E+01  0.1434691E+00 -0.1247406E+00
 -0.9899740E+00  0.1005140E+02 -0.1027320E+00  0.1644716E+00  0.2489259E+01  0.1307005E+00 -0.9984129E-01
 -0.1970410E+01  0.9905930E+01 -0.1027320E+00  0.1380928E+00  0.2592139E+01  0.1177670E+00 -0.7211496E-01
 -0.2931880E+01  0.9665100E+01 -0.1027320E+00  0.1134432E+00  0.2757653E+01  0.1051841E+00 -0.4249313E-01
 -0.3865100E+01  0.9331180E+01 -0.1027320E+00  0.9413584E-01  0.3023815E+01  0.9348369E-01 -0.1106148E-01
 -0.4761110E+01  0.8907400E+01 -0.1027320E+00  0.8567255E-01 -0.2882903E+01  0.8282188E-01  0.2191623E-01
 -0.5611260E+01  0.8397840E+01 -0.1027320E+00  0.9266474E-01 -0.2485803E+01  0.7344301E-01  0.5650556E-01
 -0.6407370E+01  0.7807410E+01 -0.1027320E+00  0.1128015E+00 -0.2190580E+01  0.6552181E-01  0.9182092E-01
 -0.7141780E+01  0.7141780E+01 -0.1027320E+00  0.1404866E+00 -0.2007495E+01  0.5941891E-01  0.1273023E+00
 -0.7807410E+01  0.6407370E+01 -0.1027320E+00  0.1718577E+00 -0.1897090E+01  0.5508636E-01  0.1627899E+00
 -0.8397840E+01  0.5611260E+01 -0.1027320E+00  0.2050029E+00 -0.1830478E+01  0.5263913E-01  0.1981295E+00
 -0.8907410E+01  0.4761110E+01 -0.1027320E+00  0.2384551E+00 -0.1789926E+01  0.5183542E-01  0.2327529E+00
 -0.9331180E+01  0.3865100E+01 -0.1027320E+00  0.2709470E+00 -0.1766404E+01  0.5266193E-01  0.2657800E+00
 -0.9665100E+01  0.2931880E+01 -0.1027320E+00  0.3022988E+00 -0.1753474E+01  0.5491658E-01  0.2972688E+00
 -0.9905930E+01  0.1970410E+01 -0.1027320E+00  0.3321560E+00 -0.1747910E+01  0.5852239E-01  0.3269598E+00
 -0.1005140E+02  0.9899730E+00 -0.1027320E+00  0.3603095E+00 -0.1746581E+01  0.6301130E-01  0.3547569E+00
 -0.1010000E+02 -0.8829700E-06 -0.1027320E+00  0.3857816E+00 -0.1748099E+01  0.6804233E-01  0.3797337E+00
 -0.1005140E+02 -0.9899740E+00 -0.1027320E+00  0.4087976E+00 -0.1751360E+01  0.7341371E-01  0.4021516E+00
 -0.9905930E+01 -0.1970410E+01 -0.1027320E+00  0.4290429E+00 -0.1755790E+01  0.7891809E-01  0.4217224E+00
 -0.9665100E+01 -0.2931880E+01 -0.1027320E+00  0.4468447E+00 -0.1760325E+01  0.8418360E-01  0.4388432E+00
 -0.9331180E+01 -0.3865100E+01 -0.1027320E+00  0.4612375E+00 -0.1764470E+01  0.8877198E-01  0.4526142E+00
 -0.8907400E+01 -0.4761110E+01 -0.1027320E+00  0.4725890E+00 -0.1768048E+01  0.9261560E-01  0.4634250E+00
 -0.8397840E+01 -0.5611260E+01 -0.1027320E+00  0.4805336E+00 -0.1770877E+01  0.9550526E-01  0.4709472E+00
 -0.7807400E+01 -0.6407370E+01 -0.1027320E+00  0.4857447E+00 -0.1772642E+01  0.9738087E-01  0.4758833E+00
 -0.7141780E+01 -0.7141780E+01 -0.1027320E+00  0.4873533E+00 -0.1773207E+01  0.9797343E-01  0.4774038E+00
 -0.6407370E+01 -0.7807410E+01 -0.1027320E+00  0.4857441E+00 -0.1772641E+01  0.9738044E-01  0.4758828E+00
 -0.5611260E+01 -0.8397850E+01 -0.1027320E+00  0.4805337E+00 -0.1770877E+01  0.9550516E-01  0.4709474E+00
 -0.4761110E+01 -0.8907410E+01 -0.1027320E+00  0.4725890E+00 -0.1768048E+01  0.9261565E-01  0.4634250E+00
 -0.3865100E+01 -0.9331190E+01 -0.1027320E+00  0.4612368E+00 -0.1764469E+01  0.8877176E-01  0.4526134E+00
 -0.2931870E+01 -0.9665100E+01 -0.1027320E+00  0.4468440E+00 -0.1760325E+01  0.8418363E-01  0.4388425E+00
 -0.1970410E+01 -0.9905930E+01 -0.1027320E+00  0.4290426E+00 -0.1755789E+01  0.7891795E-01  0.4217221E+00
 -0.9899710E+00 -0.1005140E+02 -0.1027320E+00  0.4087971E+00 -0.1751360E+01  0.7341357E-01  0.4021511E+00
  0.1204410E-06 -0.1010000E+02 -0.1027320E+00  0.3857813E+00 -0.1748100E+01  0.6804246E-01  0.3797334E+00
  0.9899760E+00 -0.1005140E+02 -0.1027320E+00  0.3603090E+00 -0.1746582E+01  0.6301143E-01  0.3547565E+00
  0.1970410E+01 -0.9905930E+01 -0.1027320E+00  0.3321557E+00 -0.1747911E+01  0.5852244E-01  0.3269595E+00
  0.2931880E+01 -0.9665100E+01 -0.1027320E+00  0.3022989E+00 -0.1753474E+01  0.5491651E-01  0.2972689E+00
  0.3865100E+01 -0.9331180E+01 -0.1027320E+00  0.2709468E+00 -0.1766405E+01  0.5266226E-01  0.2657797E+00
  0.4761110E+01 -0.8907410E+01 -0.1027320E+00  0.2384548E+00 -0.1789928E+01  0.5183583E-01  0.2327525E+00
  0.5611260E+01 -0.8397840E+01 -0.1027320E+00  0.2050028E+00 -0.1830479E+01  0.5263934E-01  0.1981294E+00
  0.6407370E+01 -0.7807410E+01 -0.1027320E+00  0.1718576E+00 -0.1897090E+01  0.5508630E-01  0.1627899E+00
  0.7141780E+01 -0.7141780E+01 -0.1027320E+00  0.1404867E+00 -0.2007497E+01  0.5941909E-01  0.1273023E+00
  0.7807410E+01 -0.6407370E+01 -0.1027320E+00  0.1128013E+00 -0.2190580E+01  0.6552169E-01  0.9182068E-01
  0.8397840E+01 -0.5611260E+01 -0.1027320E+00  0.9266473E-01 -0.2485806E+01  0.7344318E-01  0.5650533E-01
