 VARIABLES="X" "Y" "Z" "abs(eta) (m)" "angle(phi) (rad)" "PRE1" "PRE2"
ZONE N=   3200 ,E =    3136 ,F=FEPOINT,ET=QUADRILATERAL
  0.1010000E+02  0.0000000E+00  0.0000000E+00  0.2828052E+00 -0.1839586E+01  0.7510323E-01  0.2726505E+00
  0.1005140E+02  0.9899730E+00  0.0000000E+00  0.2918151E+00 -0.1840160E+01  0.7765724E-01  0.2812924E+00
  0.9905930E+01  0.1970410E+01  0.0000000E+00  0.2992147E+00 -0.1840798E+01  0.7981046E-01  0.2883743E+00
  0.9665100E+01  0.2931880E+01  0.0000000E+00  0.3042044E+00 -0.1841475E+01  0.8133976E-01  0.2931282E+00
  0.9331180E+01  0.3865100E+01  0.0000000E+00  0.3073893E+00 -0.1841679E+01  0.8225200E-01  0.2961804E+00
  0.8907400E+01  0.4761110E+01  0.0000000E+00  0.3077524E+00 -0.1841937E+01  0.8242553E-01  0.2965089E+00
  0.8397840E+01  0.5611260E+01  0.0000000E+00  0.3063130E+00 -0.1841667E+01  0.8196039E-01  0.2951443E+00
  0.7807410E+01  0.6407370E+01  0.0000000E+00  0.3023894E+00 -0.1841195E+01  0.8077290E-01  0.2914020E+00
  0.7141780E+01  0.7141780E+01  0.0000000E+00  0.2967482E+00 -0.1840415E+01  0.7904298E-01  0.2860274E+00
  0.6407370E+01  0.7807410E+01  0.0000000E+00  0.2884096E+00 -0.1840056E+01  0.7672208E-01  0.2780176E+00
  0.5611260E+01  0.8397840E+01  0.0000000E+00  0.2783470E+00 -0.1839668E+01  0.7394113E-01  0.2683464E+00
  0.4761110E+01  0.8907410E+01  0.0000000E+00  0.2660982E+00 -0.1840142E+01  0.7080885E-01  0.2565041E+00
  0.3865100E+01  0.9331180E+01  0.0000000E+00  0.2524788E+00 -0.1841727E+01  0.6757045E-01  0.2432689E+00
  0.2931870E+01  0.9665100E+01  0.0000000E+00  0.2367287E+00 -0.1845809E+01  0.6428589E-01  0.2278329E+00
  0.1970410E+01  0.9905930E+01  0.0000000E+00  0.2196192E+00 -0.1852417E+01  0.6103499E-01  0.2109676E+00
  0.9899730E+00  0.1005140E+02  0.0000000E+00  0.2010373E+00 -0.1863798E+01  0.5806514E-01  0.1924693E+00
 -0.4414850E-06  0.1010000E+02  0.0000000E+00  0.1817582E+00 -0.1881306E+01  0.5553510E-01  0.1730662E+00
 -0.9899740E+00  0.1005140E+02  0.0000000E+00  0.1614332E+00 -0.1909125E+01  0.5358148E-01  0.1522816E+00
 -0.1970410E+01  0.9905930E+01  0.0000000E+00  0.1406351E+00 -0.1950935E+01  0.5218257E-01  0.1305956E+00
 -0.2931880E+01  0.9665100E+01  0.0000000E+00  0.1198209E+00 -0.2015769E+01  0.5157496E-01  0.1081530E+00
 -0.3865100E+01  0.9331180E+01  0.0000000E+00  0.9996129E-01 -0.2114703E+01  0.5172826E-01  0.8553623E-01
 -0.4761110E+01  0.8907400E+01  0.0000000E+00  0.8193135E-01 -0.2270590E+01  0.5276872E-01  0.6267542E-01
 -0.5611260E+01  0.8397840E+01  0.0000000E+00  0.6747221E-01 -0.2513160E+01  0.5458162E-01  0.3966542E-01
 -0.6407370E+01  0.7807410E+01  0.0000000E+00  0.5971184E-01 -0.2853087E+01  0.5724395E-01  0.1698920E-01
 -0.7141780E+01  0.7141780E+01  0.0000000E+00  0.6075451E-01  0.3058045E+01  0.6054259E-01 -0.5070012E-02
 -0.7807410E+01  0.6407370E+01  0.0000000E+00  0.6962054E-01  0.2756165E+01  0.6451301E-01 -0.2617425E-01
 -0.8397840E+01  0.5611260E+01  0.0000000E+00  0.8329466E-01  0.2547287E+01  0.6901275E-01 -0.4663947E-01
 -0.8907410E+01  0.4761110E+01  0.0000000E+00  0.9894628E-01  0.2414265E+01  0.7390830E-01 -0.6578700E-01
 -0.9331180E+01  0.3865100E+01  0.0000000E+00  0.1150285E+00  0.2326975E+01  0.7892645E-01 -0.8367904E-01
 -0.9665100E+01  0.2931880E+01  0.0000000E+00  0.1303201E+00  0.2271070E+01  0.8398184E-01 -0.9965133E-01
 -0.9905930E+01  0.1970410E+01  0.0000000E+00  0.1449376E+00  0.2231978E+01  0.8899888E-01 -0.1143945E+00
 -0.1005140E+02  0.9899730E+00  0.0000000E+00  0.1579343E+00  0.2205939E+01  0.9370119E-01 -0.1271350E+00
 -0.1010000E+02 -0.8829700E-06  0.0000000E+00  0.1694405E+00  0.2186965E+01  0.9792183E-01 -0.1382801E+00
 -0.1005140E+02 -0.9899740E+00  0.0000000E+00  0.1785632E+00  0.2175318E+01  0.1014897E+00 -0.1469172E+00
 -0.9905930E+01 -0.1970410E+01  0.0000000E+00  0.1860767E+00  0.2166786E+01  0.1044501E+00 -0.1539958E+00
 -0.9665100E+01 -0.2931880E+01  0.0000000E+00  0.1911823E+00  0.2161869E+01  0.1065367E+00 -0.1587470E+00
 -0.9331180E+01 -0.3865100E+01  0.0000000E+00  0.1944115E+00  0.2158445E+01  0.1077827E+00 -0.1617983E+00
 -0.8907400E+01 -0.4761110E+01  0.0000000E+00  0.1948131E+00  0.2158506E+01  0.1080154E+00 -0.1621259E+00
 -0.8397840E+01 -0.5611260E+01  0.0000000E+00  0.1933277E+00  0.2159698E+01  0.1073836E+00 -0.1607618E+00
 -0.7807400E+01 -0.6407370E+01  0.0000000E+00  0.1893241E+00  0.2163591E+01  0.1057717E+00 -0.1570221E+00
 -0.7141780E+01 -0.7141780E+01  0.0000000E+00  0.1835462E+00  0.2169221E+01  0.1033992E+00 -0.1516503E+00
 -0.6407370E+01 -0.7807410E+01  0.0000000E+00  0.1751234E+00  0.2179759E+01  0.1001735E+00 -0.1436436E+00
 -0.5611260E+01 -0.8397850E+01  0.0000000E+00  0.1649821E+00  0.2193906E+01  0.9627745E-01 -0.1339766E+00
 -0.4761110E+01 -0.8907410E+01  0.0000000E+00  0.1527936E+00  0.2215344E+01  0.9180408E-01 -0.1221389E+00
 -0.3865100E+01 -0.9331190E+01  0.0000000E+00  0.1394198E+00  0.2245072E+01  0.8704417E-01 -0.1089091E+00
 -0.2931870E+01 -0.9665100E+01  0.0000000E+00  0.1243662E+00  0.2291048E+01  0.8202873E-01 -0.9347860E-01
 -0.1970410E+01 -0.9905930E+01  0.0000000E+00  0.1085434E+00  0.2357922E+01  0.7688425E-01 -0.7661910E-01
 -0.9899710E+00 -0.1005140E+02  0.0000000E+00  0.9242536E-01  0.2461467E+01  0.7186016E-01 -0.5812543E-01
  0.1204410E-06 -0.1010000E+02  0.0000000E+00  0.7752770E-01  0.2618532E+01  0.6716181E-01 -0.3872770E-01
  0.9899760E+00 -0.1005140E+02  0.0000000E+00  0.6542414E-01  0.2863714E+01  0.6291445E-01 -0.1794688E-01
  0.1970410E+01 -0.9905930E+01  0.0000000E+00  0.5924972E-01 -0.3078503E+01  0.5913184E-01  0.3735570E-02
  0.2931880E+01 -0.9665100E+01  0.0000000E+00  0.6187884E-01 -0.2704823E+01  0.5606982E-01  0.2617568E-01
  0.3865100E+01 -0.9331180E+01  0.0000000E+00  0.7258277E-01 -0.2404403E+01  0.5373743E-01  0.4879085E-01
  0.4761110E+01 -0.8907410E+01  0.0000000E+00  0.8869158E-01 -0.2201058E+01  0.5227094E-01  0.7165156E-01
  0.5611260E+01 -0.8397840E+01  0.0000000E+00  0.1077991E+00 -0.2069642E+01  0.5157239E-01  0.9466221E-01
  0.6407370E+01 -0.7807410E+01  0.0000000E+00  0.1282467E+00 -0.1986189E+01  0.5175389E-01  0.1173403E+00
  0.7141780E+01 -0.7141780E+01  0.0000000E+00  0.1490054E+00 -0.1931785E+01  0.5262857E-01  0.1394017E+00
  0.7807410E+01 -0.6407370E+01  0.0000000E+00  0.1694331E+00 -0.1896783E+01  0.5425994E-01  0.1605099E+00
  0.8397840E+01 -0.5611260E+01  0.0000000E+00  0.1895947E+00 -0.1873416E+01  0.5650338E-01  0.1809794E+00
  0.8907410E+01 -0.4761110E+01  0.0000000E+00  0.2087238E+00 -0.1858718E+01  0.5926928E-01  0.2001319E+00
  0.9331180E+01 -0.3865100E+01  0.0000000E+00  0.2267534E+00 -0.1849096E+01  0.6229403E-01  0.2180288E+00
  0.9665100E+01 -0.2931870E+01  0.0000000E+00  0.2430108E+00 -0.1843856E+01  0.6553496E-01  0.2340073E+00
  0.9905930E+01 -0.1970410E+01  0.0000000E+00  0.2581197E+00 -0.1840978E+01  0.6889384E-01  0.2487558E+00
  0.1005140E+02 -0.9899690E+00  0.0000000E+00  0.2712702E+00 -0.1839977E+01  0.7214198E-01  0.2615015E+00
  0.1010000E+02  0.0000000E+00 -0.2568960E-01  0.2826495E+00 -0.1839558E+01  0.7505415E-01  0.2725025E+00
  0.1005140E+02  0.9899730E+00 -0.2568960E-01  0.2916378E+00 -0.1840142E+01  0.7760518E-01  0.2811228E+00
  0.9905930E+01  0.1970410E+01 -0.2568960E-01  0.2988956E+00 -0.1840851E+01  0.7974058E-01  0.2880625E+00
  0.9665100E+01  0.2931880E+01 -0.2568960E-01  0.3040203E+00 -0.1841460E+01  0.8128623E-01  0.2929520E+00
  0.9331180E+01  0.3865100E+01 -0.2568960E-01  0.3072208E+00 -0.1841658E+01  0.8220049E-01  0.2960198E+00
  0.8907400E+01  0.4761110E+01 -0.2568960E-01  0.3075665E+00 -0.1841922E+01  0.8237132E-01  0.2963310E+00
  0.8397840E+01  0.5611260E+01 -0.2568960E-01  0.3059855E+00 -0.1841715E+01  0.8188678E-01  0.2948248E+00
  0.7807410E+01  0.6407370E+01 -0.2568960E-01  0.3022063E+00 -0.1841179E+01  0.8071943E-01  0.2912268E+00
  0.7141780E+01  0.7141780E+01 -0.2568960E-01  0.2965846E+00 -0.1840391E+01  0.7899244E-01  0.2858717E+00
  0.6407370E+01  0.7807410E+01 -0.2568960E-01  0.2882353E+00 -0.1840039E+01  0.7667097E-01  0.2778510E+00
  0.5611260E+01  0.8397840E+01 -0.2568960E-01  0.2780530E+00 -0.1839737E+01  0.7388150E-01  0.2680578E+00
  0.4761110E+01  0.8907410E+01 -0.2568960E-01  0.2659352E+00 -0.1840121E+01  0.7076021E-01  0.2563484E+00
  0.3865100E+01  0.9331180E+01 -0.2568960E-01  0.2523369E+00 -0.1841691E+01  0.6752386E-01  0.2431346E+00
  0.2931870E+01  0.9665100E+01 -0.2568960E-01  0.2365837E+00 -0.1845785E+01  0.6424106E-01  0.2276948E+00
  0.1970410E+01  0.9905930E+01 -0.2568960E-01  0.2193973E+00 -0.1852538E+01  0.6099875E-01  0.2107471E+00
  0.9899730E+00  0.1005140E+02 -0.2568960E-01  0.2009106E+00 -0.1863768E+01  0.5802264E-01  0.1923498E+00
 -0.4414850E-06  0.1010000E+02 -0.2568960E-01  0.1816503E+00 -0.1881248E+01  0.5549218E-01  0.1729666E+00
 -0.9899740E+00  0.1005140E+02 -0.2568960E-01  0.1613306E+00 -0.1909086E+01  0.5354149E-01  0.1521869E+00
 -0.1970410E+01  0.9905930E+01 -0.2568960E-01  0.1405127E+00 -0.1951141E+01  0.5216404E-01  0.1304712E+00
 -0.2931880E+01  0.9665100E+01 -0.2568960E-01  0.1197387E+00 -0.2015733E+01  0.5153558E-01  0.1080807E+00
 -0.3865100E+01  0.9331180E+01 -0.2568960E-01  0.9989042E-01 -0.2114633E+01  0.5168562E-01  0.8547919E-01
 -0.4761110E+01  0.8907400E+01 -0.2568960E-01  0.8187126E-01 -0.2270563E+01  0.5272830E-01  0.6263091E-01
 -0.5611260E+01  0.8397840E+01 -0.2568960E-01  0.6744806E-01 -0.2513172E+01  0.5456260E-01  0.3965053E-01
 -0.6407370E+01  0.7807410E+01 -0.2568960E-01  0.5966470E-01 -0.2853224E+01  0.5720109E-01  0.1696795E-01
 -0.7141780E+01  0.7141780E+01 -0.2568960E-01  0.6070875E-01  0.3057760E+01  0.6049555E-01 -0.5083407E-02
 -0.7807410E+01  0.6407370E+01 -0.2568960E-01  0.6957459E-01  0.2755978E+01  0.6446556E-01 -0.2616899E-01
 -0.8397840E+01  0.5611260E+01 -0.2568960E-01  0.8321261E-01  0.2547905E+01  0.6897356E-01 -0.4655090E-01
 -0.8907410E+01  0.4761110E+01 -0.2568960E-01  0.9889048E-01  0.2414109E+01  0.7385634E-01 -0.6576145E-01
 -0.9331180E+01  0.3865100E+01 -0.2568960E-01  0.1149726E+00  0.2326774E+01  0.7887119E-01 -0.8365419E-01
 -0.9665100E+01  0.2931880E+01 -0.2568960E-01  0.1302470E+00  0.2270960E+01  0.8392374E-01 -0.9960465E-01
 -0.9905930E+01  0.1970410E+01 -0.2568960E-01  0.1447619E+00  0.2232317E+01  0.8892976E-01 -0.1142257E+00
 -0.1005140E+02  0.9899730E+00 -0.2568960E-01  0.1578483E+00  0.2205846E+01  0.9363835E-01 -0.1270745E+00
 -0.1010000E+02 -0.8829700E-06 -0.2568960E-01  0.1693614E+00  0.2186838E+01  0.9785858E-01 -0.1382280E+00
 -0.1005140E+02 -0.9899740E+00 -0.2568960E-01  0.1784648E+00  0.2175239E+01  0.1014222E+00 -0.1468442E+00
 -0.9905930E+01 -0.1970410E+01 -0.2568960E-01  0.1858464E+00  0.2167024E+01  0.1043575E+00 -0.1537804E+00
 -0.9665100E+01 -0.2931880E+01 -0.2568960E-01  0.1910776E+00  0.2161796E+01  0.1064669E+00 -0.1586678E+00
 -0.9331180E+01 -0.3865100E+01 -0.2568960E-01  0.1943207E+00  0.2158338E+01  0.1077152E+00 -0.1617343E+00
 -0.8907400E+01 -0.4761110E+01 -0.2568960E-01  0.1947063E+00  0.2158435E+01  0.1079446E+00 -0.1620447E+00
 -0.8397840E+01 -0.5611260E+01 -0.2568960E-01  0.1930883E+00  0.2159922E+01  0.1072865E+00 -0.1605388E+00
 -0.7807400E+01 -0.6407370E+01 -0.2568960E-01  0.1892199E+00  0.2163518E+01  0.1057021E+00 -0.1569434E+00
 -0.7141780E+01 -0.7141780E+01 -0.2568960E-01  0.1834608E+00  0.2169107E+01  0.1033338E+00 -0.1515915E+00
 -0.6407370E+01 -0.7807410E+01 -0.2568960E-01  0.1750278E+00  0.2179677E+01  0.1001070E+00 -0.1435734E+00
 -0.5611260E+01 -0.8397850E+01 -0.2568960E-01  0.1647794E+00  0.2194192E+01  0.9619743E-01 -0.1337845E+00
 -0.4761110E+01 -0.8907410E+01 -0.2568960E-01  0.1527088E+00  0.2215250E+01  0.9174160E-01 -0.1220797E+00
 -0.3865100E+01 -0.9331190E+01 -0.2568960E-01  0.1393539E+00  0.2244910E+01  0.8698545E-01 -0.1088717E+00
 -0.2931870E+01 -0.9665100E+01 -0.2568960E-01  0.1242981E+00  0.2290926E+01  0.8197244E-01 -0.9343737E-01
 -0.1970410E+01 -0.9905930E+01 -0.2568960E-01  0.1084197E+00  0.2358402E+01  0.7683338E-01 -0.7649487E-01
 -0.9899710E+00 -0.1005140E+02 -0.2568960E-01  0.9237093E-01  0.2461312E+01  0.7180879E-01 -0.5810239E-01
  0.1204410E-06 -0.1010000E+02 -0.2568960E-01  0.7748272E-01  0.2618242E+01  0.6711162E-01 -0.3872471E-01
  0.9899760E+00 -0.1005140E+02 -0.2568960E-01  0.6538031E-01  0.2863500E+01  0.6286845E-01 -0.1794834E-01
  0.1970410E+01 -0.9905930E+01 -0.2568960E-01  0.5922649E-01 -0.3078000E+01  0.5910678E-01  0.3763842E-02
  0.2931880E+01 -0.9665100E+01 -0.2568960E-01  0.6183016E-01 -0.2704882E+01  0.5602726E-01  0.2615175E-01
  0.3865100E+01 -0.9331180E+01 -0.2568960E-01  0.7252386E-01 -0.2404397E+01  0.5369354E-01  0.4875156E-01
  0.4761110E+01 -0.8907410E+01 -0.2568960E-01  0.8862607E-01 -0.2201038E+01  0.5223088E-01  0.7159968E-01
  0.5611260E+01 -0.8397840E+01 -0.2568960E-01  0.1077199E+00 -0.2069870E+01  0.5155609E-01  0.9458091E-01
  0.6407370E+01 -0.7807410E+01 -0.2568960E-01  0.1281620E+00 -0.1986146E+01  0.5171461E-01  0.1172651E+00
  0.7141780E+01 -0.7141780E+01 -0.2568960E-01  0.1489128E+00 -0.1931715E+01  0.5258617E-01  0.1393188E+00
  0.7807410E+01 -0.6407370E+01 -0.2568960E-01  0.1693238E+00 -0.1896748E+01  0.5421926E-01  0.1604083E+00
  0.8397840E+01 -0.5611260E+01 -0.2568960E-01  0.1894101E+00 -0.1873567E+01  0.5647572E-01  0.1807946E+00
  0.8907410E+01 -0.4761110E+01 -0.2568960E-01  0.2085948E+00 -0.1858689E+01  0.5922676E-01  0.2000099E+00
  0.9331180E+01 -0.3865100E+01 -0.2568960E-01  0.2266244E+00 -0.1849052E+01  0.6224899E-01  0.2179075E+00
  0.9665100E+01 -0.2931870E+01 -0.2568960E-01  0.2428608E+00 -0.1843832E+01  0.6548874E-01  0.2338645E+00
  0.9905930E+01 -0.1970410E+01 -0.2568960E-01  0.2578504E+00 -0.1841064E+01  0.6884327E-01  0.2484903E+00
  0.1005140E+02 -0.9899690E+00 -0.2568960E-01  0.2711058E+00 -0.1839957E+01  0.7209323E-01  0.2613444E+00
  0.1010000E+02  0.0000000E+00 -0.1027320E+00  0.2821306E+00 -0.1839532E+01  0.7490939E-01  0.2720042E+00
  0.1005140E+02  0.9899730E+00 -0.1027320E+00  0.2910517E+00 -0.1840149E+01  0.7745115E-01  0.2805573E+00
  0.9905930E+01  0.1970410E+01 -0.1027320E+00  0.2982163E+00 -0.1840902E+01  0.7957417E-01  0.2874037E+00
  0.9665100E+01  0.2931880E+01 -0.1027320E+00  0.3034127E+00 -0.1841472E+01  0.8112734E-01  0.2923656E+00
  0.9331180E+01  0.3865100E+01 -0.1027320E+00  0.3066607E+00 -0.1841650E+01  0.8204817E-01  0.2954808E+00
  0.8907400E+01  0.4761110E+01 -0.1027320E+00  0.3069508E+00 -0.1841936E+01  0.8221050E-01  0.2957367E+00
  0.8397840E+01  0.5611260E+01 -0.1027320E+00  0.3052892E+00 -0.1841766E+01  0.8171546E-01  0.2941498E+00
  0.7807410E+01  0.6407370E+01 -0.1027320E+00  0.3016006E+00 -0.1841190E+01  0.8056076E-01  0.2906422E+00
  0.7141780E+01  0.7141780E+01 -0.1027320E+00  0.2960432E+00 -0.1840374E+01  0.7884362E-01  0.2853511E+00
  0.6407370E+01  0.7807410E+01 -0.1027320E+00  0.2876587E+00 -0.1840046E+01  0.7651969E-01  0.2772945E+00
  0.5611260E+01  0.8397840E+01 -0.1027320E+00  0.2774225E+00 -0.1839792E+01  0.7372864E-01  0.2674460E+00
  0.4761110E+01  0.8907410E+01 -0.1027320E+00  0.2653986E+00 -0.1840119E+01  0.7061680E-01  0.2558314E+00
  0.3865100E+01  0.9331180E+01 -0.1027320E+00  0.2518700E+00 -0.1841642E+01  0.6738698E-01  0.2426881E+00
  0.2931870E+01  0.9665100E+01 -0.1027320E+00  0.2361089E+00 -0.1845773E+01  0.6410941E-01  0.2272386E+00
  0.1970410E+01  0.9905930E+01 -0.1027320E+00  0.2189035E+00 -0.1852605E+01  0.6087555E-01  0.2102687E+00
  0.9899730E+00  0.1005140E+02 -0.1027320E+00  0.2004992E+00 -0.1863743E+01  0.5789907E-01  0.1919574E+00
 -0.4414850E-06  0.1010000E+02 -0.1027320E+00  0.1813025E+00 -0.1881138E+01  0.5536690E-01  0.1726416E+00
 -0.9899740E+00  0.1005140E+02 -0.1027320E+00  0.1610021E+00 -0.1909041E+01  0.5342564E-01  0.1518795E+00
 -0.1970410E+01  0.9905930E+01 -0.1027320E+00  0.1402036E+00 -0.1951234E+01  0.5206138E-01  0.1301793E+00
 -0.2931880E+01  0.9665100E+01 -0.1027320E+00  0.1194838E+00 -0.2015689E+01  0.5142120E-01  0.1078529E+00
 -0.3865100E+01  0.9331180E+01 -0.1027320E+00  0.9967563E-01 -0.2114477E+01  0.5156114E-01  0.8530346E-01
 -0.4761110E+01  0.8907400E+01 -0.1027320E+00  0.8169470E-01 -0.2270507E+01  0.5261107E-01  0.6249880E-01
 -0.5611260E+01  0.8397840E+01 -0.1027320E+00  0.6731348E-01 -0.2513198E+01  0.5445473E-01  0.3957003E-01
 -0.6407370E+01  0.7807410E+01 -0.1027320E+00  0.5953077E-01 -0.2853431E+01  0.5707618E-01  0.1691809E-01
 -0.7141780E+01  0.7141780E+01 -0.1027320E+00  0.6057222E-01  0.3057221E+01  0.6035675E-01 -0.5104531E-02
 -0.7807410E+01  0.6407370E+01 -0.1027320E+00  0.6943010E-01  0.2755770E+01  0.6432625E-01 -0.2612800E-01
 -0.8397840E+01  0.5611260E+01 -0.1027320E+00  0.8302897E-01  0.2548159E+01  0.6883313E-01 -0.4643070E-01
 -0.8907410E+01  0.4761110E+01 -0.1027320E+00  0.9870044E-01  0.2413923E+01  0.7370220E-01 -0.6564878E-01
 -0.9331180E+01  0.3865100E+01 -0.1027320E+00  0.1147770E+00  0.2326415E+01  0.7870710E-01 -0.8354012E-01
 -0.9665100E+01  0.2931880E+01 -0.1027320E+00  0.1299943E+00  0.2270853E+01  0.8375026E-01 -0.9942033E-01
 -0.9905930E+01  0.1970410E+01 -0.1027320E+00  0.1444285E+00  0.2232483E+01  0.8874383E-01 -0.1139478E+00
 -0.1005140E+02  0.9899730E+00 -0.1027320E+00  0.1575477E+00  0.2205768E+01  0.9345011E-01 -0.1268399E+00
 -0.1010000E+02 -0.8829700E-06 -0.1027320E+00  0.1690808E+00  0.2186639E+01  0.9766896E-01 -0.1380185E+00
 -0.1005140E+02 -0.9899740E+00 -0.1027320E+00  0.1781216E+00  0.2175183E+01  0.1012189E+00 -0.1465675E+00
 -0.9905930E+01 -0.1970410E+01 -0.1027320E+00  0.1854161E+00  0.2167158E+01  0.1041363E+00 -0.1534104E+00
 -0.9665100E+01 -0.2931880E+01 -0.1027320E+00  0.1907122E+00  0.2161748E+01  0.1062557E+00 -0.1583694E+00
 -0.9331180E+01 -0.3865100E+01 -0.1027320E+00  0.1940000E+00  0.2158185E+01  0.1075128E+00 -0.1614837E+00
 -0.8907400E+01 -0.4761110E+01 -0.1027320E+00  0.1943334E+00  0.2158391E+01  0.1077309E+00 -0.1617391E+00
 -0.8397840E+01 -0.5611260E+01 -0.1027320E+00  0.1926409E+00  0.2160051E+01  0.1070586E+00 -0.1601530E+00
 -0.7807400E+01 -0.6407370E+01 -0.1027320E+00  0.1888568E+00  0.2163470E+01  0.1054918E+00 -0.1566473E+00
 -0.7141780E+01 -0.7141780E+01 -0.1027320E+00  0.1831574E+00  0.2168936E+01  0.1031370E+00 -0.1513585E+00
 -0.6407370E+01 -0.7807410E+01 -0.1027320E+00  0.1746942E+00  0.2179616E+01  0.9990751E-01 -0.1433058E+00
 -0.5611260E+01 -0.8397850E+01 -0.1027320E+00  0.1643984E+00  0.2194340E+01  0.9599484E-01 -0.1334610E+00
 -0.4761110E+01 -0.8907410E+01 -0.1027320E+00  0.1524142E+00  0.2215170E+01  0.9155484E-01 -0.1218515E+00
 -0.3865100E+01 -0.9331190E+01 -0.1027320E+00  0.1391212E+00  0.2244636E+01  0.8681037E-01 -0.1087137E+00
 -0.2931870E+01 -0.9665100E+01 -0.1027320E+00  0.1240612E+00  0.2290799E+01  0.8180431E-01 -0.9326967E-01
 -0.1970410E+01 -0.9905930E+01 -0.1027320E+00  0.1081733E+00  0.2358614E+01  0.7667496E-01 -0.7630475E-01
 -0.9899710E+00 -0.1005140E+02 -0.1027320E+00  0.9218750E-01  0.2461143E+01  0.7165639E-01 -0.5799911E-01
  0.1204410E-06 -0.1010000E+02 -0.1027320E+00  0.7733626E-01  0.2617695E+01  0.6696360E-01 -0.3868816E-01
  0.9899760E+00 -0.1005140E+02 -0.1027320E+00  0.6524547E-01  0.2863205E+01  0.6273351E-01 -0.1792981E-01
  0.1970410E+01 -0.9905930E+01 -0.1027320E+00  0.5910884E-01 -0.3077822E+01  0.5898869E-01  0.3766823E-02
  0.2931880E+01 -0.9665100E+01 -0.1027320E+00  0.6169229E-01 -0.2704928E+01  0.5590354E-01  0.2609087E-01
  0.3865100E+01 -0.9331180E+01 -0.1027320E+00  0.7235289E-01 -0.2404363E+01  0.5356530E-01  0.4863846E-01
  0.4761110E+01 -0.8907410E+01 -0.1027320E+00  0.8843122E-01 -0.2201022E+01  0.5211492E-01  0.7144309E-01
  0.5611260E+01 -0.8397840E+01 -0.1027320E+00  0.1074886E+00 -0.2069971E+01  0.5145493E-01  0.9437258E-01
  0.6407370E+01 -0.7807410E+01 -0.1027320E+00  0.1278976E+00 -0.1986085E+01  0.5160078E-01  0.1170263E+00
  0.7141780E+01 -0.7141780E+01 -0.1027320E+00  0.1486187E+00 -0.1931576E+01  0.5246298E-01  0.1390509E+00
  0.7807410E+01 -0.6407370E+01 -0.1027320E+00  0.1689737E+00 -0.1896712E+01  0.5410135E-01  0.1600786E+00
  0.8397840E+01 -0.5611260E+01 -0.1027320E+00  0.1889862E+00 -0.1873644E+01  0.5636312E-01  0.1803856E+00
