 VARIABLES="X" "Y" "Z" "abs(eta) (m)" "angle(phi) (rad)" "PRE1" "PRE2"
ZONE N=   3200 ,E =    3136 ,F=FEPOINT,ET=QUADRILATERAL
  0.1010000E+02  0.0000000E+00  0.0000000E+00  0.7319357E-01 -0.3088765E+01  0.7309145E-01  0.3864837E-02
  0.1005140E+02  0.9899730E+00  0.0000000E+00  0.8270883E-01  0.2867234E+01  0.7961545E-01 -0.2240825E-01
  0.9905930E+01  0.1970410E+01  0.0000000E+00  0.9933200E-01  0.2638566E+01  0.8702748E-01 -0.4788594E-01
  0.9665100E+01  0.2931880E+01  0.0000000E+00  0.1192166E+00  0.2492123E+01  0.9494463E-01 -0.7209788E-01
  0.9331180E+01  0.3865100E+01  0.0000000E+00  0.1394537E+00  0.2400780E+01  0.1029058E+00 -0.9411556E-01
  0.8907400E+01  0.4761110E+01  0.0000000E+00  0.1589304E+00  0.2342816E+01  0.1108673E+00 -0.1138741E+00
  0.8397840E+01  0.5611260E+01  0.0000000E+00  0.1774742E+00  0.2304182E+01  0.1187993E+00 -0.1318478E+00
  0.7807410E+01  0.6407370E+01  0.0000000E+00  0.1945405E+00  0.2277153E+01  0.1262697E+00 -0.1479932E+00
  0.7141780E+01  0.7141780E+01  0.0000000E+00  0.2091016E+00  0.2258970E+01  0.1328062E+00 -0.1615115E+00
  0.6407370E+01  0.7807410E+01  0.0000000E+00  0.2208616E+00  0.2247748E+01  0.1383521E+00 -0.1721586E+00
  0.5611260E+01  0.8397840E+01  0.0000000E+00  0.2301841E+00  0.2240631E+01  0.1429113E+00 -0.1804469E+00
  0.4761110E+01  0.8907410E+01  0.0000000E+00  0.2371797E+00  0.2235296E+01  0.1462604E+00 -0.1867139E+00
  0.3865100E+01  0.9331180E+01  0.0000000E+00  0.2411720E+00  0.2232295E+01  0.1481520E+00 -0.1903022E+00
  0.2931870E+01  0.9665100E+01  0.0000000E+00  0.2418174E+00  0.2232250E+01  0.1485398E+00 -0.1908182E+00
  0.1970410E+01  0.9905930E+01  0.0000000E+00  0.2394879E+00  0.2234113E+01  0.1474608E+00 -0.1887055E+00
  0.9899730E+00  0.1005140E+02  0.0000000E+00  0.2347155E+00  0.2236858E+01  0.1450293E+00 -0.1845477E+00
 -0.4414850E-06  0.1010000E+02  0.0000000E+00  0.2272128E+00  0.2242177E+01  0.1413419E+00 -0.1778993E+00
 -0.9899740E+00  0.1005140E+02  0.0000000E+00  0.2165846E+00  0.2251927E+01  0.1363773E+00 -0.1682561E+00
 -0.1970410E+01  0.9905930E+01  0.0000000E+00  0.2031386E+00  0.2266474E+01  0.1301926E+00 -0.1559332E+00
 -0.2931880E+01  0.9665100E+01  0.0000000E+00  0.1877412E+00  0.2286544E+01  0.1231923E+00 -0.1416701E+00
 -0.3865100E+01  0.9331180E+01  0.0000000E+00  0.1706158E+00  0.2316427E+01  0.1157518E+00 -0.1253446E+00
 -0.4761110E+01  0.8907400E+01  0.0000000E+00  0.1515700E+00  0.2362866E+01  0.1078889E+00 -0.1064587E+00
 -0.5611260E+01  0.8397840E+01  0.0000000E+00  0.1310740E+00  0.2434557E+01  0.9965435E-01 -0.8514344E-01
 -0.6407370E+01  0.7807410E+01  0.0000000E+00  0.1107293E+00  0.2544146E+01  0.9154821E-01 -0.6228890E-01
 -0.7141780E+01  0.7141780E+01  0.0000000E+00  0.9227815E-01  0.2714898E+01  0.8400436E-01 -0.3819063E-01
 -0.7807410E+01  0.6407370E+01  0.0000000E+00  0.7806185E-01  0.2981519E+01  0.7706387E-01 -0.1244233E-01
 -0.8397840E+01  0.5611260E+01  0.0000000E+00  0.7232370E-01 -0.2932937E+01  0.7075502E-01  0.1498148E-01
 -0.8907410E+01  0.4761110E+01  0.0000000E+00  0.7835365E-01 -0.2558393E+01  0.6540216E-01  0.4314919E-01
 -0.9331180E+01  0.3865100E+01  0.0000000E+00  0.9403238E-01 -0.2280088E+01  0.6124298E-01  0.7135395E-01
 -0.9665100E+01  0.2931880E+01  0.0000000E+00  0.1156341E+00 -0.2099307E+01  0.5830827E-01  0.9985686E-01
 -0.9905930E+01  0.1970410E+01  0.0000000E+00  0.1407332E+00 -0.1984592E+01  0.5658704E-01  0.1288555E+00
 -0.1005140E+02  0.9899730E+00  0.0000000E+00  0.1672032E+00 -0.1912710E+01  0.5606169E-01  0.1575246E+00
 -0.1010000E+02 -0.8829700E-06  0.0000000E+00  0.1934324E+00 -0.1867909E+01  0.5662942E-01  0.1849573E+00
 -0.1005140E+02 -0.9899740E+00  0.0000000E+00  0.2191423E+00 -0.1840062E+01  0.5829700E-01  0.2112459E+00
 -0.9905930E+01 -0.1970410E+01  0.0000000E+00  0.2444806E+00 -0.1823053E+01  0.6101992E-01  0.2367431E+00
 -0.9665100E+01 -0.2931880E+01  0.0000000E+00  0.2688212E+00 -0.1813008E+01  0.6447697E-01  0.2609743E+00
 -0.9331180E+01 -0.3865100E+01  0.0000000E+00  0.2911396E+00 -0.1807626E+01  0.6830768E-01  0.2830130E+00
 -0.8907400E+01 -0.4761110E+01  0.0000000E+00  0.3113532E+00 -0.1805799E+01  0.7249719E-01  0.3027952E+00
 -0.8397840E+01 -0.5611260E+01  0.0000000E+00  0.3299032E+00 -0.1806368E+01  0.7699894E-01  0.3207917E+00
 -0.7807400E+01 -0.6407370E+01  0.0000000E+00  0.3466523E+00 -0.1807850E+01  0.8140761E-01  0.3369578E+00
 -0.7141780E+01 -0.7141780E+01  0.0000000E+00  0.3607349E+00 -0.1809630E+01  0.8533874E-01  0.3504953E+00
 -0.6407370E+01 -0.7807410E+01  0.0000000E+00  0.3719094E+00 -0.1811814E+01  0.8877152E-01  0.3611596E+00
 -0.5611260E+01 -0.8397850E+01  0.0000000E+00  0.3806677E+00 -0.1814031E+01  0.9168145E-01  0.3694623E+00
 -0.4761110E+01 -0.8907410E+01  0.0000000E+00  0.3872779E+00 -0.1815521E+01  0.9383316E-01  0.3757386E+00
 -0.3865100E+01 -0.9331190E+01  0.0000000E+00  0.3910568E+00 -0.1816293E+01  0.9504169E-01  0.3793317E+00
 -0.2931870E+01 -0.9665100E+01  0.0000000E+00  0.3916218E+00 -0.1816604E+01  0.9529702E-01  0.3798501E+00
 -0.1970410E+01 -0.9905930E+01  0.0000000E+00  0.3894012E+00 -0.1816193E+01  0.9460142E-01  0.3777351E+00
 -0.9899710E+00 -0.1005140E+02  0.0000000E+00  0.3849756E+00 -0.1814836E+01  0.9301940E-01  0.3735688E+00
  0.1204410E-06 -0.1010000E+02  0.0000000E+00  0.3779468E+00 -0.1813074E+01  0.9067504E-01  0.3669085E+00
  0.9899760E+00 -0.1005140E+02  0.0000000E+00  0.3678294E+00 -0.1811202E+01  0.8757894E-01  0.3572511E+00
  0.1970410E+01 -0.9905930E+01  0.0000000E+00  0.3549331E+00 -0.1809008E+01  0.8375172E-01  0.3449103E+00
  0.2931880E+01 -0.9665100E+01  0.0000000E+00  0.3400535E+00 -0.1806820E+01  0.7951764E-01  0.3306257E+00
  0.3865100E+01 -0.9331180E+01  0.0000000E+00  0.3231594E+00 -0.1805786E+01  0.7524206E-01  0.3142780E+00
  0.4761110E+01 -0.8907410E+01  0.0000000E+00  0.3037749E+00 -0.1806582E+01  0.7096384E-01  0.2953698E+00
  0.5611260E+01 -0.8397840E+01  0.0000000E+00  0.2820346E+00 -0.1809561E+01  0.6670177E-01  0.2740335E+00
  0.6407370E+01 -0.7807410E+01  0.0000000E+00  0.2589028E+00 -0.1816034E+01  0.6285830E-01  0.2511563E+00
  0.7141780E+01 -0.7141780E+01  0.0000000E+00  0.2347863E+00 -0.1828415E+01  0.5981859E-01  0.2270382E+00
  0.7807410E+01 -0.6407370E+01  0.0000000E+00  0.2093624E+00 -0.1849679E+01  0.5763352E-01  0.2012734E+00
  0.8397840E+01 -0.5611260E+01  0.0000000E+00  0.1827288E+00 -0.1884038E+01  0.5630687E-01  0.1738371E+00
  0.8907410E+01 -0.4761110E+01  0.0000000E+00  0.1560753E+00 -0.1938220E+01  0.5606419E-01  0.1456582E+00
  0.9331180E+01 -0.3865100E+01  0.0000000E+00  0.1305759E+00 -0.2023066E+01  0.5706270E-01  0.1174474E+00
  0.9665100E+01 -0.2931870E+01  0.0000000E+00  0.1069158E+00 -0.2159068E+01  0.5933016E-01  0.8894335E-01
  0.9905930E+01 -0.1970410E+01  0.0000000E+00  0.8685181E-01 -0.2379756E+01  0.6284335E-01  0.5994956E-01
  0.1005140E+02 -0.9899690E+00  0.0000000E+00  0.7439532E-01 -0.2707544E+01  0.6749669E-01  0.3128676E-01
  0.1010000E+02  0.0000000E+00 -0.2568960E-01  0.7312415E-01 -0.3088872E+01  0.7302254E-01  0.3853388E-02
  0.1005140E+02  0.9899730E+00 -0.2568960E-01  0.8263706E-01  0.2866857E+01  0.7953792E-01 -0.2241881E-01
  0.9905930E+01  0.1970410E+01 -0.2568960E-01  0.9924499E-01  0.2638498E+01  0.8694800E-01 -0.4784990E-01
  0.9665100E+01  0.2931880E+01 -0.2568960E-01  0.1191280E+00  0.2491867E+01  0.9485570E-01 -0.7206862E-01
  0.9331180E+01  0.3865100E+01 -0.2568960E-01  0.1393367E+00  0.2400713E+01  0.1028131E+00 -0.9404355E-01
  0.8907400E+01  0.4761110E+01 -0.2568960E-01  0.1588250E+00  0.2342620E+01  0.1107715E+00 -0.1138204E+00
  0.8397840E+01  0.5611260E+01 -0.2568960E-01  0.1773215E+00  0.2304152E+01  0.1186931E+00 -0.1317379E+00
  0.7807410E+01  0.6407370E+01 -0.2568960E-01  0.1944087E+00  0.2277009E+01  0.1261629E+00 -0.1479111E+00
  0.7141780E+01  0.7141780E+01 -0.2568960E-01  0.2089273E+00  0.2258933E+01  0.1326895E+00 -0.1613819E+00
  0.6407370E+01  0.7807410E+01 -0.2568960E-01  0.2207164E+00  0.2247627E+01  0.1382403E+00 -0.1720620E+00
  0.5611260E+01  0.8397840E+01 -0.2568960E-01  0.2299856E+00  0.2240612E+01  0.1427846E+00 -0.1802941E+00
  0.4761110E+01  0.8907410E+01 -0.2568960E-01  0.2370220E+00  0.2235187E+01  0.1461430E+00 -0.1866056E+00
  0.3865100E+01  0.9331180E+01 -0.2568960E-01  0.2409716E+00  0.2232265E+01  0.1480232E+00 -0.1901485E+00
  0.2931870E+01  0.9665100E+01 -0.2568960E-01  0.2416571E+00  0.2232146E+01  0.1484215E+00 -0.1907071E+00
  0.1970410E+01  0.9905930E+01 -0.2568960E-01  0.2392816E+00  0.2234093E+01  0.1473300E+00 -0.1885459E+00
  0.9899730E+00  0.1005140E+02 -0.2568960E-01  0.2345607E+00  0.2236748E+01  0.1449134E+00 -0.1844418E+00
 -0.4414850E-06  0.1010000E+02 -0.2568960E-01  0.2270239E+00  0.2242145E+01  0.1412186E+00 -0.1777559E+00
 -0.9899740E+00  0.1005140E+02 -0.2568960E-01  0.2164399E+00  0.2251803E+01  0.1362653E+00 -0.1681607E+00
 -0.1970410E+01  0.9905930E+01 -0.2568960E-01  0.2029638E+00  0.2266449E+01  0.1300768E+00 -0.1558022E+00
 -0.2931880E+01  0.9665100E+01 -0.2568960E-01  0.1876172E+00  0.2286390E+01  0.1230892E+00 -0.1415954E+00
 -0.3865100E+01  0.9331180E+01 -0.2568960E-01  0.1704734E+00  0.2316374E+01  0.1156486E+00 -0.1252461E+00
 -0.4761110E+01  0.8907400E+01 -0.2568960E-01  0.1514642E+00  0.2362668E+01  0.1077925E+00 -0.1064058E+00
 -0.5611260E+01  0.8397840E+01 -0.2568960E-01  0.1309605E+00  0.2434510E+01  0.9956403E-01 -0.8507442E-01
 -0.6407370E+01  0.7807410E+01 -0.2568960E-01  0.1106495E+00  0.2543847E+01  0.9146357E-01 -0.6227140E-01
 -0.7141780E+01  0.7141780E+01 -0.2568960E-01  0.9219712E-01  0.2714786E+01  0.8392632E-01 -0.3816650E-01
 -0.7807410E+01  0.6407370E+01 -0.2568960E-01  0.7798683E-01  0.2981210E+01  0.7698596E-01 -0.1245421E-01
 -0.8397840E+01  0.5611260E+01 -0.2568960E-01  0.7225561E-01 -0.2933003E+01  0.7068940E-01  0.1496270E-01
 -0.8907410E+01  0.4761110E+01 -0.2568960E-01  0.7826523E-01 -0.2558501E+01  0.6533304E-01  0.4309339E-01
 -0.9331180E+01  0.3865100E+01 -0.2568960E-01  0.9394170E-01 -0.2280086E+01  0.6118374E-01  0.7128529E-01
 -0.9665100E+01  0.2931880E+01 -0.2568960E-01  0.1155247E+00 -0.2099213E+01  0.5824365E-01  0.9976789E-01
 -0.9905930E+01  0.1970410E+01 -0.2568960E-01  0.1406034E+00 -0.1984585E+01  0.5653394E-01  0.1287371E+00
 -0.1005140E+02  0.9899730E+00 -0.2568960E-01  0.1670554E+00 -0.1912630E+01  0.5599958E-01  0.1573898E+00
 -0.1010000E+02 -0.8829700E-06 -0.2568960E-01  0.1932589E+00 -0.1867892E+01  0.5657541E-01  0.1847924E+00
 -0.1005140E+02 -0.9899740E+00 -0.2568960E-01  0.2189663E+00 -0.1839998E+01  0.5823682E-01  0.2110799E+00
 -0.9905930E+01 -0.1970410E+01 -0.2568960E-01  0.2442607E+00 -0.1823048E+01  0.6096388E-01  0.2365306E+00
 -0.9665100E+01 -0.2931880E+01 -0.2568960E-01  0.2686061E+00 -0.1812963E+01  0.6441340E-01  0.2607684E+00
 -0.9331180E+01 -0.3865100E+01 -0.2568960E-01  0.2908840E+00 -0.1807618E+01  0.6824544E-01  0.2827650E+00
 -0.8907400E+01 -0.4761110E+01 -0.2568960E-01  0.3111137E+00 -0.1805770E+01  0.7243253E-01  0.3025645E+00
 -0.8397840E+01 -0.5611260E+01 -0.2568960E-01  0.3296089E+00 -0.1806367E+01  0.7693008E-01  0.3205055E+00
 -0.7807400E+01 -0.6407370E+01 -0.2568960E-01  0.3463850E+00 -0.1807828E+01  0.8133766E-01  0.3366998E+00
 -0.7141780E+01 -0.7141780E+01 -0.2568960E-01  0.3604202E+00 -0.1809629E+01  0.8526423E-01  0.3501896E+00
 -0.6407370E+01 -0.7807410E+01 -0.2568960E-01  0.3716269E+00 -0.1811805E+01  0.8870056E-01  0.3608861E+00
 -0.5611260E+01 -0.8397850E+01 -0.2568960E-01  0.3803290E+00 -0.1814034E+01  0.9160087E-01  0.3691334E+00
 -0.4761110E+01 -0.8907410E+01 -0.2568960E-01  0.3869832E+00 -0.1815513E+01  0.9375893E-01  0.3754534E+00
 -0.3865100E+01 -0.9331190E+01 -0.2568960E-01  0.3907163E+00 -0.1816295E+01  0.9495983E-01  0.3790011E+00
 -0.2931870E+01 -0.9665100E+01 -0.2568960E-01  0.3913246E+00 -0.1816598E+01  0.9522247E-01  0.3795624E+00
 -0.1970410E+01 -0.9905930E+01 -0.2568960E-01  0.3890546E+00 -0.1816195E+01  0.9451830E-01  0.3773987E+00
 -0.9899710E+00 -0.1005140E+02 -0.2568960E-01  0.3846832E+00 -0.1814829E+01  0.9294637E-01  0.3732856E+00
  0.1204410E-06 -0.1010000E+02 -0.2568960E-01  0.3776169E+00 -0.1813076E+01  0.9059645E-01  0.3665881E+00
  0.9899760E+00 -0.1005140E+02 -0.2568960E-01  0.3675474E+00 -0.1811189E+01  0.8750705E-01  0.3569784E+00
  0.1970410E+01 -0.9905930E+01 -0.2568960E-01  0.3546172E+00 -0.1809008E+01  0.8367746E-01  0.3446034E+00
  0.2931880E+01 -0.9665100E+01 -0.2568960E-01  0.3397937E+00 -0.1806801E+01  0.7945053E-01  0.3303746E+00
  0.3865100E+01 -0.9331180E+01 -0.2568960E-01  0.3228769E+00 -0.1805781E+01  0.7517473E-01  0.3140036E+00
  0.4761110E+01 -0.8907410E+01 -0.2568960E-01  0.3035366E+00 -0.1806546E+01  0.7089765E-01  0.2951406E+00
  0.5611260E+01 -0.8397840E+01 -0.2568960E-01  0.2817820E+00 -0.1809558E+01  0.6664126E-01  0.2737883E+00
  0.6407370E+01 -0.7807410E+01 -0.2568960E-01  0.2586993E+00 -0.1815987E+01  0.6279687E-01  0.2509619E+00
  0.7141780E+01 -0.7141780E+01 -0.2568960E-01  0.2345781E+00 -0.1828403E+01  0.5976263E-01  0.2268376E+00
  0.7807410E+01 -0.6407370E+01 -0.2568960E-01  0.2091870E+00 -0.1849612E+01  0.5757182E-01  0.2011087E+00
  0.8397840E+01 -0.5611260E+01 -0.2568960E-01  0.1825626E+00 -0.1884031E+01  0.5625437E-01  0.1736795E+00
  0.8907410E+01 -0.4761110E+01 -0.2568960E-01  0.1559407E+00 -0.1938128E+01  0.5600249E-01  0.1455377E+00
  0.9331180E+01 -0.3865100E+01 -0.2568960E-01  0.1304550E+00 -0.2023049E+01  0.5700792E-01  0.1173397E+00
  0.9665100E+01 -0.2931870E+01 -0.2568960E-01  0.1068068E+00 -0.2159015E+01  0.5926495E-01  0.8885585E-01
  0.9905930E+01 -0.1970410E+01 -0.2568960E-01  0.8676913E-01 -0.2379773E+01  0.6278452E-01  0.5989146E-01
  0.1005140E+02 -0.9899690E+00 -0.2568960E-01  0.7431267E-01 -0.2707652E+01  0.6742507E-01  0.3124473E-01
  0.1010000E+02  0.0000000E+00 -0.1027320E+00  0.7291457E-01 -0.3089033E+01  0.7281388E-01  0.3830580E-02
  0.1005140E+02  0.9899730E+00 -0.1027320E+00  0.8241468E-01  0.2866374E+01  0.7931306E-01 -0.2239681E-01
  0.9905930E+01  0.1970410E+01 -0.1027320E+00  0.9897384E-01  0.2638429E+01  0.8670715E-01 -0.4772516E-01
  0.9665100E+01  0.2931880E+01 -0.1027320E+00  0.1188153E+00  0.2491628E+01  0.9458953E-01 -0.7190203E-01
  0.9331180E+01  0.3865100E+01 -0.1027320E+00  0.1389690E+00  0.2400624E+01  0.1025334E+00 -0.9380450E-01
  0.8907400E+01  0.4761110E+01 -0.1027320E+00  0.1584364E+00  0.2342436E+01  0.1104795E+00 -0.1135622E+00
  0.8397840E+01  0.5611260E+01 -0.1027320E+00  0.1768442E+00  0.2304157E+01  0.1183742E+00 -0.1313826E+00
  0.7807410E+01  0.6407370E+01 -0.1027320E+00  0.1939202E+00  0.2276899E+01  0.1258297E+00 -0.1475532E+00
  0.7141780E+01  0.7141780E+01 -0.1027320E+00  0.2083809E+00  0.2258921E+01  0.1323406E+00 -0.1609614E+00
  0.6407370E+01  0.7807410E+01 -0.1027320E+00  0.2201745E+00  0.2247553E+01  0.1378883E+00 -0.1716498E+00
  0.5611260E+01  0.8397840E+01 -0.1027320E+00  0.2293680E+00  0.2240643E+01  0.1424067E+00 -0.1798054E+00
  0.4761110E+01  0.8907410E+01 -0.1027320E+00  0.2364339E+00  0.2235131E+01  0.1457698E+00 -0.1861508E+00
  0.3865100E+01  0.9331180E+01 -0.1027320E+00  0.2403416E+00  0.2232277E+01  0.1476384E+00 -0.1896496E+00
  0.2931870E+01  0.9665100E+01 -0.1027320E+00  0.2410599E+00  0.2232092E+01  0.1480445E+00 -0.1902438E+00
  0.1970410E+01  0.9905930E+01 -0.1027320E+00  0.2386386E+00  0.2234131E+01  0.1469413E+00 -0.1880337E+00
  0.9899730E+00  0.1005140E+02 -0.1027320E+00  0.2339832E+00  0.2236691E+01  0.1445461E+00 -0.1839962E+00
 -0.4414850E-06  0.1010000E+02 -0.1027320E+00  0.2264298E+00  0.2242149E+01  0.1408497E+00 -0.1772902E+00
 -0.9899740E+00  0.1005140E+02 -0.1027320E+00  0.2158991E+00  0.2251722E+01  0.1359111E+00 -0.1677515E+00
 -0.1970410E+01  0.9905930E+01 -0.1027320E+00  0.2024182E+00  0.2266470E+01  0.1297304E+00 -0.1553807E+00
 -0.2931880E+01  0.9665100E+01 -0.1027320E+00  0.1871582E+00  0.2286264E+01  0.1227703E+00 -0.1412645E+00
 -0.3865100E+01  0.9331180E+01 -0.1027320E+00  0.1700260E+00  0.2316326E+01  0.1153391E+00 -0.1249230E+00
 -0.4761110E+01  0.8907400E+01 -0.1027320E+00  0.1510764E+00  0.2362494E+01  0.1074980E+00 -0.1061521E+00
 -0.5611260E+01  0.8397840E+01 -0.1027320E+00  0.1306065E+00  0.2434476E+01  0.9929209E-01 -0.8484774E-01
 -0.6407370E+01  0.7807410E+01 -0.1027320E+00  0.1103723E+00  0.2543502E+01  0.9121306E-01 -0.6214685E-01
 -0.7141780E+01  0.7141780E+01 -0.1027320E+00  0.9194676E-01  0.2714615E+01  0.8369190E-01 -0.3807718E-01
 -0.7807410E+01  0.6407370E+01 -0.1027320E+00  0.7776151E-01  0.2980961E+01  0.7676043E-01 -0.1243735E-01
 -0.8397840E+01  0.5611260E+01 -0.1027320E+00  0.7205005E-01 -0.2933066E+01  0.7048923E-01  0.1491569E-01
 -0.8907410E+01  0.4761110E+01 -0.1027320E+00  0.7802331E-01 -0.2558686E+01  0.6513902E-01  0.4294816E-01
 -0.9331180E+01  0.3865100E+01 -0.1027320E+00  0.9367110E-01 -0.2280040E+01  0.6100423E-01  0.7108276E-01
 -0.9665100E+01  0.2931880E+01 -0.1027320E+00  0.1152045E+00 -0.2099040E+01  0.5806502E-01  0.9950139E-01
 -0.9905930E+01  0.1970410E+01 -0.1027320E+00  0.1402104E+00 -0.1984549E+01  0.5637134E-01  0.1283793E+00
 -0.1005140E+02  0.9899730E+00 -0.1027320E+00  0.1665886E+00 -0.1912534E+01  0.5582792E-01  0.1569555E+00
 -0.1010000E+02 -0.8829700E-06 -0.1027320E+00  0.1927281E+00 -0.1867843E+01  0.5641110E-01  0.1842876E+00
 -0.1005140E+02 -0.9899740E+00 -0.1027320E+00  0.2183913E+00 -0.1839922E+01  0.5806785E-01  0.2105301E+00
 -0.9905930E+01 -0.1970410E+01 -0.1027320E+00  0.2435865E+00 -0.1823044E+01  0.6079460E-01  0.2358779E+00
 -0.9665100E+01 -0.2931880E+01 -0.1027320E+00  0.2678875E+00 -0.1812916E+01  0.6422906E-01  0.2600738E+00
 -0.9331180E+01 -0.3865100E+01 -0.1027320E+00  0.2900948E+00 -0.1807617E+01  0.6806004E-01  0.2819979E+00
 -0.8907400E+01 -0.4761110E+01 -0.1027320E+00  0.3103049E+00 -0.1805763E+01  0.7224219E-01  0.3017784E+00
 -0.8397840E+01 -0.5611260E+01 -0.1027320E+00  0.3287027E+00 -0.1806391E+01  0.7672608E-01  0.3196226E+00
 -0.7807400E+01 -0.6407370E+01 -0.1027320E+00  0.3454734E+00 -0.1807830E+01  0.8112434E-01  0.3358135E+00
 -0.7141780E+01 -0.7141780E+01 -0.1027320E+00  0.3594462E+00 -0.1809659E+01  0.8504430E-01  0.3492407E+00
 -0.6407370E+01 -0.7807410E+01 -0.1027320E+00  0.3706612E+00 -0.1811832E+01  0.8847982E-01  0.3599459E+00
 -0.5611260E+01 -0.8397850E+01 -0.1027320E+00  0.3792844E+00 -0.1814074E+01  0.9136388E-01  0.3681159E+00
 -0.4761110E+01 -0.8907410E+01 -0.1027320E+00  0.3859729E+00 -0.1815543E+01  0.9352530E-01  0.3744704E+00
 -0.3865100E+01 -0.9331190E+01 -0.1027320E+00  0.3896616E+00 -0.1816338E+01  0.9471960E-01  0.3779740E+00
 -0.2931870E+01 -0.9665100E+01 -0.1027320E+00  0.3903049E+00 -0.1816632E+01  0.9498719E-01  0.3785702E+00
 -0.1970410E+01 -0.9905930E+01 -0.1027320E+00  0.3879867E+00 -0.1816237E+01  0.9427454E-01  0.3763588E+00
 -0.9899710E+00 -0.1005140E+02 -0.1027320E+00  0.3836829E+00 -0.1814862E+01  0.9271677E-01  0.3723119E+00
  0.1204410E-06 -0.1010000E+02 -0.1027320E+00  0.3765976E+00 -0.1813113E+01  0.9036529E-01  0.3655952E+00
  0.9899760E+00 -0.1005140E+02 -0.1027320E+00  0.3665840E+00 -0.1811204E+01  0.8728303E-01  0.3560414E+00
  0.1970410E+01 -0.9905930E+01 -0.1027320E+00  0.3536425E+00 -0.1809040E+01  0.8345817E-01  0.3436535E+00
  0.2931880E+01 -0.9665100E+01 -0.1027320E+00  0.3389109E+00 -0.1806811E+01  0.7924756E-01  0.3295155E+00
  0.3865100E+01 -0.9331180E+01 -0.1027320E+00  0.3220028E+00 -0.1805794E+01  0.7497551E-01  0.3131524E+00
  0.4761110E+01 -0.8907410E+01 -0.1027320E+00  0.3027310E+00 -0.1806522E+01  0.7070237E-01  0.2943590E+00
  0.5611260E+01 -0.8397840E+01 -0.1027320E+00  0.2810062E+00 -0.1809565E+01  0.6645980E-01  0.2730341E+00
  0.6407370E+01 -0.7807410E+01 -0.1027320E+00  0.2580243E+00 -0.1815943E+01  0.6262221E-01  0.2503098E+00
  0.7141780E+01 -0.7141780E+01 -0.1027320E+00  0.2339383E+00 -0.1828375E+01  0.5959347E-01  0.2262205E+00
  0.7807410E+01 -0.6407370E+01 -0.1027320E+00  0.2086159E+00 -0.1849532E+01  0.5739868E-01  0.2005641E+00
  0.8397840E+01 -0.5611260E+01 -0.1027320E+00  0.1820560E+00 -0.1884005E+01  0.5609378E-01  0.1731990E+00
