 VARIABLES="X" "Y" "Z" "abs(eta) (m)" "angle(phi) (rad)" "PRE1" "PRE2"
ZONE N=   3200 ,E =    3136 ,F=FEPOINT,ET=QUADRILATERAL
  0.1010000E+02  0.0000000E+00  0.0000000E+00  0.2401128E+00 -0.1844520E+01  0.6490695E-01  0.2311736E+00
  0.1005140E+02  0.9899730E+00  0.0000000E+00  0.2231594E+00 -0.1850949E+01  0.6170402E-01  0.2144591E+00
  0.9905930E+01  0.1970410E+01  0.0000000E+00  0.2049718E+00 -0.1860984E+01  0.5864905E-01  0.1964019E+00
  0.9665100E+01  0.2931880E+01  0.0000000E+00  0.1855088E+00 -0.1877445E+01  0.5599873E-01  0.1768549E+00
  0.9331180E+01  0.3865100E+01  0.0000000E+00  0.1655482E+00 -0.1902306E+01  0.5388117E-01  0.1565345E+00
  0.8907400E+01  0.4761110E+01  0.0000000E+00  0.1448659E+00 -0.1941181E+01  0.5243764E-01  0.1350423E+00
  0.8397840E+01  0.5611260E+01  0.0000000E+00  0.1240356E+00 -0.2000074E+01  0.5162539E-01  0.1127814E+00
  0.7807410E+01  0.6407370E+01  0.0000000E+00  0.1037562E+00 -0.2091968E+01  0.5165982E-01  0.8998116E-01
  0.7141780E+01  0.7141780E+01  0.0000000E+00  0.8522724E-01 -0.2233968E+01  0.5246757E-01  0.6716277E-01
  0.6407370E+01  0.7807410E+01  0.0000000E+00  0.7000165E-01 -0.2455537E+01  0.5416385E-01  0.4434535E-01
  0.5611260E+01  0.8397840E+01  0.0000000E+00  0.6058127E-01 -0.2777966E+01  0.5662004E-01  0.2154671E-01
  0.4761110E+01  0.8907410E+01  0.0000000E+00  0.5987638E-01  0.3129706E+01  0.5987215E-01 -0.7117146E-03
  0.3865100E+01  0.9331180E+01  0.0000000E+00  0.6744082E-01  0.2806146E+01  0.6368189E-01 -0.2220090E-01
  0.2931870E+01  0.9665100E+01  0.0000000E+00  0.8024885E-01  0.2583214E+01  0.6806026E-01 -0.4251680E-01
  0.1970410E+01  0.9905930E+01  0.0000000E+00  0.9571698E-01  0.2436167E+01  0.7287274E-01 -0.6205888E-01
  0.9899730E+00  0.1005140E+02  0.0000000E+00  0.1117733E+00  0.2342494E+01  0.7794545E-01 -0.8011108E-01
 -0.4414850E-06  0.1010000E+02  0.0000000E+00  0.1275380E+00  0.2279582E+01  0.8301606E-01 -0.9682077E-01
 -0.9899740E+00  0.1005140E+02  0.0000000E+00  0.1419962E+00  0.2238993E+01  0.8797678E-01 -0.1114585E+00
 -0.1970410E+01  0.9905930E+01  0.0000000E+00  0.1554908E+00  0.2210116E+01  0.9277351E-01 -0.1247816E+00
 -0.2931880E+01  0.9665100E+01  0.0000000E+00  0.1671302E+00  0.2190885E+01  0.9712058E-01 -0.1360150E+00
 -0.3865100E+01  0.9331180E+01  0.0000000E+00  0.1771442E+00  0.2176698E+01  0.1008842E+00 -0.1456105E+00
 -0.4761110E+01  0.8907400E+01  0.0000000E+00  0.1846322E+00  0.2168411E+01  0.1038873E+00 -0.1526317E+00
 -0.5611260E+01  0.8397840E+01  0.0000000E+00  0.1904165E+00  0.2162429E+01  0.1061985E+00 -0.1580516E+00
 -0.6407370E+01  0.7807410E+01  0.0000000E+00  0.1937250E+00  0.2159499E+01  0.1075721E+00 -0.1611137E+00
 -0.7141780E+01  0.7141780E+01  0.0000000E+00  0.1951469E+00  0.2157794E+01  0.1080848E+00 -0.1624807E+00
 -0.7807410E+01  0.6407370E+01  0.0000000E+00  0.1937255E+00  0.2159499E+01  0.1075724E+00 -0.1611140E+00
 -0.8397840E+01  0.5611260E+01  0.0000000E+00  0.1904165E+00  0.2162428E+01  0.1061983E+00 -0.1580518E+00
 -0.8907410E+01  0.4761110E+01  0.0000000E+00  0.1846320E+00  0.2168411E+01  0.1038873E+00 -0.1526316E+00
 -0.9331180E+01  0.3865100E+01  0.0000000E+00  0.1771440E+00  0.2176698E+01  0.1008841E+00 -0.1456104E+00
 -0.9665100E+01  0.2931880E+01  0.0000000E+00  0.1671301E+00  0.2190886E+01  0.9712058E-01 -0.1360149E+00
 -0.9905930E+01  0.1970410E+01  0.0000000E+00  0.1554906E+00  0.2210116E+01  0.9277342E-01 -0.1247815E+00
 -0.1005140E+02  0.9899730E+00  0.0000000E+00  0.1419961E+00  0.2238994E+01  0.8797690E-01 -0.1114584E+00
 -0.1010000E+02 -0.8829700E-06  0.0000000E+00  0.1275380E+00  0.2279584E+01  0.8301631E-01 -0.9682064E-01
 -0.1005140E+02 -0.9899740E+00  0.0000000E+00  0.1117732E+00  0.2342494E+01  0.7794539E-01 -0.8011100E-01
 -0.9905930E+01 -0.1970410E+01  0.0000000E+00  0.9571704E-01  0.2436165E+01  0.7287265E-01 -0.6205906E-01
 -0.9665100E+01 -0.2931880E+01  0.0000000E+00  0.8024865E-01  0.2583215E+01  0.6806015E-01 -0.4251662E-01
 -0.9331180E+01 -0.3865100E+01  0.0000000E+00  0.6744085E-01  0.2806144E+01  0.6368189E-01 -0.2220102E-01
 -0.8907400E+01 -0.4761110E+01  0.0000000E+00  0.5987653E-01  0.3129706E+01  0.5987230E-01 -0.7117320E-03
 -0.8397840E+01 -0.5611260E+01  0.0000000E+00  0.6058112E-01 -0.2777966E+01  0.5661990E-01  0.2154666E-01
 -0.7807400E+01 -0.6407370E+01  0.0000000E+00  0.7000169E-01 -0.2455538E+01  0.5416390E-01  0.4434534E-01
 -0.7141780E+01 -0.7141780E+01  0.0000000E+00  0.8522712E-01 -0.2233970E+01  0.5246758E-01  0.6716261E-01
 -0.6407370E+01 -0.7807410E+01  0.0000000E+00  0.1037559E+00 -0.2091968E+01  0.5165966E-01  0.8998089E-01
 -0.5611260E+01 -0.8397850E+01  0.0000000E+00  0.1240353E+00 -0.2000075E+01  0.5162540E-01  0.1127811E+00
 -0.4761110E+01 -0.8907410E+01  0.0000000E+00  0.1448657E+00 -0.1941181E+01  0.5243762E-01  0.1350421E+00
 -0.3865100E+01 -0.9331190E+01  0.0000000E+00  0.1655478E+00 -0.1902307E+01  0.5388116E-01  0.1565340E+00
 -0.2931870E+01 -0.9665100E+01  0.0000000E+00  0.1855086E+00 -0.1877446E+01  0.5599874E-01  0.1768547E+00
 -0.1970410E+01 -0.9905930E+01  0.0000000E+00  0.2049715E+00 -0.1860985E+01  0.5864913E-01  0.1964016E+00
 -0.9899710E+00 -0.1005140E+02  0.0000000E+00  0.2231590E+00 -0.1850950E+01  0.6170411E-01  0.2144588E+00
  0.1204410E-06 -0.1010000E+02  0.0000000E+00  0.2401123E+00 -0.1844521E+01  0.6490693E-01  0.2311731E+00
  0.9899760E+00 -0.1005140E+02  0.0000000E+00  0.2551009E+00 -0.1841411E+01  0.6819446E-01  0.2458169E+00
  0.1970410E+01 -0.9905930E+01  0.0000000E+00  0.2688243E+00 -0.1839959E+01  0.7148688E-01  0.2591450E+00
  0.2931880E+01 -0.9665100E+01  0.0000000E+00  0.2804713E+00 -0.1839815E+01  0.7454526E-01  0.2703833E+00
  0.3865100E+01 -0.9331180E+01  0.0000000E+00  0.2904372E+00 -0.1839920E+01  0.7722338E-01  0.2799827E+00
  0.4761110E+01 -0.8907410E+01  0.0000000E+00  0.2977867E+00 -0.1840679E+01  0.7939550E-01  0.2870075E+00
  0.5611260E+01 -0.8397840E+01  0.0000000E+00  0.3034650E+00 -0.1841294E+01  0.8108924E-01  0.2924304E+00
  0.6407370E+01 -0.7807410E+01  0.0000000E+00  0.3066873E+00 -0.1841800E+01  0.8209991E-01  0.2954940E+00
  0.7141780E+01 -0.7141780E+01  0.0000000E+00  0.3081044E+00 -0.1841784E+01  0.8247451E-01  0.2968607E+00
  0.7807410E+01 -0.6407370E+01  0.0000000E+00  0.3066872E+00 -0.1841800E+01  0.8209974E-01  0.2954940E+00
  0.8397840E+01 -0.5611260E+01  0.0000000E+00  0.3034648E+00 -0.1841294E+01  0.8108911E-01  0.2924302E+00
  0.8907410E+01 -0.4761110E+01  0.0000000E+00  0.2977867E+00 -0.1840679E+01  0.7939542E-01  0.2870075E+00
  0.9331180E+01 -0.3865100E+01  0.0000000E+00  0.2904372E+00 -0.1839920E+01  0.7722347E-01  0.2799827E+00
  0.9665100E+01 -0.2931870E+01  0.0000000E+00  0.2804714E+00 -0.1839815E+01  0.7454531E-01  0.2703835E+00
  0.9905930E+01 -0.1970410E+01  0.0000000E+00  0.2688246E+00 -0.1839959E+01  0.7148689E-01  0.2591453E+00
  0.1005140E+02 -0.9899690E+00  0.0000000E+00  0.2551011E+00 -0.1841411E+01  0.6819464E-01  0.2458171E+00
  0.1010000E+02  0.0000000E+00 -0.2568960E-01  0.2399771E+00 -0.1844481E+01  0.6486122E-01  0.2310456E+00
  0.1005140E+02  0.9899730E+00 -0.2568960E-01  0.2230223E+00 -0.1850922E+01  0.6166042E-01  0.2143290E+00
  0.9905930E+01  0.1970410E+01 -0.2568960E-01  0.2047679E+00 -0.1861120E+01  0.5861732E-01  0.1961986E+00
  0.9665100E+01  0.2931880E+01 -0.2568960E-01  0.1853907E+00 -0.1877412E+01  0.5595725E-01  0.1767441E+00
  0.9331180E+01  0.3865100E+01 -0.2568960E-01  0.1654481E+00 -0.1902243E+01  0.5383859E-01  0.1564432E+00
  0.8907400E+01  0.4761110E+01 -0.2568960E-01  0.1447722E+00 -0.1941139E+01  0.5239808E-01  0.1349571E+00
  0.8397840E+01  0.5611260E+01 -0.2568960E-01  0.1239348E+00 -0.2000296E+01  0.5160837E-01  0.1126783E+00
  0.7807410E+01  0.6407370E+01 -0.2568960E-01  0.1036825E+00 -0.2091934E+01  0.5162010E-01  0.8991905E-01
  0.7141780E+01  0.7141780E+01 -0.2568960E-01  0.8516274E-01 -0.2233918E+01  0.5242451E-01  0.6711456E-01
  0.6407370E+01  0.7807410E+01 -0.2568960E-01  0.6994800E-01 -0.2455541E+01  0.5412252E-01  0.4431114E-01
  0.5611260E+01  0.8397840E+01 -0.2568960E-01  0.6056347E-01 -0.2777735E+01  0.5659843E-01  0.2155347E-01
  0.4761110E+01  0.8907410E+01 -0.2568960E-01  0.5983221E-01  0.3129508E+01  0.5982784E-01 -0.7229986E-03
  0.3865100E+01  0.9331180E+01 -0.2568960E-01  0.6739660E-01  0.2805837E+01  0.6363328E-01 -0.2220601E-01
  0.2931870E+01  0.9665100E+01 -0.2568960E-01  0.8019933E-01  0.2583038E+01  0.6801078E-01 -0.4250254E-01
  0.1970410E+01  0.9905930E+01 -0.2568960E-01  0.9561353E-01  0.2436714E+01  0.7282789E-01 -0.6195197E-01
  0.9899730E+00  0.1005140E+02 -0.2568960E-01  0.1117115E+00  0.2342355E+01  0.7789121E-01 -0.8007753E-01
 -0.4414850E-06  0.1010000E+02 -0.2568960E-01  0.1274772E+00  0.2279406E+01  0.8295941E-01 -0.9678929E-01
 -0.9899740E+00  0.1005140E+02 -0.2568960E-01  0.1419173E+00  0.2238893E+01  0.8791675E-01 -0.1114054E+00
 -0.1970410E+01  0.9905930E+01 -0.2568960E-01  0.1553007E+00  0.2210428E+01  0.9269893E-01 -0.1246003E+00
 -0.2931880E+01  0.9665100E+01 -0.2568960E-01  0.1670390E+00  0.2190800E+01  0.9705611E-01 -0.1359491E+00
 -0.3865100E+01  0.9331180E+01 -0.2568960E-01  0.1770616E+00  0.2176578E+01  0.1008196E+00 -0.1455548E+00
 -0.4761110E+01  0.8907400E+01 -0.2568960E-01  0.1845304E+00  0.2168335E+01  0.1038185E+00 -0.1525555E+00
 -0.5611260E+01  0.8397840E+01 -0.2568960E-01  0.1901810E+00  0.2162658E+01  0.1061032E+00 -0.1578319E+00
 -0.6407370E+01  0.7807410E+01 -0.2568960E-01  0.1936189E+00  0.2159428E+01  0.1075017E+00 -0.1610331E+00
 -0.7141780E+01  0.7141780E+01 -0.2568960E-01  0.1950555E+00  0.2157687E+01  0.1080169E+00 -0.1624162E+00
 -0.7807410E+01  0.6407370E+01 -0.2568960E-01  0.1936188E+00  0.2159428E+01  0.1075018E+00 -0.1610330E+00
 -0.8397840E+01  0.5611260E+01 -0.2568960E-01  0.1901808E+00  0.2162658E+01  0.1061032E+00 -0.1578317E+00
 -0.8907410E+01  0.4761110E+01 -0.2568960E-01  0.1845304E+00  0.2168335E+01  0.1038184E+00 -0.1525555E+00
 -0.9331180E+01  0.3865100E+01 -0.2568960E-01  0.1770615E+00  0.2176578E+01  0.1008196E+00 -0.1455547E+00
 -0.9665100E+01  0.2931880E+01 -0.2568960E-01  0.1670389E+00  0.2190799E+01  0.9705584E-01 -0.1359491E+00
 -0.9905930E+01  0.1970410E+01 -0.2568960E-01  0.1553009E+00  0.2210426E+01  0.9269886E-01 -0.1246006E+00
 -0.1005140E+02  0.9899730E+00 -0.2568960E-01  0.1419171E+00  0.2238892E+01  0.8791655E-01 -0.1114053E+00
 -0.1010000E+02 -0.8829700E-06 -0.2568960E-01  0.1274770E+00  0.2279405E+01  0.8295924E-01 -0.9678924E-01
 -0.1005140E+02 -0.9899740E+00 -0.2568960E-01  0.1117114E+00  0.2342358E+01  0.7789139E-01 -0.8007732E-01
 -0.9905930E+01 -0.1970410E+01 -0.2568960E-01  0.9561336E-01  0.2436712E+01  0.7282766E-01 -0.6195198E-01
 -0.9665100E+01 -0.2931880E+01 -0.2568960E-01  0.8019925E-01  0.2583040E+01  0.6801084E-01 -0.4250231E-01
 -0.9331180E+01 -0.3865100E+01 -0.2568960E-01  0.6739653E-01  0.2805838E+01  0.6363323E-01 -0.2220595E-01
 -0.8907400E+01 -0.4761110E+01 -0.2568960E-01  0.5983216E-01  0.3129506E+01  0.5982779E-01 -0.7231381E-03
 -0.8397840E+01 -0.5611260E+01 -0.2568960E-01  0.6056347E-01 -0.2777736E+01  0.5659845E-01  0.2155338E-01
 -0.7807400E+01 -0.6407370E+01 -0.2568960E-01  0.6994793E-01 -0.2455542E+01  0.5412249E-01  0.4431105E-01
 -0.7141780E+01 -0.7141780E+01 -0.2568960E-01  0.8516270E-01 -0.2233920E+01  0.5242458E-01  0.6711445E-01
 -0.6407370E+01 -0.7807410E+01 -0.2568960E-01  0.1036823E+00 -0.2091936E+01  0.5162016E-01  0.8991875E-01
 -0.5611260E+01 -0.8397850E+01 -0.2568960E-01  0.1239346E+00 -0.2000297E+01  0.5160849E-01  0.1126781E+00
 -0.4761110E+01 -0.8907410E+01 -0.2568960E-01  0.1447721E+00 -0.1941139E+01  0.5239813E-01  0.1349570E+00
 -0.3865100E+01 -0.9331190E+01 -0.2568960E-01  0.1654476E+00 -0.1902243E+01  0.5383861E-01  0.1564427E+00
 -0.2931870E+01 -0.9665100E+01 -0.2568960E-01  0.1853904E+00 -0.1877413E+01  0.5595735E-01  0.1767439E+00
 -0.1970410E+01 -0.9905930E+01 -0.2568960E-01  0.2047675E+00 -0.1861120E+01  0.5861734E-01  0.1961983E+00
 -0.9899710E+00 -0.1005140E+02 -0.2568960E-01  0.2230221E+00 -0.1850923E+01  0.6166051E-01  0.2143289E+00
  0.1204410E-06 -0.1010000E+02 -0.2568960E-01  0.2399770E+00 -0.1844481E+01  0.6486112E-01  0.2310455E+00
  0.9899760E+00 -0.1005140E+02 -0.2568960E-01  0.2549441E+00 -0.1841388E+01  0.6814710E-01  0.2456674E+00
  0.1970410E+01 -0.9905930E+01 -0.2568960E-01  0.2685421E+00 -0.1840036E+01  0.7143176E-01  0.2588675E+00
  0.2931880E+01 -0.9665100E+01 -0.2568960E-01  0.2803015E+00 -0.1839797E+01  0.7449535E-01  0.2702210E+00
  0.3865100E+01 -0.9331180E+01 -0.2568960E-01  0.2902774E+00 -0.1839894E+01  0.7717350E-01  0.2798307E+00
  0.4761110E+01 -0.8907410E+01 -0.2568960E-01  0.2976061E+00 -0.1840663E+01  0.7934260E-01  0.2868347E+00
  0.5611260E+01 -0.8397840E+01 -0.2568960E-01  0.3031406E+00 -0.1841344E+01  0.8101706E-01  0.2921137E+00
  0.6407370E+01 -0.7807410E+01 -0.2568960E-01  0.3065022E+00 -0.1841785E+01  0.8204585E-01  0.2953169E+00
  0.7141780E+01 -0.7141780E+01 -0.2568960E-01  0.3079358E+00 -0.1841762E+01  0.8242279E-01  0.2967001E+00
  0.7807410E+01 -0.6407370E+01 -0.2568960E-01  0.3065022E+00 -0.1841785E+01  0.8204586E-01  0.2953169E+00
  0.8397840E+01 -0.5611260E+01 -0.2568960E-01  0.3031407E+00 -0.1841344E+01  0.8101716E-01  0.2921138E+00
  0.8907410E+01 -0.4761110E+01 -0.2568960E-01  0.2976063E+00 -0.1840663E+01  0.7934260E-01  0.2868349E+00
  0.9331180E+01 -0.3865100E+01 -0.2568960E-01  0.2902775E+00 -0.1839894E+01  0.7717361E-01  0.2798308E+00
  0.9665100E+01 -0.2931870E+01 -0.2568960E-01  0.2803017E+00 -0.1839797E+01  0.7449526E-01  0.2702212E+00
  0.9905930E+01 -0.1970410E+01 -0.2568960E-01  0.2685425E+00 -0.1840035E+01  0.7143172E-01  0.2588679E+00
  0.1005140E+02 -0.9899690E+00 -0.2568960E-01  0.2549443E+00 -0.1841388E+01  0.6814712E-01  0.2456675E+00
  0.1010000E+02  0.0000000E+00 -0.1027320E+00  0.2395312E+00 -0.1844422E+01  0.6472704E-01  0.2306201E+00
  0.1005140E+02  0.9899730E+00 -0.1027320E+00  0.2225740E+00 -0.1850905E+01  0.6153282E-01  0.2138993E+00
  0.9905930E+01  0.1970410E+01 -0.1027320E+00  0.2043079E+00 -0.1861191E+01  0.5849964E-01  0.1957537E+00
  0.9665100E+01  0.2931880E+01 -0.1027320E+00  0.1850093E+00 -0.1877382E+01  0.5583670E-01  0.1763822E+00
  0.9331180E+01  0.3865100E+01 -0.1027320E+00  0.1651269E+00 -0.1902118E+01  0.5371458E-01  0.1561462E+00
  0.8907400E+01  0.4761110E+01 -0.1027320E+00  0.1444758E+00 -0.1941086E+01  0.5228365E-01  0.1346837E+00
  0.8397840E+01  0.5611260E+01 -0.1027320E+00  0.1236649E+00 -0.2000395E+01  0.5150712E-01  0.1124279E+00
  0.7807410E+01  0.6407370E+01 -0.1027320E+00  0.1034585E+00 -0.2091898E+01  0.5150539E-01  0.8972661E-01
  0.7141780E+01  0.7141780E+01 -0.1027320E+00  0.8497149E-01 -0.2233796E+01  0.5229859E-01  0.6697024E-01
  0.6407370E+01  0.7807410E+01 -0.1027320E+00  0.6979405E-01 -0.2455520E+01  0.5400243E-01  0.4421478E-01
  0.5611260E+01  0.8397840E+01 -0.1027320E+00  0.6044485E-01 -0.2777665E+01  0.5648608E-01  0.2151519E-01
  0.4761110E+01  0.8907410E+01 -0.1027320E+00  0.5970293E-01  0.3129229E+01  0.5969836E-01 -0.7381139E-03
  0.3865100E+01  0.9331180E+01 -0.1027320E+00  0.6725849E-01  0.2805253E+01  0.6348994E-01 -0.2219759E-01
  0.2931870E+01  0.9665100E+01 -0.1027320E+00  0.8003736E-01  0.2582846E+01  0.6786531E-01 -0.4242968E-01
  0.1970410E+01  0.9905930E+01 -0.1027320E+00  0.9539866E-01  0.2436944E+01  0.7267841E-01 -0.6179607E-01
  0.9899730E+00  0.1005140E+02 -0.1027320E+00  0.1114979E+00  0.2342203E+01  0.7773013E-01 -0.7993624E-01
 -0.4414850E-06  0.1010000E+02 -0.1027320E+00  0.1272627E+00  0.2279094E+01  0.8278970E-01 -0.9665225E-01
 -0.9899740E+00  0.1005140E+02 -0.1027320E+00  0.1416426E+00  0.2238800E+01  0.8773627E-01 -0.1111979E+00
 -0.1970410E+01  0.9905930E+01 -0.1027320E+00  0.1549423E+00  0.2210583E+01  0.9250425E-01 -0.1242983E+00
 -0.2931880E+01  0.9665100E+01 -0.1027320E+00  0.1667207E+00  0.2190731E+01  0.9686173E-01 -0.1356967E+00
 -0.3865100E+01  0.9331180E+01 -0.1027320E+00  0.1767688E+00  0.2176394E+01  0.1006263E+00 -0.1453326E+00
 -0.4761110E+01  0.8907400E+01 -0.1027320E+00  0.1841758E+00  0.2168283E+01  0.1036112E+00 -0.1522676E+00
 -0.5611260E+01  0.8397840E+01 -0.1027320E+00  0.1897402E+00  0.2162789E+01  0.1058780E+00 -0.1574521E+00
 -0.6407370E+01  0.7807410E+01 -0.1027320E+00  0.1932486E+00  0.2159381E+01  0.1072887E+00 -0.1607301E+00
 -0.7141780E+01  0.7141780E+01 -0.1027320E+00  0.1947335E+00  0.2157537E+01  0.1078142E+00 -0.1621642E+00
 -0.7807410E+01  0.6407370E+01 -0.1027320E+00  0.1932485E+00  0.2159383E+01  0.1072889E+00 -0.1607298E+00
 -0.8397840E+01  0.5611260E+01 -0.1027320E+00  0.1897401E+00  0.2162789E+01  0.1058780E+00 -0.1574521E+00
 -0.8907410E+01  0.4761110E+01 -0.1027320E+00  0.1841758E+00  0.2168284E+01  0.1036114E+00 -0.1522676E+00
 -0.9331180E+01  0.3865100E+01 -0.1027320E+00  0.1767688E+00  0.2176394E+01  0.1006263E+00 -0.1453326E+00
 -0.9665100E+01  0.2931880E+01 -0.1027320E+00  0.1667206E+00  0.2190730E+01  0.9686145E-01 -0.1356967E+00
 -0.9905930E+01  0.1970410E+01 -0.1027320E+00  0.1549422E+00  0.2210582E+01  0.9250408E-01 -0.1242983E+00
 -0.1005140E+02  0.9899730E+00 -0.1027320E+00  0.1416427E+00  0.2238801E+01  0.8773641E-01 -0.1111979E+00
 -0.1010000E+02 -0.8829700E-06 -0.1027320E+00  0.1272625E+00  0.2279094E+01  0.8278958E-01 -0.9665216E-01
 -0.1005140E+02 -0.9899740E+00 -0.1027320E+00  0.1114979E+00  0.2342203E+01  0.7773015E-01 -0.7993623E-01
 -0.9905930E+01 -0.1970410E+01 -0.1027320E+00  0.9539870E-01  0.2436945E+01  0.7267853E-01 -0.6179599E-01
 -0.9665100E+01 -0.2931880E+01 -0.1027320E+00  0.8003706E-01  0.2582849E+01  0.6786517E-01 -0.4242936E-01
 -0.9331180E+01 -0.3865100E+01 -0.1027320E+00  0.6725862E-01  0.2805252E+01  0.6349002E-01 -0.2219772E-01
 -0.8907400E+01 -0.4761110E+01 -0.1027320E+00  0.5970279E-01  0.3129226E+01  0.5969823E-01 -0.7382903E-03
 -0.8397840E+01 -0.5611260E+01 -0.1027320E+00  0.6044468E-01 -0.2777667E+01  0.5648594E-01  0.2151504E-01
 -0.7807400E+01 -0.6407370E+01 -0.1027320E+00  0.6979409E-01 -0.2455522E+01  0.5400255E-01  0.4421470E-01
 -0.7141780E+01 -0.7141780E+01 -0.1027320E+00  0.8497123E-01 -0.2233796E+01  0.5229842E-01  0.6697004E-01
 -0.6407370E+01 -0.7807410E+01 -0.1027320E+00  0.1034584E+00 -0.2091901E+01  0.5150558E-01  0.8972640E-01
 -0.5611260E+01 -0.8397850E+01 -0.1027320E+00  0.1236647E+00 -0.2000395E+01  0.5150706E-01  0.1124277E+00
 -0.4761110E+01 -0.8907410E+01 -0.1027320E+00  0.1444755E+00 -0.1941086E+01  0.5228363E-01  0.1346833E+00
 -0.3865100E+01 -0.9331190E+01 -0.1027320E+00  0.1651264E+00 -0.1902118E+01  0.5371455E-01  0.1561457E+00
 -0.2931870E+01 -0.9665100E+01 -0.1027320E+00  0.1850093E+00 -0.1877381E+01  0.5583670E-01  0.1763823E+00
 -0.1970410E+01 -0.9905930E+01 -0.1027320E+00  0.2043077E+00 -0.1861192E+01  0.5849966E-01  0.1957535E+00
 -0.9899710E+00 -0.1005140E+02 -0.1027320E+00  0.2225735E+00 -0.1850905E+01  0.6153280E-01  0.2138988E+00
  0.1204410E-06 -0.1010000E+02 -0.1027320E+00  0.2395309E+00 -0.1844422E+01  0.6472705E-01  0.2306198E+00
  0.9899760E+00 -0.1005140E+02 -0.1027320E+00  0.2544287E+00 -0.1841383E+01  0.6800792E-01  0.2451712E+00
  0.1970410E+01 -0.9905930E+01 -0.1027320E+00  0.2679335E+00 -0.1840093E+01  0.7128452E-01  0.2582767E+00
  0.2931880E+01 -0.9665100E+01 -0.1027320E+00  0.2797405E+00 -0.1839803E+01  0.7434758E-01  0.2696797E+00
  0.3865100E+01 -0.9331180E+01 -0.1027320E+00  0.2897456E+00 -0.1839874E+01  0.7702658E-01  0.2793195E+00
  0.4761110E+01 -0.8907410E+01 -0.1027320E+00  0.2970090E+00 -0.1840672E+01  0.7918594E-01  0.2862585E+00
  0.5611260E+01 -0.8397840E+01 -0.1027320E+00  0.3024512E+00 -0.1841395E+01  0.8084768E-01  0.2914453E+00
  0.6407370E+01 -0.7807410E+01 -0.1027320E+00  0.3058887E+00 -0.1841799E+01  0.8188564E-01  0.2947247E+00
  0.7141780E+01 -0.7141780E+01 -0.1027320E+00  0.3073739E+00 -0.1841755E+01  0.8227026E-01  0.2961593E+00
  0.7807410E+01 -0.6407370E+01 -0.1027320E+00  0.3058888E+00 -0.1841799E+01  0.8188558E-01  0.2947248E+00
  0.8397840E+01 -0.5611260E+01 -0.1027320E+00  0.3024512E+00 -0.1841395E+01  0.8084764E-01  0.2914454E+00
