 VARIABLES="X" "Y" "Z" "abs(eta) (m)" "angle(phi) (rad)" "PRE1" "PRE2"
ZONE N=   3200 ,E =    3136 ,F=FEPOINT,ET=QUADRILATERAL
  0.1010000E+02  0.0000000E+00  0.0000000E+00  0.6780348E+00 -0.1653771E+01  0.5619531E-01  0.6757020E+00
  0.1005140E+02  0.9899730E+00  0.0000000E+00  0.6700012E+00 -0.1649102E+01  0.5241154E-01  0.6679481E+00
  0.9905930E+01  0.1970410E+01  0.0000000E+00  0.6576440E+00 -0.1641959E+01  0.4676007E-01  0.6559795E+00
  0.9665100E+01  0.2931880E+01  0.0000000E+00  0.6412864E+00 -0.1632998E+01  0.3986368E-01  0.6400462E+00
  0.9331180E+01  0.3865100E+01  0.0000000E+00  0.6209067E+00 -0.1622926E+01  0.3235319E-01  0.6200632E+00
  0.8907400E+01  0.4761110E+01  0.0000000E+00  0.5970800E+00 -0.1611963E+01  0.2457269E-01  0.5965741E+00
  0.8397840E+01  0.5611260E+01  0.0000000E+00  0.5688289E+00 -0.1599953E+01  0.1658279E-01  0.5685872E+00
  0.7807410E+01  0.6407370E+01  0.0000000E+00  0.5367796E+00 -0.1588225E+01  0.9355062E-02  0.5366981E+00
  0.7141780E+01  0.7141780E+01  0.0000000E+00  0.5012861E+00 -0.1578634E+01  0.3928960E-02  0.5012708E+00
  0.6407370E+01  0.7807410E+01  0.0000000E+00  0.4627313E+00 -0.1571731E+01  0.4323305E-03  0.4627311E+00
  0.5611260E+01  0.8397840E+01  0.0000000E+00  0.4203388E+00 -0.1568981E+01 -0.7630223E-03  0.4203382E+00
  0.4761110E+01  0.8907410E+01  0.0000000E+00  0.3752278E+00 -0.1573522E+01  0.1022774E-02  0.3752264E+00
  0.3865100E+01  0.9331180E+01  0.0000000E+00  0.3285450E+00 -0.1590808E+01  0.6574176E-02  0.3284792E+00
  0.2931870E+01  0.9665100E+01  0.0000000E+00  0.2807483E+00 -0.1626647E+01  0.1567192E-01  0.2803105E+00
  0.1970410E+01  0.9905930E+01  0.0000000E+00  0.2322414E+00 -0.1694840E+01  0.2873417E-01  0.2304570E+00
  0.9899730E+00  0.1005140E+02  0.0000000E+00  0.1860713E+00 -0.1818162E+01  0.4555976E-01  0.1804074E+00
 -0.4414850E-06  0.1010000E+02  0.0000000E+00  0.1472477E+00 -0.2035809E+01  0.6603094E-01  0.1316123E+00
 -0.9899740E+00  0.1005140E+02  0.0000000E+00  0.1227895E+00 -0.2389721E+01  0.8968694E-01  0.8386612E-01
 -0.1970410E+01  0.9905930E+01  0.0000000E+00  0.1224798E+00 -0.2831604E+01  0.1166421E+00  0.3736214E-01
 -0.2931880E+01  0.9665100E+01  0.0000000E+00  0.1459393E+00  0.3095452E+01  0.1457840E+00 -0.6731354E-02
 -0.3865100E+01  0.9331180E+01  0.0000000E+00  0.1822684E+00  0.2879749E+01  0.1760556E+00 -0.4718234E-01
 -0.4761110E+01  0.8907400E+01  0.0000000E+00  0.2237498E+00  0.2753250E+01  0.2070889E+00 -0.8472406E-01
 -0.5611260E+01  0.8397840E+01  0.0000000E+00  0.2665723E+00  0.2679126E+01  0.2385702E+00 -0.1189331E+00
 -0.6407370E+01  0.7807410E+01  0.0000000E+00  0.3077444E+00  0.2634974E+01  0.2690886E+00 -0.1493249E+00
 -0.7141780E+01  0.7141780E+01  0.0000000E+00  0.3450873E+00  0.2608865E+01  0.2972668E+00 -0.1752647E+00
 -0.7807410E+01  0.6407370E+01  0.0000000E+00  0.3788363E+00  0.2592354E+01  0.3231179E+00 -0.1977669E+00
 -0.8397840E+01  0.5611260E+01  0.0000000E+00  0.4080685E+00  0.2582929E+01  0.3460276E+00 -0.2162980E+00
 -0.8907410E+01  0.4761110E+01  0.0000000E+00  0.4319758E+00  0.2577603E+01  0.3650754E+00 -0.2309179E+00
 -0.9331180E+01  0.3865100E+01  0.0000000E+00  0.4495439E+00  0.2574850E+01  0.3792596E+00 -0.2413542E+00
 -0.9665100E+01  0.2931880E+01  0.0000000E+00  0.4616635E+00  0.2572968E+01  0.3890172E+00 -0.2485936E+00
 -0.9905930E+01  0.1970410E+01  0.0000000E+00  0.4673748E+00  0.2572325E+01  0.3936679E+00 -0.2519221E+00
 -0.1005140E+02  0.9899730E+00  0.0000000E+00  0.4667586E+00  0.2572457E+01  0.3931820E+00 -0.2515382E+00
 -0.1010000E+02 -0.8829700E-06  0.0000000E+00  0.4595796E+00  0.2573542E+01  0.3874032E+00 -0.2472492E+00
 -0.1005140E+02 -0.9899740E+00  0.0000000E+00  0.4467932E+00  0.2575054E+01  0.3769878E+00 -0.2398006E+00
 -0.9905930E+01 -0.1970410E+01  0.0000000E+00  0.4274862E+00  0.2578316E+01  0.3614440E+00 -0.2282602E+00
 -0.9665100E+01 -0.2931880E+01  0.0000000E+00  0.4025027E+00  0.2584382E+01  0.3416175E+00 -0.2128519E+00
 -0.9331180E+01 -0.3865100E+01  0.0000000E+00  0.3724671E+00  0.2595417E+01  0.3182796E+00 -0.1934679E+00
 -0.8907400E+01 -0.4761110E+01  0.0000000E+00  0.3382851E+00  0.2612765E+01  0.2920751E+00 -0.1706722E+00
 -0.8397840E+01 -0.5611260E+01  0.0000000E+00  0.2994674E+00  0.2642179E+01  0.2628914E+00 -0.1434183E+00
 -0.7807400E+01 -0.6407370E+01  0.0000000E+00  0.2578182E+00  0.2691090E+01  0.2320953E+00 -0.1122586E+00
 -0.7141780E+01 -0.7141780E+01  0.0000000E+00  0.2154742E+00  0.2773545E+01  0.2010442E+00 -0.7752652E-01
 -0.6407370E+01 -0.7807410E+01  0.0000000E+00  0.1746957E+00  0.2912509E+01  0.1701317E+00 -0.3967083E-01
 -0.5611260E+01 -0.8397850E+01  0.0000000E+00  0.1396861E+00 -0.3126487E+01  0.1396702E+00  0.2110004E-02
 -0.4761110E+01 -0.8907410E+01  0.0000000E+00  0.1202760E+00 -0.2742675E+01  0.1108322E+00  0.4671770E-01
 -0.3865100E+01 -0.9331190E+01  0.0000000E+00  0.1259666E+00 -0.2309988E+01  0.8486252E-01  0.9309107E-01
 -0.2931870E+01 -0.9665100E+01  0.0000000E+00  0.1538971E+00 -0.1983511E+01  0.6172769E-01  0.1409752E+00
 -0.1970410E+01 -0.9905930E+01  0.0000000E+00  0.1952413E+00 -0.1787097E+01  0.4190222E-01  0.1906918E+00
 -0.9899710E+00 -0.1005140E+02  0.0000000E+00  0.2421332E+00 -0.1677201E+01  0.2571551E-01  0.2407638E+00
  0.1204410E-06 -0.1010000E+02  0.0000000E+00  0.2900509E+00 -0.1617595E+01  0.1356896E-01  0.2897333E+00
  0.9899760E+00 -0.1005140E+02  0.0000000E+00  0.3377910E+00 -0.1585848E+01  0.5084250E-02  0.3377527E+00
  0.1970410E+01 -0.9905930E+01  0.0000000E+00  0.3846711E+00 -0.1572209E+01  0.5434806E-03  0.3846707E+00
  0.2931880E+01 -0.9665100E+01  0.0000000E+00  0.4293038E+00 -0.1569184E+01 -0.6920577E-03  0.4293032E+00
  0.3865100E+01 -0.9331180E+01  0.0000000E+00  0.4703858E+00 -0.1572569E+01  0.8339235E-03  0.4703850E+00
  0.4761110E+01 -0.8907410E+01  0.0000000E+00  0.5086094E+00 -0.1580061E+01  0.4712105E-02  0.5085876E+00
  0.5611260E+01 -0.8397840E+01  0.0000000E+00  0.5436242E+00 -0.1590816E+01  0.1088242E-01  0.5435153E+00
  0.6407370E+01 -0.7807410E+01  0.0000000E+00  0.5749424E+00 -0.1602611E+01  0.1828855E-01  0.5746515E+00
  0.7141780E+01 -0.7141780E+01  0.0000000E+00  0.6018782E+00 -0.1613953E+01  0.2596711E-01  0.6013178E+00
  0.7807410E+01 -0.6407370E+01  0.0000000E+00  0.6253858E+00 -0.1624843E+01  0.3378374E-01  0.6244726E+00
  0.8397840E+01 -0.5611260E+01  0.0000000E+00  0.6449335E+00 -0.1635067E+01  0.4142198E-01  0.6436019E+00
  0.8907410E+01 -0.4761110E+01  0.0000000E+00  0.6604962E+00 -0.1643739E+01  0.4813568E-01  0.6587398E+00
  0.9331180E+01 -0.3865100E+01  0.0000000E+00  0.6716911E+00 -0.1650064E+01  0.5318788E-01  0.6695819E+00
  0.9665100E+01 -0.2931870E+01  0.0000000E+00  0.6794499E+00 -0.1654454E+01  0.5677489E-01  0.6770737E+00
  0.9905930E+01 -0.1970410E+01  0.0000000E+00  0.6830370E+00 -0.1656570E+01  0.5851485E-01  0.6805259E+00
  0.1005140E+02 -0.9899690E+00  0.0000000E+00  0.6826321E+00 -0.1656381E+01  0.5835139E-01  0.6801336E+00
  0.1010000E+02  0.0000000E+00 -0.2568960E-01  0.6769889E+00 -0.1653809E+01  0.5613431E-01  0.6746576E+00
  0.1005140E+02  0.9899730E+00 -0.2568960E-01  0.6689843E+00 -0.1649145E+01  0.5236068E-01  0.6669320E+00
  0.9905930E+01  0.1970410E+01 -0.2568960E-01  0.6565646E+00 -0.1641979E+01  0.4669685E-01  0.6549019E+00
  0.9665100E+01  0.2931880E+01 -0.2568960E-01  0.6403124E+00 -0.1633037E+01  0.3982771E-01  0.6390726E+00
  0.9331180E+01  0.3865100E+01 -0.2568960E-01  0.6199470E+00 -0.1622957E+01  0.3232225E-01  0.6191038E+00
  0.8907400E+01  0.4761110E+01 -0.2568960E-01  0.5961704E+00 -0.1611991E+01  0.2455230E-01  0.5956646E+00
  0.8397840E+01  0.5611260E+01 -0.2568960E-01  0.5678958E+00 -0.1599979E+01  0.1657043E-01  0.5676540E+00
  0.7807410E+01  0.6407370E+01 -0.2568960E-01  0.5359594E+00 -0.1588244E+01  0.9350547E-02  0.5358778E+00
  0.7141780E+01  0.7141780E+01 -0.2568960E-01  0.5005059E+00 -0.1578650E+01  0.3930917E-02  0.5004905E+00
  0.6407370E+01  0.7807410E+01 -0.2568960E-01  0.4620182E+00 -0.1571733E+01  0.4328679E-03  0.4620180E+00
  0.5611260E+01  0.8397840E+01 -0.2568960E-01  0.4196483E+00 -0.1569020E+01 -0.7453981E-03  0.4196477E+00
  0.4761110E+01  0.8907410E+01 -0.2568960E-01  0.3746430E+00 -0.1573509E+01  0.1016208E-02  0.3746416E+00
  0.3865100E+01  0.9331180E+01 -0.2568960E-01  0.3280217E+00 -0.1590805E+01  0.6562699E-02  0.3279561E+00
  0.2931870E+01  0.9665100E+01 -0.2568960E-01  0.2802973E+00 -0.1626618E+01  0.1563860E-01  0.2798607E+00
  0.1970410E+01  0.9905930E+01 -0.2568960E-01  0.2318612E+00 -0.1694917E+01  0.2870486E-01  0.2300775E+00
  0.9899730E+00  0.1005140E+02 -0.2568960E-01  0.1857552E+00 -0.1818145E+01  0.4547917E-01  0.1801017E+00
 -0.4414850E-06  0.1010000E+02 -0.2568960E-01  0.1469928E+00 -0.2035878E+01  0.6592572E-01  0.1313799E+00
 -0.9899740E+00  0.1005140E+02 -0.2568960E-01  0.1225683E+00 -0.2389918E+01  0.8954182E-01  0.8369733E-01
 -0.1970410E+01  0.9905930E+01 -0.2568960E-01  0.1222959E+00 -0.2831668E+01  0.1164693E+00  0.3729863E-01
 -0.2931880E+01  0.9665100E+01 -0.2568960E-01  0.1457142E+00  0.3095126E+01  0.1455569E+00 -0.6768425E-02
 -0.3865100E+01  0.9331180E+01 -0.2568960E-01  0.1820002E+00  0.2879539E+01  0.1757867E+00 -0.4714980E-01
 -0.4761110E+01  0.8907400E+01 -0.2568960E-01  0.2234316E+00  0.2753030E+01  0.2067758E+00 -0.8464903E-01
 -0.5611260E+01  0.8397840E+01 -0.2568960E-01  0.2661525E+00  0.2679149E+01  0.2381971E+00 -0.1187404E+00
 -0.6407370E+01  0.7807410E+01 -0.2568960E-01  0.3073101E+00  0.2634827E+01  0.2686870E+00 -0.1491536E+00
 -0.7141780E+01  0.7141780E+01 -0.2568960E-01  0.3445876E+00  0.2608768E+01  0.2968194E+00 -0.1750397E+00
 -0.7807410E+01  0.6407370E+01 -0.2568960E-01  0.3783035E+00  0.2592244E+01  0.3226418E+00 -0.1975243E+00
 -0.8397840E+01  0.5611260E+01 -0.2568960E-01  0.4074151E+00  0.2582949E+01  0.3454777E+00 -0.2159449E+00
 -0.8907410E+01  0.4761110E+01 -0.2568960E-01  0.4313654E+00  0.2577513E+01  0.3645386E+00 -0.2306246E+00
 -0.9331180E+01  0.3865100E+01 -0.2568960E-01  0.4488907E+00  0.2574784E+01  0.3786928E+00 -0.2410284E+00
 -0.9665100E+01  0.2931880E+01 -0.2568960E-01  0.4610120E+00  0.2572890E+01  0.3884489E+00 -0.2482732E+00
 -0.9905930E+01  0.1970410E+01 -0.2568960E-01  0.4666241E+00  0.2572343E+01  0.3930402E+00 -0.2515104E+00
 -0.1005140E+02  0.9899730E+00 -0.2568960E-01  0.4660997E+00  0.2572378E+01  0.3926072E+00 -0.2512141E+00
 -0.1010000E+02 -0.8829700E-06 -0.2568960E-01  0.4589120E+00  0.2573479E+01  0.3868249E+00 -0.2469144E+00
 -0.1005140E+02 -0.9899740E+00 -0.2568960E-01  0.4461623E+00  0.2574969E+01  0.3764352E+00 -0.2394940E+00
 -0.9905930E+01 -0.1970410E+01 -0.2568960E-01  0.4268011E+00  0.2578335E+01  0.3608690E+00 -0.2278876E+00
 -0.9665100E+01 -0.2931880E+01 -0.2568960E-01  0.4019365E+00  0.2584282E+01  0.3411157E+00 -0.2125864E+00
 -0.9331180E+01 -0.3865100E+01 -0.2568960E-01  0.3719282E+00  0.2595332E+01  0.3178026E+00 -0.1932151E+00
 -0.8907400E+01 -0.4761110E+01 -0.2568960E-01  0.3378082E+00  0.2612635E+01  0.2916411E+00 -0.1704695E+00
 -0.8397840E+01 -0.5611260E+01 -0.2568960E-01  0.2989933E+00  0.2642201E+01  0.2624786E+00 -0.1431853E+00
 -0.7807400E+01 -0.6407370E+01 -0.2568960E-01  0.2574543E+00  0.2690907E+01  0.2317471E+00 -0.1121428E+00
 -0.7141780E+01 -0.7141780E+01 -0.2568960E-01  0.2151611E+00  0.2773372E+01  0.2007387E+00 -0.7744853E-01
 -0.6407370E+01 -0.7807410E+01 -0.2568960E-01  0.1744384E+00  0.2912228E+01  0.1698700E+00 -0.3966019E-01
 -0.5611260E+01 -0.8397850E+01 -0.2568960E-01  0.1394754E+00 -0.3126506E+01  0.1394595E+00  0.2104201E-02
 -0.4761110E+01 -0.8907410E+01 -0.2568960E-01  0.1200693E+00 -0.2742993E+01  0.1106565E+00  0.4660227E-01
 -0.3865100E+01 -0.9331190E+01 -0.2568960E-01  0.1257468E+00 -0.2310140E+01  0.8472860E-01  0.9291564E-01
 -0.2931870E+01 -0.9665100E+01 -0.2568960E-01  0.1536267E+00 -0.1983538E+01  0.6162311E-01  0.1407259E+00
 -0.1970410E+01 -0.9905930E+01 -0.2568960E-01  0.1949231E+00 -0.1787189E+01  0.4185145E-01  0.1903772E+00
 -0.9899710E+00 -0.1005140E+02 -0.2568960E-01  0.2417368E+00 -0.1677168E+01  0.2566547E-01  0.2403705E+00
  0.1204410E-06 -0.1010000E+02 -0.2568960E-01  0.2895846E+00 -0.1617589E+01  0.1354548E-01  0.2892676E+00
  0.9899760E+00 -0.1005140E+02 -0.2568960E-01  0.3372600E+00 -0.1585828E+01  0.5069363E-02  0.3372219E+00
  0.1970410E+01 -0.9905930E+01 -0.2568960E-01  0.3840390E+00 -0.1572253E+01  0.5594912E-03  0.3840385E+00
  0.2931880E+01 -0.9665100E+01 -0.2568960E-01  0.4286399E+00 -0.1569181E+01 -0.6925151E-03  0.4286393E+00
  0.3865100E+01 -0.9331180E+01 -0.2568960E-01  0.4696519E+00 -0.1572582E+01  0.8384048E-03  0.4696512E+00
  0.4761110E+01 -0.8907410E+01 -0.2568960E-01  0.5078311E+00 -0.1580074E+01  0.4711516E-02  0.5078092E+00
  0.5611260E+01 -0.8397840E+01 -0.2568960E-01  0.5427322E+00 -0.1590844E+01  0.1087991E-01  0.5426231E+00
  0.6407370E+01 -0.7807410E+01 -0.2568960E-01  0.5740659E+00 -0.1602635E+01  0.1827457E-01  0.5737749E+00
  0.7141780E+01 -0.7141780E+01 -0.2568960E-01  0.6009479E+00 -0.1613982E+01  0.2594401E-01  0.6003876E+00
  0.7807410E+01 -0.6407370E+01 -0.2568960E-01  0.6244358E+00 -0.1624879E+01  0.3375455E-01  0.6235228E+00
  0.8397840E+01 -0.5611260E+01 -0.2568960E-01  0.6438757E+00 -0.1635089E+01  0.4136795E-01  0.6425454E+00
  0.8907410E+01 -0.4761110E+01 -0.2568960E-01  0.6594931E+00 -0.1643780E+01  0.4808955E-01  0.6577375E+00
  0.9331180E+01 -0.3865100E+01 -0.2568960E-01  0.6706552E+00 -0.1650102E+01  0.5313070E-01  0.6685473E+00
  0.9665100E+01 -0.2931870E+01 -0.2568960E-01  0.6784194E+00 -0.1654499E+01  0.5671928E-01  0.6760442E+00
  0.9905930E+01 -0.1970410E+01 -0.2568960E-01  0.6819158E+00 -0.1656589E+01  0.5843193E-01  0.6794077E+00
  0.1005140E+02 -0.9899690E+00 -0.2568960E-01  0.6815964E+00 -0.1656427E+01  0.5829392E-01  0.6790990E+00
  0.1010000E+02  0.0000000E+00 -0.1027320E+00  0.6739253E+00 -0.1653922E+01  0.5595582E-01  0.6715983E+00
  0.1005140E+02  0.9899730E+00 -0.1027320E+00  0.6658799E+00 -0.1649230E+01  0.5217371E-01  0.6638328E+00
  0.9905930E+01  0.1970410E+01 -0.1027320E+00  0.6534620E+00 -0.1642050E+01  0.4652236E-01  0.6518039E+00
  0.9665100E+01  0.2931880E+01 -0.1027320E+00  0.6373402E+00 -0.1633114E+01  0.3969209E-01  0.6361031E+00
  0.9331180E+01  0.3865100E+01 -0.1027320E+00  0.6171337E+00 -0.1623032E+01  0.3222162E-01  0.6162919E+00
  0.8907400E+01  0.4761110E+01 -0.1027320E+00  0.5933959E+00 -0.1612041E+01  0.2446774E-01  0.5928912E+00
  0.8397840E+01  0.5611260E+01 -0.1027320E+00  0.5652057E+00 -0.1600024E+01  0.1651710E-01  0.5649643E+00
  0.7807410E+01  0.6407370E+01 -0.1027320E+00  0.5334623E+00 -0.1588278E+01  0.9325292E-02  0.5333808E+00
  0.7141780E+01  0.7141780E+01 -0.1027320E+00  0.4982149E+00 -0.1578646E+01  0.3910609E-02  0.4981996E+00
  0.6407370E+01  0.7807410E+01 -0.1027320E+00  0.4598472E+00 -0.1571724E+01  0.4265345E-03  0.4598470E+00
  0.5611260E+01  0.8397840E+01 -0.1027320E+00  0.4176461E+00 -0.1569022E+01 -0.7408847E-03  0.4176454E+00
  0.4761110E+01  0.8907410E+01 -0.1027320E+00  0.3728738E+00 -0.1573470E+01  0.9971365E-03  0.3728725E+00
  0.3865100E+01  0.9331180E+01 -0.1027320E+00  0.3264748E+00 -0.1590676E+01  0.6489647E-02  0.3264103E+00
  0.2931870E+01  0.9665100E+01 -0.1027320E+00  0.2789392E+00 -0.1626537E+01  0.1554029E-01  0.2785060E+00
  0.1970410E+01  0.9905930E+01 -0.1027320E+00  0.2307239E+00 -0.1694887E+01  0.2855721E-01  0.2289498E+00
  0.9899730E+00  0.1005140E+02 -0.1027320E+00  0.1848260E+00 -0.1818072E+01  0.4523864E-01  0.1792041E+00
 -0.4414850E-06  0.1010000E+02 -0.1027320E+00  0.1462078E+00 -0.2035881E+01  0.6557395E-01  0.1306782E+00
 -0.9899740E+00  0.1005140E+02 -0.1027320E+00  0.1219227E+00 -0.2390314E+01  0.8910314E-01  0.8322126E-01
 -0.1970410E+01  0.9905930E+01 -0.1027320E+00  0.1216928E+00 -0.2832137E+01  0.1159123E+00  0.3706032E-01
 -0.2931880E+01  0.9665100E+01 -0.1027320E+00  0.1450229E+00  0.3094485E+01  0.1448620E+00 -0.6829174E-02
 -0.3865100E+01  0.9331180E+01 -0.1027320E+00  0.1811862E+00  0.2878724E+01  0.1749621E+00 -0.4708160E-01
 -0.4761110E+01  0.8907400E+01 -0.1027320E+00  0.2224372E+00  0.2752574E+01  0.2058171E+00 -0.8436611E-01
 -0.5611260E+01  0.8397840E+01 -0.1027320E+00  0.2649412E+00  0.2678915E+01  0.2370854E+00 -0.1182555E+00
 -0.6407370E+01  0.7807410E+01 -0.1027320E+00  0.3059449E+00  0.2634521E+01  0.2674480E+00 -0.1485727E+00
 -0.7141780E+01  0.7141780E+01 -0.1027320E+00  0.3431215E+00  0.2608372E+01  0.2954876E+00 -0.1744118E+00
 -0.7807410E+01  0.6407370E+01 -0.1027320E+00  0.3766341E+00  0.2592014E+01  0.3211728E+00 -0.1967264E+00
 -0.8397840E+01  0.5611260E+01 -0.1027320E+00  0.4055616E+00  0.2582824E+01  0.3438792E+00 -0.2150053E+00
 -0.8907410E+01  0.4761110E+01 -0.1027320E+00  0.4294566E+00  0.2577322E+01  0.3628818E+00 -0.2296731E+00
 -0.9331180E+01  0.3865100E+01 -0.1027320E+00  0.4469845E+00  0.2574515E+01  0.3770199E+00 -0.2401066E+00
 -0.9665100E+01  0.2931880E+01 -0.1027320E+00  0.4589736E+00  0.2572720E+01  0.3866892E+00 -0.2472412E+00
 -0.9905930E+01  0.1970410E+01 -0.1027320E+00  0.4645002E+00  0.2572246E+01  0.3912269E+00 -0.2504037E+00
 -0.1005140E+02  0.9899730E+00 -0.1027320E+00  0.4640384E+00  0.2572212E+01  0.3908293E+00 -0.2501682E+00
 -0.1010000E+02 -0.8829700E-06 -0.1027320E+00  0.4569632E+00  0.2573218E+01  0.3851182E+00 -0.2459662E+00
 -0.1005140E+02 -0.9899740E+00 -0.1027320E+00  0.4441882E+00  0.2574789E+01  0.3747268E+00 -0.2385016E+00
 -0.9905930E+01 -0.1970410E+01 -0.1027320E+00  0.4248593E+00  0.2578221E+01  0.3592012E+00 -0.2268919E+00
 -0.9665100E+01 -0.2931880E+01 -0.1027320E+00  0.4001628E+00  0.2584072E+01  0.3395660E+00 -0.2117197E+00
 -0.9331180E+01 -0.3865100E+01 -0.1027320E+00  0.3703467E+00  0.2594974E+01  0.3163824E+00 -0.1925068E+00
 -0.8907400E+01 -0.4761110E+01 -0.1027320E+00  0.3363097E+00  0.2612364E+01  0.2903014E+00 -0.1697919E+00
 -0.8397840E+01 -0.5611260E+01 -0.1027320E+00  0.2976336E+00  0.2642001E+01  0.2612564E+00 -0.1425865E+00
 -0.7807400E+01 -0.6407370E+01 -0.1027320E+00  0.2563149E+00  0.2690522E+01  0.2306785E+00 -0.1117352E+00
 -0.7141780E+01 -0.7141780E+01 -0.1027320E+00  0.2142218E+00  0.2772681E+01  0.1998090E+00 -0.7724855E-01
 -0.6407370E+01 -0.7807410E+01 -0.1027320E+00  0.1736368E+00  0.2911664E+01  0.1690671E+00 -0.3957328E-01
 -0.5611260E+01 -0.8397850E+01 -0.1027320E+00  0.1388124E+00 -0.3126979E+01  0.1387976E+00  0.2028505E-02
 -0.4761110E+01 -0.8907410E+01 -0.1027320E+00  0.1194581E+00 -0.2743649E+01  0.1101236E+00  0.4629288E-01
 -0.3865100E+01 -0.9331190E+01 -0.1027320E+00  0.1250579E+00 -0.2310465E+01  0.8429436E-01  0.9237926E-01
 -0.2931870E+01 -0.9665100E+01 -0.1027320E+00  0.1528394E+00 -0.1983539E+01  0.6130740E-01  0.1400046E+00
 -0.1970410E+01 -0.9905930E+01 -0.1027320E+00  0.1939557E+00 -0.1787176E+01  0.4164143E-01  0.1894329E+00
 -0.9899710E+00 -0.1005140E+02 -0.1027320E+00  0.2405500E+00 -0.1677084E+01  0.2551935E-01  0.2391925E+00
  0.1204410E-06 -0.1010000E+02 -0.1027320E+00  0.2882017E+00 -0.1617434E+01  0.1343605E-01  0.2878883E+00
  0.9899760E+00 -0.1005140E+02 -0.1027320E+00  0.3356580E+00 -0.1585772E+01  0.5026463E-02  0.3356204E+00
  0.1970410E+01 -0.9905930E+01 -0.1027320E+00  0.3822015E+00 -0.1572245E+01  0.5537634E-03  0.3822011E+00
  0.2931880E+01 -0.9665100E+01 -0.1027320E+00  0.4266183E+00 -0.1569157E+01 -0.6995403E-03  0.4266178E+00
  0.3865100E+01 -0.9331180E+01 -0.1027320E+00  0.4674951E+00 -0.1572555E+01  0.8222902E-03  0.4674944E+00
  0.4761110E+01 -0.8907410E+01 -0.1027320E+00  0.5054603E+00 -0.1580096E+01  0.4700491E-02  0.5054384E+00
  0.5611260E+01 -0.8397840E+01 -0.1027320E+00  0.5401592E+00 -0.1590881E+01  0.1084816E-01  0.5400503E+00
  0.6407370E+01 -0.7807410E+01 -0.1027320E+00  0.5713903E+00 -0.1602676E+01  0.1821249E-01  0.5711000E+00
  0.7141780E+01 -0.7141780E+01 -0.1027320E+00  0.5982177E+00 -0.1614044E+01  0.2586348E-01  0.5976584E+00
  0.7807410E+01 -0.6407370E+01 -0.1027320E+00  0.6215363E+00 -0.1624950E+01  0.3364182E-01  0.6206251E+00
  0.8397840E+01 -0.5611260E+01 -0.1027320E+00  0.6408317E+00 -0.1635156E+01  0.4121501E-01  0.6395050E+00
