 VARIABLES="X" "Y" "Z" "abs(eta) (m)" "angle(phi) (rad)" "PRE1" "PRE2"
ZONE N=   3200 ,E =    3136 ,F=FEPOINT,ET=QUADRILATERAL
  0.1010000E+02  0.0000000E+00  0.0000000E+00  0.5849328E+00 -0.1717315E+01  0.8539730E-01  0.5786654E+00
  0.1005140E+02  0.9899730E+00  0.0000000E+00  0.5884744E+00 -0.1719139E+01  0.8697598E-01  0.5820114E+00
  0.9905930E+01  0.1970410E+01  0.0000000E+00  0.5886800E+00 -0.1719333E+01  0.8711915E-01  0.5821978E+00
  0.9665100E+01  0.2931880E+01  0.0000000E+00  0.5854692E+00 -0.1717726E+01  0.8571342E-01  0.5791609E+00
  0.9331180E+01  0.3865100E+01  0.0000000E+00  0.5789343E+00 -0.1714584E+01  0.8295684E-01  0.5729599E+00
  0.8907400E+01  0.4761110E+01  0.0000000E+00  0.5675894E+00 -0.1709851E+01  0.7867179E-01  0.5621107E+00
  0.8397840E+01  0.5611260E+01  0.0000000E+00  0.5528981E+00 -0.1703661E+01  0.7324479E-01  0.5480251E+00
  0.7807410E+01  0.6407370E+01  0.0000000E+00  0.5349084E+00 -0.1696397E+01  0.6700855E-01  0.5306947E+00
  0.7141780E+01  0.7141780E+01  0.0000000E+00  0.5138568E+00 -0.1688799E+01  0.6049578E-01  0.5102833E+00
  0.6407370E+01  0.7807410E+01  0.0000000E+00  0.4884970E+00 -0.1681265E+01  0.5385382E-01  0.4855194E+00
  0.5611260E+01  0.8397840E+01  0.0000000E+00  0.4600739E+00 -0.1674005E+01  0.4739934E-01  0.4576257E+00
  0.4761110E+01  0.8907410E+01  0.0000000E+00  0.4288222E+00 -0.1668287E+01  0.4174000E-01  0.4267859E+00
  0.3865100E+01  0.9331180E+01  0.0000000E+00  0.3952541E+00 -0.1665669E+01  0.3744261E-01  0.3934767E+00
  0.2931870E+01  0.9665100E+01  0.0000000E+00  0.3586546E+00 -0.1668242E+01  0.3489401E-01  0.3569531E+00
  0.1970410E+01  0.9905930E+01  0.0000000E+00  0.3199423E+00 -0.1677720E+01  0.3414438E-01  0.3181151E+00
  0.9899730E+00  0.1005140E+02  0.0000000E+00  0.2798293E+00 -0.1698768E+01  0.3571257E-01  0.2775411E+00
 -0.4414850E-06  0.1010000E+02  0.0000000E+00  0.2393286E+00 -0.1737828E+01  0.3978976E-01  0.2359978E+00
 -0.9899740E+00  0.1005140E+02  0.0000000E+00  0.1989977E+00 -0.1807789E+01  0.4672071E-01  0.1934354E+00
 -0.1970410E+01  0.9905930E+01  0.0000000E+00  0.1604624E+00 -0.1928860E+01  0.5623582E-01  0.1502855E+00
 -0.2931880E+01  0.9665100E+01  0.0000000E+00  0.1272791E+00 -0.2137926E+01  0.6837600E-01  0.1073532E+00
 -0.3865100E+01  0.9331180E+01  0.0000000E+00  0.1055029E+00 -0.2472454E+01  0.8275182E-01  0.6544460E-01
 -0.4761110E+01  0.8907400E+01  0.0000000E+00  0.1025040E+00 -0.2893882E+01  0.9937522E-01  0.2513243E-01
 -0.5611260E+01  0.8397840E+01  0.0000000E+00  0.1186325E+00  0.3024822E+01  0.1178247E+00 -0.1382130E-01
 -0.6407370E+01  0.7807410E+01  0.0000000E+00  0.1466179E+00  0.2788585E+01  0.1375770E+00 -0.5068895E-01
 -0.7141780E+01  0.7141780E+01  0.0000000E+00  0.1792944E+00  0.2647672E+01  0.1578653E+00 -0.8500019E-01
 -0.7807410E+01  0.6407370E+01  0.0000000E+00  0.2125471E+00  0.2565801E+01  0.1782763E+00 -0.1157317E+00
 -0.8397840E+01  0.5611260E+01  0.0000000E+00  0.2451501E+00  0.2514769E+01  0.1985458E+00 -0.1437989E+00
 -0.8907410E+01  0.4761110E+01  0.0000000E+00  0.2756549E+00  0.2482428E+01  0.2179063E+00 -0.1688267E+00
 -0.9331180E+01  0.3865100E+01  0.0000000E+00  0.3031252E+00  0.2461263E+01  0.2356391E+00 -0.1906806E+00
 -0.9665100E+01  0.2931880E+01  0.0000000E+00  0.3260639E+00  0.2449533E+01  0.2510474E+00 -0.2080694E+00
 -0.9905930E+01  0.1970410E+01  0.0000000E+00  0.3453832E+00  0.2442076E+01  0.2642712E+00 -0.2223742E+00
 -0.1005140E+02  0.9899730E+00  0.0000000E+00  0.3605224E+00  0.2437168E+01  0.2747125E+00 -0.2334726E+00
 -0.1010000E+02 -0.8829700E-06  0.0000000E+00  0.3712766E+00  0.2433723E+01  0.2820768E+00 -0.2414103E+00
 -0.1005140E+02 -0.9899740E+00  0.0000000E+00  0.3761128E+00  0.2433239E+01  0.2856329E+00 -0.2446930E+00
 -0.9905930E+01 -0.1970410E+01  0.0000000E+00  0.3764536E+00  0.2433402E+01  0.2859316E+00 -0.2448681E+00
 -0.9665100E+01 -0.2931880E+01  0.0000000E+00  0.3721586E+00  0.2434094E+01  0.2828368E+00 -0.2418788E+00
 -0.9331180E+01 -0.3865100E+01  0.0000000E+00  0.3634433E+00  0.2435675E+01  0.2765864E+00 -0.2357775E+00
 -0.8907400E+01 -0.4761110E+01  0.0000000E+00  0.3489626E+00  0.2440723E+01  0.2667056E+00 -0.2250400E+00
 -0.8397840E+01 -0.5611260E+01  0.0000000E+00  0.3302313E+00  0.2448020E+01  0.2539369E+00 -0.2111131E+00
 -0.7807400E+01 -0.6407370E+01  0.0000000E+00  0.3075694E+00  0.2459138E+01  0.2386823E+00 -0.1939839E+00
 -0.7141780E+01 -0.7141780E+01  0.0000000E+00  0.2816268E+00  0.2476496E+01  0.2216001E+00 -0.1738017E+00
 -0.6407370E+01 -0.7807410E+01  0.0000000E+00  0.2516717E+00  0.2506768E+01  0.2026399E+00 -0.1492505E+00
 -0.5611260E+01 -0.8397850E+01  0.0000000E+00  0.2192631E+00  0.2553797E+01  0.1824632E+00 -0.1215874E+00
 -0.4761110E+01 -0.8907410E+01  0.0000000E+00  0.1856536E+00  0.2629389E+01  0.1618281E+00 -0.9098865E-01
 -0.3865100E+01 -0.9331190E+01  0.0000000E+00  0.1528865E+00  0.2753094E+01  0.1414932E+00 -0.5791333E-01
 -0.2931870E+01 -0.9665100E+01  0.0000000E+00  0.1236744E+00  0.2966275E+01  0.1217786E+00 -0.2157137E-01
 -0.1970410E+01 -0.9905930E+01  0.0000000E+00  0.1044234E+00 -0.2977081E+01  0.1030135E+00  0.1710153E-01
 -0.9899710E+00 -0.1005140E+02  0.0000000E+00  0.1034109E+00 -0.2551597E+01  0.8592854E-01  0.5753343E-01
  0.1204410E-06 -0.1010000E+02  0.0000000E+00  0.1217671E+00 -0.2192732E+01  0.7094263E-01  0.9896650E-01
  0.9899760E+00 -0.1005140E+02  0.0000000E+00  0.1531008E+00 -0.1962674E+01  0.5847291E-01  0.1414948E+00
  0.1970410E+01 -0.9905930E+01  0.0000000E+00  0.1908912E+00 -0.1827278E+01  0.4842507E-01  0.1846468E+00
  0.2931880E+01 -0.9665100E+01  0.0000000E+00  0.2312903E+00 -0.1749326E+01  0.4107310E-01  0.2276141E+00
  0.3865100E+01 -0.9331180E+01  0.0000000E+00  0.2720200E+00 -0.1704504E+01  0.3626300E-01  0.2695921E+00
  0.4761110E+01 -0.8907410E+01  0.0000000E+00  0.3119276E+00 -0.1680674E+01  0.3420490E-01  0.3100465E+00
  0.5611260E+01 -0.8397840E+01  0.0000000E+00  0.3508742E+00 -0.1669340E+01  0.3452037E-01  0.3491720E+00
  0.6407370E+01 -0.7807410E+01  0.0000000E+00  0.3879872E+00 -0.1666082E+01  0.3691354E-01  0.3862272E+00
  0.7141780E+01 -0.7141780E+01  0.0000000E+00  0.4227130E+00 -0.1667499E+01  0.4081383E-01  0.4207380E+00
  0.7807410E+01 -0.6407370E+01  0.0000000E+00  0.4540609E+00 -0.1672518E+01  0.4610804E-01  0.4517137E+00
  0.8397840E+01 -0.5611260E+01  0.0000000E+00  0.4828800E+00 -0.1679601E+01  0.5243604E-01  0.4800246E+00
  0.8907410E+01 -0.4761110E+01  0.0000000E+00  0.5087371E+00 -0.1687447E+01  0.5921005E-01  0.5052798E+00
  0.9331180E+01 -0.3865100E+01  0.0000000E+00  0.5314327E+00 -0.1695024E+01  0.6584887E-01  0.5273374E+00
  0.9665100E+01 -0.2931870E+01  0.0000000E+00  0.5496747E+00 -0.1702171E+01  0.7200598E-01  0.5449380E+00
  0.9905930E+01 -0.1970410E+01  0.0000000E+00  0.5647763E+00 -0.1708634E+01  0.7760116E-01  0.5594196E+00
  0.1005140E+02 -0.9899690E+00  0.0000000E+00  0.5765299E+00 -0.1713766E+01  0.8214591E-01  0.5706477E+00
  0.1010000E+02  0.0000000E+00 -0.2568960E-01  0.5842202E+00 -0.1717357E+01  0.8531757E-01  0.5779569E+00
  0.1005140E+02  0.9899730E+00 -0.2568960E-01  0.5877410E+00 -0.1719178E+01  0.8689057E-01  0.5812827E+00
  0.9905930E+01  0.1970410E+01 -0.2568960E-01  0.5878419E+00 -0.1719354E+01  0.8700767E-01  0.5813672E+00
  0.9665100E+01  0.2931880E+01 -0.2568960E-01  0.5847383E+00 -0.1717765E+01  0.8562917E-01  0.5784345E+00
  0.9331180E+01  0.3865100E+01 -0.2568960E-01  0.5782298E+00 -0.1714624E+01  0.8287899E-01  0.5722594E+00
  0.8907400E+01  0.4761110E+01 -0.2568960E-01  0.5668806E+00 -0.1709886E+01  0.7859345E-01  0.5614060E+00
  0.8397840E+01  0.5611260E+01 -0.2568960E-01  0.5521123E+00 -0.1703688E+01  0.7315510E-01  0.5472443E+00
  0.7807410E+01  0.6407370E+01 -0.2568960E-01  0.5342391E+00 -0.1696428E+01  0.6694077E-01  0.5300286E+00
  0.7141780E+01  0.7141780E+01 -0.2568960E-01  0.5132286E+00 -0.1688823E+01  0.6043433E-01  0.5096580E+00
  0.6407370E+01  0.7807410E+01 -0.2568960E-01  0.4878837E+00 -0.1681286E+01  0.5379637E-01  0.4849088E+00
  0.5611260E+01  0.8397840E+01 -0.2568960E-01  0.4594218E+00 -0.1674046E+01  0.4735076E-01  0.4569752E+00
  0.4761110E+01  0.8907410E+01 -0.2568960E-01  0.4282809E+00 -0.1668297E+01  0.4169165E-01  0.4262468E+00
  0.3865100E+01  0.9331180E+01 -0.2568960E-01  0.3947636E+00 -0.1665663E+01  0.3739390E-01  0.3929885E+00
  0.2931870E+01  0.9665100E+01 -0.2568960E-01  0.3581969E+00 -0.1668238E+01  0.3484810E-01  0.3564977E+00
  0.1970410E+01  0.9905930E+01 -0.2568960E-01  0.3194944E+00 -0.1677790E+01  0.3411882E-01  0.3176674E+00
  0.9899730E+00  0.1005140E+02 -0.2568960E-01  0.2794649E+00 -0.1698751E+01  0.3566131E-01  0.2771803E+00
 -0.4414850E-06  0.1010000E+02 -0.2568960E-01  0.2390137E+00 -0.1737783E+01  0.3972679E-01  0.2356890E+00
 -0.9899740E+00  0.1005140E+02 -0.2568960E-01  0.1987273E+00 -0.1807767E+01  0.4665297E-01  0.1931736E+00
 -0.1970410E+01  0.9905930E+01 -0.2568960E-01  0.1602517E+00 -0.1928988E+01  0.5618117E-01  0.1500809E+00
 -0.2931880E+01  0.9665100E+01 -0.2568960E-01  0.1270931E+00 -0.2137969E+01  0.6828076E-01  0.1071933E+00
 -0.3865100E+01  0.9331180E+01 -0.2568960E-01  0.1053401E+00 -0.2472634E+01  0.8263588E-01  0.6532872E-01
 -0.4761110E+01  0.8907400E+01 -0.2568960E-01  0.1023609E+00 -0.2894165E+01  0.9924356E-01  0.2506927E-01
 -0.5611260E+01  0.8397840E+01 -0.2568960E-01  0.1184862E+00  0.3024956E+01  0.1176812E+00 -0.1378849E-01
 -0.6407370E+01  0.7807410E+01 -0.2568960E-01  0.1464431E+00  0.2788344E+01  0.1374009E+00 -0.5066160E-01
 -0.7141780E+01  0.7141780E+01 -0.2568960E-01  0.1790931E+00  0.2647425E+01  0.1576670E+00 -0.8494374E-01
 -0.7807410E+01  0.6407370E+01 -0.2568960E-01  0.2123037E+00  0.2565650E+01  0.1780547E+00 -0.1156261E+00
 -0.8397840E+01  0.5611260E+01 -0.2568960E-01  0.2448085E+00  0.2514874E+01  0.1982843E+00 -0.1435777E+00
 -0.8907410E+01  0.4761110E+01 -0.2568960E-01  0.2753400E+00  0.2482325E+01  0.2176399E+00 -0.1686563E+00
 -0.9331180E+01  0.3865100E+01 -0.2568960E-01  0.3027927E+00  0.2461145E+01  0.2353581E+00 -0.1904992E+00
 -0.9665100E+01  0.2931880E+01 -0.2568960E-01  0.3256907E+00  0.2449456E+01  0.2507443E+00 -0.2078504E+00
 -0.9905930E+01  0.1970410E+01 -0.2568960E-01  0.3448931E+00  0.2442151E+01  0.2639128E+00 -0.2220390E+00
 -0.1005140E+02  0.9899730E+00 -0.2568960E-01  0.3601089E+00  0.2437105E+01  0.2743827E+00 -0.2332221E+00
 -0.1010000E+02 -0.8829700E-06 -0.2568960E-01  0.3708687E+00  0.2433643E+01  0.2817478E+00 -0.2411674E+00
 -0.1005140E+02 -0.9899740E+00 -0.2568960E-01  0.3756817E+00  0.2433184E+01  0.2852919E+00 -0.2444284E+00
 -0.9905930E+01 -0.1970410E+01 -0.2568960E-01  0.3759185E+00  0.2433470E+01  0.2855418E+00 -0.2445007E+00
 -0.9665100E+01 -0.2931880E+01 -0.2568960E-01  0.3717314E+00  0.2434036E+01  0.2824982E+00 -0.2416175E+00
 -0.9331180E+01 -0.3865100E+01 -0.2568960E-01  0.3630440E+00  0.2435590E+01  0.2762624E+00 -0.2355420E+00
 -0.8907400E+01 -0.4761110E+01 -0.2568960E-01  0.3485631E+00  0.2440657E+01  0.2663856E+00 -0.2247999E+00
 -0.8397840E+01 -0.5611260E+01 -0.2568960E-01  0.3297637E+00  0.2448098E+01  0.2535938E+00 -0.2107944E+00
 -0.7807400E+01 -0.6407370E+01 -0.2568960E-01  0.3072182E+00  0.2459054E+01  0.2383934E+00 -0.1937824E+00
 -0.7141780E+01 -0.7141780E+01 -0.2568960E-01  0.2813182E+00  0.2476364E+01  0.2213344E+00 -0.1736405E+00
 -0.6407370E+01 -0.7807410E+01 -0.2568960E-01  0.2513838E+00  0.2506647E+01  0.2023901E+00 -0.1491043E+00
 -0.5611260E+01 -0.8397850E+01 -0.2568960E-01  0.2189601E+00  0.2553913E+01  0.1822250E+00 -0.1213983E+00
 -0.4761110E+01 -0.8907410E+01 -0.2568960E-01  0.1854392E+00  0.2629208E+01  0.1616247E+00 -0.9091292E-01
 -0.3865100E+01 -0.9331190E+01 -0.2568960E-01  0.1527098E+00  0.2752797E+01  0.1413125E+00 -0.5788833E-01
 -0.2931870E+01 -0.9665100E+01 -0.2568960E-01  0.1235199E+00  0.2965993E+01  0.1216204E+00 -0.2157879E-01
 -0.1970410E+01 -0.9905930E+01 -0.2568960E-01  0.1043013E+00 -0.2977000E+01  0.1028916E+00  0.1708986E-01
 -0.9899710E+00 -0.1005140E+02 -0.2568960E-01  0.1032580E+00 -0.2551787E+01  0.8581245E-01  0.5743201E-01
  0.1204410E-06 -0.1010000E+02 -0.2568960E-01  0.1215826E+00 -0.2192787E+01  0.7084060E-01  0.9881265E-01
  0.9899760E+00 -0.1005140E+02 -0.2568960E-01  0.1528841E+00 -0.1962673E+01  0.5839000E-01  0.1412946E+00
  0.1970410E+01 -0.9905930E+01 -0.2568960E-01  0.1906338E+00 -0.1827395E+01  0.4838131E-01  0.1843923E+00
  0.2931880E+01 -0.9665100E+01 -0.2568960E-01  0.2309824E+00 -0.1749301E+01  0.4101291E-01  0.2273121E+00
  0.3865100E+01 -0.9331180E+01 -0.2568960E-01  0.2716685E+00 -0.1704467E+01  0.3620604E-01  0.2692451E+00
  0.4761110E+01 -0.8907410E+01 -0.2568960E-01  0.3115256E+00 -0.1680663E+01  0.3415740E-01  0.3096474E+00
  0.5611260E+01 -0.8397840E+01 -0.2568960E-01  0.3503811E+00 -0.1669402E+01  0.3449377E-01  0.3486790E+00
  0.6407370E+01 -0.7807410E+01 -0.2568960E-01  0.3874955E+00 -0.1666083E+01  0.3686721E-01  0.3857377E+00
  0.7141780E+01 -0.7141780E+01 -0.2568960E-01  0.4221906E+00 -0.1667500E+01  0.4076400E-01  0.4202181E+00
  0.7807410E+01 -0.6407370E+01 -0.2568960E-01  0.4534896E+00 -0.1672533E+01  0.4605703E-01  0.4511447E+00
  0.8397840E+01 -0.5611260E+01 -0.2568960E-01  0.4821954E+00 -0.1679638E+01  0.5237937E-01  0.4793421E+00
  0.8907410E+01 -0.4761110E+01 -0.2568960E-01  0.5081005E+00 -0.1687471E+01  0.5914821E-01  0.5046460E+00
  0.9331180E+01 -0.3865100E+01 -0.2568960E-01  0.5307837E+00 -0.1695053E+01  0.6578356E-01  0.5266914E+00
  0.9665100E+01 -0.2931870E+01 -0.2568960E-01  0.5489878E+00 -0.1702204E+01  0.7193393E-01  0.5442547E+00
  0.9905930E+01 -0.1970410E+01 -0.2568960E-01  0.5639734E+00 -0.1708658E+01  0.7750453E-01  0.5586224E+00
  0.1005140E+02 -0.9899690E+00 -0.2568960E-01  0.5758105E+00 -0.1713804E+01  0.8206475E-01  0.5699325E+00
  0.1010000E+02  0.0000000E+00 -0.1027320E+00  0.5820196E+00 -0.1717466E+01  0.8505866E-01  0.5757706E+00
  0.1005140E+02  0.9899730E+00 -0.1027320E+00  0.5854828E+00 -0.1719279E+01  0.8661506E-01  0.5790405E+00
  0.9905930E+01  0.1970410E+01 -0.1027320E+00  0.5853732E+00 -0.1719418E+01  0.8667901E-01  0.5789202E+00
  0.9665100E+01  0.2931880E+01 -0.1027320E+00  0.5824918E+00 -0.1717865E+01  0.8535756E-01  0.5762037E+00
  0.9331180E+01  0.3865100E+01 -0.1027320E+00  0.5760518E+00 -0.1714729E+01  0.8262664E-01  0.5700951E+00
  0.8907400E+01  0.4761110E+01 -0.1027320E+00  0.5647014E+00 -0.1709977E+01  0.7834216E-01  0.5592408E+00
  0.8397840E+01  0.5611260E+01 -0.1027320E+00  0.5497955E+00 -0.1703759E+01  0.7288723E-01  0.5449427E+00
  0.7807410E+01  0.6407370E+01 -0.1027320E+00  0.5321833E+00 -0.1696507E+01  0.6672516E-01  0.5279837E+00
  0.7141780E+01  0.7141780E+01 -0.1027320E+00  0.5112902E+00 -0.1688891E+01  0.6024018E-01  0.5077291E+00
  0.6407370E+01  0.7807410E+01 -0.1027320E+00  0.4860026E+00 -0.1681342E+01  0.5361636E-01  0.4830360E+00
  0.5611260E+01  0.8397840E+01 -0.1027320E+00  0.4574973E+00 -0.1674143E+01  0.4719672E-01  0.4550563E+00
  0.4761110E+01  0.8907410E+01 -0.1027320E+00  0.4266232E+00 -0.1668334E+01  0.4154581E-01  0.4245955E+00
  0.3865100E+01  0.9331180E+01 -0.1027320E+00  0.3932550E+00 -0.1665660E+01  0.3724974E-01  0.3914868E+00
  0.2931870E+01  0.9665100E+01 -0.1027320E+00  0.3567994E+00 -0.1668241E+01  0.3471311E-01  0.3551067E+00
  0.1970410E+01  0.9905930E+01 -0.1027320E+00  0.3181656E+00 -0.1677948E+01  0.3402689E-01  0.3163408E+00
  0.9899730E+00  0.1005140E+02 -0.1027320E+00  0.2783599E+00 -0.1698729E+01  0.3551436E-01  0.2760851E+00
 -0.4414850E-06  0.1010000E+02 -0.1027320E+00  0.2380622E+00 -0.1737690E+01  0.3954700E-01  0.2347544E+00
 -0.9899740E+00  0.1005140E+02 -0.1027320E+00  0.1979181E+00 -0.1807736E+01  0.4645711E-01  0.1923884E+00
 -0.1970410E+01  0.9905930E+01 -0.1027320E+00  0.1596143E+00 -0.1929270E+01  0.5599994E-01  0.1494682E+00
 -0.2931880E+01  0.9665100E+01 -0.1027320E+00  0.1265503E+00 -0.2138080E+01  0.6800092E-01  0.1067279E+00
 -0.3865100E+01  0.9331180E+01 -0.1027320E+00  0.1048704E+00 -0.2473026E+01  0.8229293E-01  0.6500513E-01
 -0.4761110E+01  0.8907400E+01 -0.1027320E+00  0.1019401E+00 -0.2894759E+01  0.9885035E-01  0.2490746E-01
 -0.5611260E+01  0.8397840E+01 -0.1027320E+00  0.1180385E+00  0.3025243E+01  0.1172404E+00 -0.1370283E-01
 -0.6407370E+01  0.7807410E+01 -0.1027320E+00  0.1459014E+00  0.2787861E+01  0.1368681E+00 -0.5054033E-01
 -0.7141780E+01  0.7141780E+01 -0.1027320E+00  0.1784576E+00  0.2646905E+01  0.1570636E+00 -0.8472387E-01
 -0.7807410E+01  0.6407370E+01 -0.1027320E+00  0.2115383E+00  0.2565358E+01  0.1773791E+00 -0.1152609E+00
 -0.8397840E+01  0.5611260E+01 -0.1027320E+00  0.2437999E+00  0.2515108E+01  0.1975008E+00 -0.1429399E+00
 -0.8907410E+01  0.4761110E+01 -0.1027320E+00  0.2743474E+00  0.2482127E+01  0.2168221E+00 -0.1680912E+00
 -0.9331180E+01  0.3865100E+01 -0.1027320E+00  0.3017368E+00  0.2460908E+01  0.2344923E+00 -0.1898907E+00
 -0.9665100E+01  0.2931880E+01 -0.1027320E+00  0.3245159E+00  0.2449319E+01  0.2498112E+00 -0.2071350E+00
 -0.9905930E+01  0.1970410E+01 -0.1027320E+00  0.3434551E+00  0.2442322E+01  0.2628503E+00 -0.2210681E+00
 -0.1005140E+02  0.9899730E+00 -0.1027320E+00  0.3588080E+00  0.2436994E+01  0.2733656E+00 -0.2324100E+00
 -0.1010000E+02 -0.8829700E-06 -0.1027320E+00  0.3695726E+00  0.2433489E+01  0.2807261E+00 -0.2403679E+00
 -0.1005140E+02 -0.9899740E+00 -0.1027320E+00  0.3743236E+00  0.2433085E+01  0.2842367E+00 -0.2435727E+00
 -0.9905930E+01 -0.1970410E+01 -0.1027320E+00  0.3743475E+00  0.2433627E+01  0.2843867E+00 -0.2434344E+00
 -0.9665100E+01 -0.2931880E+01 -0.1027320E+00  0.3703885E+00  0.2433937E+01  0.2814537E+00 -0.2407725E+00
 -0.9331180E+01 -0.3865100E+01 -0.1027320E+00  0.3617760E+00  0.2435429E+01  0.2752597E+00 -0.2347636E+00
 -0.8907400E+01 -0.4761110E+01 -0.1027320E+00  0.3473042E+00  0.2440535E+01  0.2653961E+00 -0.2240203E+00
 -0.8397840E+01 -0.5611260E+01 -0.1027320E+00  0.3283899E+00  0.2448276E+01  0.2525747E+00 -0.2098714E+00
 -0.7807400E+01 -0.6407370E+01 -0.1027320E+00  0.3061109E+00  0.2458899E+01  0.2375042E+00 -0.1931208E+00
 -0.7141780E+01 -0.7141780E+01 -0.1027320E+00  0.2803369E+00  0.2476094E+01  0.2205155E+00 -0.1730943E+00
 -0.6407370E+01 -0.7807410E+01 -0.1027320E+00  0.2504775E+00  0.2506418E+01  0.2016263E+00 -0.1486129E+00
 -0.5611260E+01 -0.8397850E+01 -0.1027320E+00  0.2180640E+00  0.2554169E+01  0.1815102E+00 -0.1208550E+00
 -0.4761110E+01 -0.8907410E+01 -0.1027320E+00  0.1847680E+00  0.2628853E+01  0.1610075E+00 -0.9064104E-01
 -0.3865100E+01 -0.9331190E+01 -0.1027320E+00  0.1521574E+00  0.2752172E+01  0.1407652E+00 -0.5776695E-01
 -0.2931870E+01 -0.9665100E+01 -0.1027320E+00  0.1230493E+00  0.2965421E+01  0.1211447E+00 -0.2156582E-01
 -0.1970410E+01 -0.9905930E+01 -0.1027320E+00  0.1039204E+00 -0.2976841E+01  0.1025133E+00  0.1704374E-01
 -0.9899710E+00 -0.1005140E+02 -0.1027320E+00  0.1028151E+00 -0.2552207E+01  0.8546841E-01  0.5714982E-01
  0.1204410E-06 -0.1010000E+02 -0.1027320E+00  0.1210469E+00 -0.2192906E+01  0.7054024E-01  0.9836888E-01
  0.9899760E+00 -0.1005140E+02 -0.1027320E+00  0.1522449E+00 -0.1962686E+01  0.5814779E-01  0.1407030E+00
  0.1970410E+01 -0.9905930E+01 -0.1027320E+00  0.1898621E+00 -0.1827649E+01  0.4823216E-01  0.1836335E+00
  0.2931880E+01 -0.9665100E+01 -0.1027320E+00  0.2300545E+00 -0.1749267E+01  0.4084047E-01  0.2264004E+00
  0.3865100E+01 -0.9331180E+01 -0.1027320E+00  0.2706016E+00 -0.1704391E+01  0.3604343E-01  0.2681904E+00
  0.4761110E+01 -0.8907410E+01 -0.1027320E+00  0.3103021E+00 -0.1680652E+01  0.3401980E-01  0.3084316E+00
  0.5611260E+01 -0.8397840E+01 -0.1027320E+00  0.3489201E+00 -0.1669543E+01  0.3439886E-01  0.3472204E+00
  0.6407370E+01 -0.7807410E+01 -0.1027320E+00  0.3859889E+00 -0.1666098E+01  0.3672981E-01  0.3842373E+00
  0.7141780E+01 -0.7141780E+01 -0.1027320E+00  0.4205828E+00 -0.1667514E+01  0.4061438E-01  0.4186172E+00
  0.7807410E+01 -0.6407370E+01 -0.1027320E+00  0.4517370E+00 -0.1672580E+01  0.4589994E-01  0.4493991E+00
  0.8397840E+01 -0.5611260E+01 -0.1027320E+00  0.4801745E+00 -0.1679728E+01  0.5220282E-01  0.4773284E+00
