 VARIABLES="X" "Y" "Z" "abs(eta) (m)" "angle(phi) (rad)" "PRE1" "PRE2"
ZONE N=   3200 ,E =    3136 ,F=FEPOINT,ET=QUADRILATERAL
  0.1100000E+02  0.0000000E+00  0.0000000E+00  0.3233435E+00 -0.1738870E+01  0.5408996E-01  0.3187872E+00
  0.1094700E+02  0.1078190E+01  0.0000000E+00  0.2969279E+00 -0.1745181E+01  0.5151772E-01  0.2924246E+00
  0.1078860E+02  0.2145990E+01  0.0000000E+00  0.2690673E+00 -0.1757554E+01  0.4995875E-01  0.2643886E+00
  0.1052630E+02  0.3193130E+01  0.0000000E+00  0.2401632E+00 -0.1778535E+01  0.4953309E-01  0.2349996E+00
  0.1016270E+02  0.4209520E+01  0.0000000E+00  0.2104706E+00 -0.1812616E+01  0.5040124E-01  0.2043468E+00
  0.9701130E+01  0.5185360E+01  0.0000000E+00  0.1806011E+00 -0.1867634E+01  0.5282533E-01  0.1727027E+00
  0.9146170E+01  0.6111270E+01  0.0000000E+00  0.1516761E+00 -0.1954344E+01  0.5675913E-01  0.1406557E+00
  0.8503110E+01  0.6978330E+01  0.0000000E+00  0.1250237E+00 -0.2091073E+01  0.6215180E-01  0.1084808E+00
  0.7778170E+01  0.7778170E+01  0.0000000E+00  0.1029744E+00 -0.2305171E+01  0.6900552E-01  0.7643277E-01
  0.6978330E+01  0.8503110E+01  0.0000000E+00  0.8948145E-01 -0.2613710E+01  0.7730084E-01  0.4507228E-01
  0.6111270E+01  0.9146170E+01  0.0000000E+00  0.8796366E-01 -0.2973341E+01  0.8672154E-01  0.1473028E-01
  0.5185360E+01  0.9701130E+01  0.0000000E+00  0.9813378E-01  0.2993574E+01  0.9706072E-01 -0.1447262E-01
  0.4209520E+01  0.1016270E+02  0.0000000E+00  0.1160824E+00  0.2769406E+01  0.1081347E+00 -0.4221372E-01
  0.3193130E+01  0.1052630E+02  0.0000000E+00  0.1375041E+00  0.2625799E+01  0.1196151E+00 -0.6782047E-01
  0.2145990E+01  0.1078860E+02  0.0000000E+00  0.1597800E+00  0.2533139E+01  0.1311047E+00 -0.9133019E-01
  0.1078190E+01  0.1094700E+02  0.0000000E+00  0.1816490E+00  0.2471464E+01  0.1423659E+00 -0.1128198E+00
 -0.4808250E-06  0.1100000E+02  0.0000000E+00  0.2021519E+00  0.2430194E+01  0.1531198E+00 -0.1319838E+00
 -0.1078190E+01  0.1094700E+02  0.0000000E+00  0.2201870E+00  0.2403505E+01  0.1628848E+00 -0.1481582E+00
 -0.2145990E+01  0.1078860E+02  0.0000000E+00  0.2356648E+00  0.2385375E+01  0.1714312E+00 -0.1617073E+00
 -0.3193130E+01  0.1052630E+02  0.0000000E+00  0.2485703E+00  0.2372626E+01  0.1786300E+00 -0.1728540E+00
 -0.4209520E+01  0.1016270E+02  0.0000000E+00  0.2584949E+00  0.2364214E+01  0.1842435E+00 -0.1813117E+00
 -0.5185370E+01  0.9701130E+01  0.0000000E+00  0.2646925E+00  0.2359967E+01  0.1878706E+00 -0.1864586E+00
 -0.6111270E+01  0.9146160E+01  0.0000000E+00  0.2675898E+00  0.2358170E+01  0.1895880E+00 -0.1888404E+00
 -0.6978330E+01  0.8503120E+01  0.0000000E+00  0.2674133E+00  0.2358089E+01  0.1894476E+00 -0.1887312E+00
 -0.7778170E+01  0.7778170E+01  0.0000000E+00  0.2639076E+00  0.2360227E+01  0.1873618E+00 -0.1858569E+00
 -0.8503120E+01  0.6978330E+01  0.0000000E+00  0.2565721E+00  0.2365961E+01  0.1831872E+00 -0.1796433E+00
 -0.9146170E+01  0.6111270E+01  0.0000000E+00  0.2461185E+00  0.2375083E+01  0.1772881E+00 -0.1707139E+00
 -0.9701130E+01  0.5185360E+01  0.0000000E+00  0.2329156E+00  0.2388162E+01  0.1698761E+00 -0.1593480E+00
 -0.1016270E+02  0.4209520E+01  0.0000000E+00  0.2169107E+00  0.2407535E+01  0.1610481E+00 -0.1453058E+00
 -0.1052630E+02  0.3193130E+01  0.0000000E+00  0.1980493E+00  0.2437699E+01  0.1509785E+00 -0.1281757E+00
 -0.1078860E+02  0.2145990E+01  0.0000000E+00  0.1773086E+00  0.2482304E+01  0.1401498E+00 -0.1086112E+00
 -0.1094700E+02  0.1078190E+01  0.0000000E+00  0.1554206E+00  0.2548138E+01  0.1288458E+00 -0.8691564E-01
 -0.1100000E+02 -0.9616510E-06  0.0000000E+00  0.1331275E+00  0.2648852E+01  0.1172906E+00 -0.6297493E-01
 -0.1094700E+02 -0.1078190E+01  0.0000000E+00  0.1120407E+00  0.2808084E+01  0.1058672E+00 -0.3667769E-01
 -0.1078860E+02 -0.2146000E+01  0.0000000E+00  0.9534861E-01  0.3050214E+01  0.9495081E-01 -0.8700692E-02
 -0.1052630E+02 -0.3193130E+01  0.0000000E+00  0.8722959E-01 -0.2902791E+01  0.8475421E-01  0.2063315E-01
 -0.1016270E+02 -0.4209520E+01  0.0000000E+00  0.9124911E-01 -0.2545327E+01  0.7550303E-01  0.5124151E-01
 -0.9701130E+01 -0.5185360E+01  0.0000000E+00  0.1069066E+00 -0.2254736E+01  0.6754910E-01  0.8286215E-01
 -0.9146160E+01 -0.6111270E+01  0.0000000E+00  0.1300772E+00 -0.2058713E+01  0.6097849E-01  0.1148987E+00
 -0.8503110E+01 -0.6978330E+01  0.0000000E+00  0.1573117E+00 -0.1933589E+01  0.5582777E-01  0.1470722E+00
 -0.7778170E+01 -0.7778180E+01  0.0000000E+00  0.1865790E+00 -0.1854270E+01  0.5218468E-01  0.1791326E+00
 -0.6978330E+01 -0.8503110E+01  0.0000000E+00  0.2164196E+00 -0.1804679E+01  0.5015651E-01  0.2105273E+00
 -0.6111270E+01 -0.9146170E+01  0.0000000E+00  0.2459529E+00 -0.1773544E+01  0.4952553E-01  0.2409151E+00
 -0.5185360E+01 -0.9701130E+01  0.0000000E+00  0.2747855E+00 -0.1754348E+01  0.5015471E-01  0.2701696E+00
 -0.4209510E+01 -0.1016270E+02  0.0000000E+00  0.3024659E+00 -0.1743420E+01  0.5195377E-01  0.2979705E+00
 -0.3193130E+01 -0.1052630E+02  0.0000000E+00  0.3282471E+00 -0.1738334E+01  0.5473671E-01  0.3236511E+00
 -0.2145990E+01 -0.1078860E+02  0.0000000E+00  0.3520744E+00 -0.1736745E+01  0.5815857E-01  0.3472376E+00
 -0.1078190E+01 -0.1094700E+02  0.0000000E+00  0.3739789E+00 -0.1737409E+01  0.6202156E-01  0.3688001E+00
  0.1311740E-06 -0.1100000E+02  0.0000000E+00  0.3936293E+00 -0.1739607E+01  0.6613373E-01  0.3880339E+00
  0.1078190E+01 -0.1094700E+02  0.0000000E+00  0.4103225E+00 -0.1742609E+01  0.7015239E-01  0.4042811E+00
  0.2145990E+01 -0.1078860E+02  0.0000000E+00  0.4243684E+00 -0.1745692E+01  0.7384223E-01  0.4178946E+00
  0.3193140E+01 -0.1052630E+02  0.0000000E+00  0.4359593E+00 -0.1748537E+01  0.7708039E-01  0.4290911E+00
  0.4209520E+01 -0.1016270E+02  0.0000000E+00  0.4447845E+00 -0.1750949E+01  0.7969650E-01  0.4375863E+00
  0.5185360E+01 -0.9701130E+01  0.0000000E+00  0.4501841E+00 -0.1752613E+01  0.8140076E-01  0.4427637E+00
  0.6111270E+01 -0.9146160E+01  0.0000000E+00  0.4526890E+00 -0.1753420E+01  0.8221273E-01  0.4451610E+00
  0.6978330E+01 -0.8503110E+01  0.0000000E+00  0.4525674E+00 -0.1753331E+01  0.8215126E-01  0.4450488E+00
  0.7778180E+01 -0.7778170E+01  0.0000000E+00  0.4495425E+00 -0.1752349E+01  0.8116782E-01  0.4421540E+00
  0.8503120E+01 -0.6978320E+01  0.0000000E+00  0.4430484E+00 -0.1750497E+01  0.7918811E-01  0.4359142E+00
  0.9146170E+01 -0.6111270E+01  0.0000000E+00  0.4337381E+00 -0.1748029E+01  0.7647052E-01  0.4269437E+00
  0.9701130E+01 -0.5185360E+01  0.0000000E+00  0.4219135E+00 -0.1745092E+01  0.7316579E-01  0.4155211E+00
  0.1016270E+02 -0.4209520E+01  0.0000000E+00  0.4073620E+00 -0.1741926E+01  0.6937213E-01  0.4014116E+00
  0.1052630E+02 -0.3193130E+01  0.0000000E+00  0.3897213E+00 -0.1739094E+01  0.6528014E-01  0.3842150E+00
  0.1078860E+02 -0.2145990E+01  0.0000000E+00  0.3696856E+00 -0.1737211E+01  0.6123751E-01  0.3645784E+00
  0.1094700E+02 -0.1078180E+01  0.0000000E+00  0.3475845E+00 -0.1736823E+01  0.5744346E-01  0.3428049E+00
  0.1100000E+02  0.0000000E+00 -0.2568960E-01  0.3229672E+00 -0.1738889E+01  0.5403297E-01  0.3184152E+00
  0.1094700E+02  0.1078190E+01 -0.2568960E-01  0.2965841E+00 -0.1745199E+01  0.5146327E-01  0.2920851E+00
  0.1078860E+02  0.2145990E+01 -0.2568960E-01  0.2687566E+00 -0.1757563E+01  0.4990339E-01  0.2640829E+00
  0.1052630E+02  0.3193130E+01 -0.2568960E-01  0.2398833E+00 -0.1778543E+01  0.4947715E-01  0.2347254E+00
  0.1016270E+02  0.4209520E+01 -0.2568960E-01  0.2102287E+00 -0.1812616E+01  0.5034346E-01  0.2041119E+00
  0.9701130E+01  0.5185360E+01 -0.2568960E-01  0.1803963E+00 -0.1867629E+01  0.5276462E-01  0.1725071E+00
  0.9146170E+01  0.6111270E+01 -0.2568960E-01  0.1515034E+00 -0.1954330E+01  0.5669251E-01  0.1404964E+00
  0.8503110E+01  0.6978330E+01 -0.2568960E-01  0.1248809E+00 -0.2091065E+01  0.6207995E-01  0.1083574E+00
  0.7778170E+01  0.7778170E+01 -0.2568960E-01  0.1028590E+00 -0.2305134E+01  0.6892541E-01  0.7634965E-01
  0.6978330E+01  0.8503110E+01 -0.2568960E-01  0.8938278E-01 -0.2613626E+01  0.7721180E-01  0.4502910E-01
  0.6111270E+01  0.9146170E+01 -0.2568960E-01  0.8786429E-01 -0.2973271E+01  0.8662254E-01  0.1471969E-01
  0.5185360E+01  0.9701130E+01 -0.2568960E-01  0.9802340E-01  0.2993656E+01  0.9695271E-01 -0.1444846E-01
  0.4209520E+01  0.1016270E+02 -0.2568960E-01  0.1159488E+00  0.2769498E+01  0.1080141E+00 -0.4215517E-01
  0.3193130E+01  0.1052630E+02 -0.2568960E-01  0.1373425E+00  0.2625907E+01  0.1194818E+00 -0.6772795E-01
  0.2145990E+01  0.1078860E+02 -0.2568960E-01  0.1595956E+00  0.2533225E+01  0.1309612E+00 -0.9121351E-01
  0.1078190E+01  0.1094700E+02 -0.2568960E-01  0.1814388E+00  0.2471560E+01  0.1422120E+00 -0.1126755E+00
 -0.4808250E-06  0.1100000E+02 -0.2568960E-01  0.2019168E+00  0.2430288E+01  0.1529541E+00 -0.1318159E+00
 -0.1078190E+01  0.1094700E+02 -0.2568960E-01  0.2199279E+00  0.2403605E+01  0.1627079E+00 -0.1479677E+00
 -0.2145990E+01  0.1078860E+02 -0.2568960E-01  0.2353925E+00  0.2385467E+01  0.1712480E+00 -0.1615046E+00
 -0.3193130E+01  0.1052630E+02 -0.2568960E-01  0.2482800E+00  0.2372726E+01  0.1784387E+00 -0.1726344E+00
 -0.4209520E+01  0.1016270E+02 -0.2568960E-01  0.2581942E+00  0.2364311E+01  0.1840466E+00 -0.1810831E+00
 -0.5185370E+01  0.9701130E+01 -0.2568960E-01  0.2643819E+00  0.2360068E+01  0.1876690E+00 -0.1862207E+00
 -0.6111270E+01  0.9146160E+01 -0.2568960E-01  0.2672801E+00  0.2358266E+01  0.1893868E+00 -0.1886036E+00
 -0.6978330E+01  0.8503120E+01 -0.2568960E-01  0.2671001E+00  0.2358190E+01  0.1892447E+00 -0.1884911E+00
 -0.7778170E+01  0.7778170E+01 -0.2568960E-01  0.2636008E+00  0.2360325E+01  0.1871623E+00 -0.1856224E+00
 -0.8503120E+01  0.6978330E+01 -0.2568960E-01  0.2562727E+00  0.2366064E+01  0.1829918E+00 -0.1794149E+00
 -0.9146170E+01  0.6111270E+01 -0.2568960E-01  0.2458339E+00  0.2375178E+01  0.1770992E+00 -0.1704998E+00
 -0.9701130E+01  0.5185360E+01 -0.2568960E-01  0.2326420E+00  0.2388263E+01  0.1696926E+00 -0.1591438E+00
 -0.1016270E+02  0.4209520E+01 -0.2568960E-01  0.2166581E+00  0.2407628E+01  0.1608739E+00 -0.1451217E+00
 -0.1052630E+02  0.3193130E+01 -0.2568960E-01  0.1978193E+00  0.2437796E+01  0.1508156E+00 -0.1280123E+00
 -0.1078860E+02  0.2145990E+01 -0.2568960E-01  0.1771037E+00  0.2482391E+01  0.1399973E+00 -0.1084735E+00
 -0.1094700E+02  0.1078190E+01 -0.2568960E-01  0.1552376E+00  0.2548240E+01  0.1287030E+00 -0.8680020E-01
 -0.1100000E+02 -0.9616510E-06 -0.2568960E-01  0.1329735E+00  0.2648942E+01  0.1171606E+00 -0.6289161E-01
 -0.1094700E+02 -0.1078190E+01 -0.2568960E-01  0.1119135E+00  0.2808173E+01  0.1057503E+00 -0.3662665E-01
 -0.1078860E+02 -0.2146000E+01 -0.2568960E-01  0.9524017E-01  0.3050293E+01  0.9484350E-01 -0.8683351E-02
 -0.1052630E+02 -0.3193130E+01 -0.2568960E-01  0.8713181E-01 -0.2902682E+01  0.8465695E-01  0.2061925E-01
 -0.1016270E+02 -0.4209520E+01 -0.2568960E-01  0.9114715E-01 -0.2545274E+01  0.7541596E-01  0.5118824E-01
 -0.9701130E+01 -0.5185360E+01 -0.2568960E-01  0.1067858E+00 -0.2254724E+01  0.6747173E-01  0.8276938E-01
 -0.9146160E+01 -0.6111270E+01 -0.2568960E-01  0.1299297E+00 -0.2058692E+01  0.6090684E-01  0.1147697E+00
 -0.8503110E+01 -0.6978330E+01 -0.2568960E-01  0.1571346E+00 -0.1933575E+01  0.5576288E-01  0.1469074E+00
 -0.7778170E+01 -0.7778180E+01 -0.2568960E-01  0.1863651E+00 -0.1854265E+01  0.5212402E-01  0.1789275E+00
 -0.6978330E+01 -0.8503110E+01 -0.2568960E-01  0.2161680E+00 -0.1804683E+01  0.5009919E-01  0.2102823E+00
 -0.6111270E+01 -0.9146170E+01 -0.2568960E-01  0.2456695E+00 -0.1773549E+01  0.4946966E-01  0.2406372E+00
 -0.5185360E+01 -0.9701130E+01 -0.2568960E-01  0.2744684E+00 -0.1754363E+01  0.5010068E-01  0.2698570E+00
 -0.4209510E+01 -0.1016270E+02 -0.2568960E-01  0.3021145E+00 -0.1743435E+01  0.5189781E-01  0.2976235E+00
 -0.3193130E+01 -0.1052630E+02 -0.2568960E-01  0.3278615E+00 -0.1738353E+01  0.5467858E-01  0.3232699E+00
 -0.2145990E+01 -0.1078860E+02 -0.2568960E-01  0.3516648E+00 -0.1736769E+01  0.5809908E-01  0.3468323E+00
 -0.1078190E+01 -0.1094700E+02 -0.2568960E-01  0.3735415E+00 -0.1737439E+01  0.6196018E-01  0.3683670E+00
  0.1311740E-06 -0.1100000E+02 -0.2568960E-01  0.3931685E+00 -0.1739638E+01  0.6606822E-01  0.3875777E+00
  0.1078190E+01 -0.1094700E+02 -0.2568960E-01  0.4098387E+00 -0.1742641E+01  0.7008259E-01  0.4038022E+00
  0.2145990E+01 -0.1078860E+02 -0.2568960E-01  0.4238719E+00 -0.1745729E+01  0.7377129E-01  0.4174029E+00
  0.3193140E+01 -0.1052630E+02 -0.2568960E-01  0.4354458E+00 -0.1748577E+01  0.7700669E-01  0.4285825E+00
  0.4209520E+01 -0.1016270E+02 -0.2568960E-01  0.4442616E+00 -0.1750989E+01  0.7962029E-01  0.4370686E+00
  0.5185360E+01 -0.9701130E+01 -0.2568960E-01  0.4496523E+00 -0.1752654E+01  0.8132265E-01  0.4422373E+00
  0.6111270E+01 -0.9146160E+01 -0.2568960E-01  0.4521581E+00 -0.1753461E+01  0.8213498E-01  0.4446355E+00
  0.6978330E+01 -0.8503110E+01 -0.2568960E-01  0.4520327E+00 -0.1753373E+01  0.8207271E-01  0.4445195E+00
  0.7778180E+01 -0.7778170E+01 -0.2568960E-01  0.4490136E+00 -0.1752390E+01  0.8109073E-01  0.4416305E+00
  0.8503120E+01 -0.6978320E+01 -0.2568960E-01  0.4425261E+00 -0.1750537E+01  0.7911234E-01  0.4353970E+00
  0.9146170E+01 -0.6111270E+01 -0.2568960E-01  0.4332302E+00 -0.1748067E+01  0.7639760E-01  0.4264408E+00
  0.9701130E+01 -0.5185360E+01 -0.2568960E-01  0.4214158E+00 -0.1745127E+01  0.7309401E-01  0.4150283E+00
  0.1016270E+02 -0.4209520E+01 -0.2568960E-01  0.4068845E+00 -0.1741960E+01  0.6930415E-01  0.4009388E+00
  0.1052630E+02 -0.3193130E+01 -0.2568960E-01  0.3892648E+00 -0.1739127E+01  0.6521608E-01  0.3837629E+00
  0.1078860E+02 -0.2145990E+01 -0.2568960E-01  0.3692553E+00 -0.1737237E+01  0.6117575E-01  0.3641525E+00
  0.1094700E+02 -0.1078180E+01 -0.2568960E-01  0.3471763E+00 -0.1736844E+01  0.5738340E-01  0.3424011E+00
  0.1100000E+02  0.0000000E+00 -0.1027320E+00  0.3219302E+00 -0.1738851E+01  0.5384751E-01  0.3173949E+00
  0.1094700E+02  0.1078190E+01 -0.1027320E+00  0.2956373E+00 -0.1745150E+01  0.5128462E-01  0.2911551E+00
  0.1078860E+02  0.2145990E+01 -0.1027320E+00  0.2678966E+00 -0.1757474E+01  0.4972040E-01  0.2632422E+00
  0.1052630E+02  0.3193130E+01 -0.1027320E+00  0.2390958E+00 -0.1778454E+01  0.4929392E-01  0.2339592E+00
  0.1016270E+02  0.4209520E+01 -0.1027320E+00  0.2095372E+00 -0.1812511E+01  0.5015654E-01  0.2034457E+00
  0.9701130E+01  0.5185360E+01 -0.1027320E+00  0.1798035E+00 -0.1867500E+01  0.5256903E-01  0.1719471E+00
  0.9146170E+01  0.6111270E+01 -0.1027320E+00  0.1509887E+00 -0.1954177E+01  0.5647850E-01  0.1400278E+00
  0.8503110E+01  0.6978330E+01 -0.1027320E+00  0.1244403E+00 -0.2091000E+01  0.6185393E-01  0.1079791E+00
  0.7778170E+01  0.7778170E+01 -0.1027320E+00  0.1024908E+00 -0.2305108E+01  0.6867667E-01  0.7607812E-01
  0.6978330E+01  0.8503110E+01 -0.1027320E+00  0.8905949E-01 -0.2613700E+01  0.7693585E-01  0.4486055E-01
  0.6111270E+01  0.9146170E+01 -0.1027320E+00  0.8754943E-01 -0.2973708E+01  0.8631852E-01  0.1462925E-01
  0.5185360E+01  0.9701130E+01 -0.1027320E+00  0.9769823E-01  0.2993166E+01  0.9662404E-01 -0.1444784E-01
  0.4209520E+01  0.1016270E+02 -0.1027320E+00  0.1155746E+00  0.2769119E+01  0.1076496E+00 -0.4205995E-01
  0.3193130E+01  0.1052630E+02 -0.1027320E+00  0.1369060E+00  0.2625591E+01  0.1190807E+00 -0.6755029E-01
  0.2145990E+01  0.1078860E+02 -0.1027320E+00  0.1591119E+00  0.2532871E+01  0.1305322E+00 -0.9098317E-01
  0.1078190E+01  0.1094700E+02 -0.1027320E+00  0.1808881E+00  0.2471319E+01  0.1417533E+00 -0.1123678E+00
 -0.4808250E-06  0.1100000E+02 -0.1027320E+00  0.2012977E+00  0.2430096E+01  0.1524600E+00 -0.1314409E+00
 -0.1078190E+01  0.1094700E+02 -0.1027320E+00  0.2192547E+00  0.2403429E+01  0.1621839E+00 -0.1475433E+00
 -0.2145990E+01  0.1078860E+02 -0.1027320E+00  0.2346943E+00  0.2385268E+01  0.1707080E+00 -0.1610596E+00
 -0.3193130E+01  0.1052630E+02 -0.1027320E+00  0.2475298E+00  0.2372588E+01  0.1778757E+00 -0.1721373E+00
 -0.4209520E+01  0.1016270E+02 -0.1027320E+00  0.2574071E+00  0.2364193E+01  0.1834643E+00 -0.1805526E+00
 -0.5185370E+01  0.9701130E+01 -0.1027320E+00  0.2635793E+00  0.2359945E+01  0.1870764E+00 -0.1856784E+00
 -0.6111270E+01  0.9146160E+01 -0.1027320E+00  0.2664895E+00  0.2358112E+01  0.1887975E+00 -0.1880749E+00
 -0.6978330E+01  0.8503120E+01 -0.1027320E+00  0.2662898E+00  0.2358071E+01  0.1886483E+00 -0.1879417E+00
 -0.7778170E+01  0.7778170E+01 -0.1027320E+00  0.2627975E+00  0.2360216E+01  0.1865717E+00 -0.1850771E+00
 -0.8503120E+01  0.6978330E+01 -0.1027320E+00  0.2554978E+00  0.2365933E+01  0.1824151E+00 -0.1788962E+00
 -0.9146170E+01  0.6111270E+01 -0.1027320E+00  0.2451054E+00  0.2374993E+01  0.1765428E+00 -0.1700273E+00
 -0.9701130E+01  0.5185360E+01 -0.1027320E+00  0.2319312E+00  0.2388103E+01  0.1691487E+00 -0.1586846E+00
 -0.1016270E+02  0.4209520E+01 -0.1027320E+00  0.2159956E+00  0.2407461E+01  0.1603579E+00 -0.1447046E+00
 -0.1052630E+02  0.3193130E+01 -0.1027320E+00  0.1972210E+00  0.2437583E+01  0.1503323E+00 -0.1276570E+00
 -0.1078860E+02  0.2145990E+01 -0.1027320E+00  0.1765720E+00  0.2482083E+01  0.1395436E+00 -0.1081908E+00
 -0.1094700E+02  0.1078190E+01 -0.1027320E+00  0.1547508E+00  0.2547961E+01  0.1282752E+00 -0.8656377E-01
 -0.1100000E+02 -0.9616510E-06 -0.1027320E+00  0.1325535E+00  0.2648611E+01  0.1167698E+00 -0.6273151E-01
 -0.1094700E+02 -0.1078190E+01 -0.1027320E+00  0.1115561E+00  0.2807723E+01  0.1053962E+00 -0.3655709E-01
 -0.1078860E+02 -0.2146000E+01 -0.1027320E+00  0.9491549E-01  0.3049768E+01  0.9451562E-01 -0.8703290E-02
 -0.1052630E+02 -0.3193130E+01 -0.1027320E+00  0.8681997E-01 -0.2902917E+01  0.8435879E-01  0.2052563E-01
 -0.1016270E+02 -0.4209520E+01 -0.1027320E+00  0.9081642E-01 -0.2545382E+01  0.7514781E-01  0.5099441E-01
 -0.9701130E+01 -0.5185360E+01 -0.1027320E+00  0.1064004E+00 -0.2254738E+01  0.6722939E-01  0.8246969E-01
 -0.9146160E+01 -0.6111270E+01 -0.1027320E+00  0.1294775E+00 -0.2058559E+01  0.6067972E-01  0.1143783E+00
 -0.8503110E+01 -0.6978330E+01 -0.1027320E+00  0.1566114E+00 -0.1933433E+01  0.5555639E-01  0.1464262E+00
 -0.7778170E+01 -0.7778180E+01 -0.1027320E+00  0.1857462E+00 -0.1854149E+01  0.5193021E-01  0.1783393E+00
 -0.6978330E+01 -0.8503110E+01 -0.1027320E+00  0.2154521E+00 -0.1804583E+01  0.4991229E-01  0.2095910E+00
 -0.6111270E+01 -0.9146170E+01 -0.1027320E+00  0.2448782E+00 -0.1773445E+01  0.4928531E-01  0.2398673E+00
 -0.5185360E+01 -0.9701130E+01 -0.1027320E+00  0.2735894E+00 -0.1754300E+01  0.4992345E-01  0.2689959E+00
 -0.4209510E+01 -0.1016270E+02 -0.1027320E+00  0.3011417E+00 -0.1743386E+01  0.5171626E-01  0.2966678E+00
 -0.3193130E+01 -0.1052630E+02 -0.1027320E+00  0.3268065E+00 -0.1738309E+01  0.5448868E-01  0.3222320E+00
 -0.2145990E+01 -0.1078860E+02 -0.1027320E+00  0.3505563E+00 -0.1736736E+01  0.5790461E-01  0.3457409E+00
 -0.1078190E+01 -0.1094700E+02 -0.1027320E+00  0.3723564E+00 -0.1737434E+01  0.6176171E-01  0.3671986E+00
  0.1311740E-06 -0.1100000E+02 -0.1027320E+00  0.3919141E+00 -0.1739638E+01  0.6585734E-01  0.3863412E+00
  0.1078190E+01 -0.1094700E+02 -0.1027320E+00  0.4085330E+00 -0.1742642E+01  0.6985953E-01  0.4025157E+00
  0.2145990E+01 -0.1078860E+02 -0.1027320E+00  0.4225454E+00 -0.1745740E+01  0.7354533E-01  0.4160958E+00
  0.3193140E+01 -0.1052630E+02 -0.1027320E+00  0.4340668E+00 -0.1748599E+01  0.7677234E-01  0.4272236E+00
  0.4209520E+01 -0.1016270E+02 -0.1027320E+00  0.4428479E+00 -0.1751014E+01  0.7937784E-01  0.4356759E+00
  0.5185360E+01 -0.9701130E+01 -0.1027320E+00  0.4482266E+00 -0.1752678E+01  0.8107530E-01  0.4408331E+00
  0.6111270E+01 -0.9146160E+01 -0.1027320E+00  0.4507457E+00 -0.1753490E+01  0.8189094E-01  0.4432444E+00
  0.6978330E+01 -0.8503110E+01 -0.1027320E+00  0.4505997E+00 -0.1753399E+01  0.8182419E-01  0.4431082E+00
  0.7778180E+01 -0.7778170E+01 -0.1027320E+00  0.4475851E+00 -0.1752418E+01  0.8084482E-01  0.4402233E+00
  0.8503120E+01 -0.6978320E+01 -0.1027320E+00  0.4411248E+00 -0.1750562E+01  0.7887284E-01  0.4340163E+00
  0.9146170E+01 -0.6111270E+01 -0.1027320E+00  0.4318757E+00 -0.1748084E+01  0.7616580E-01  0.4251063E+00
