 VARIABLES="X" "Y" "Z" "abs(eta) (m)" "angle(phi) (rad)" "PRE1" "PRE2"
ZONE N=   3200 ,E =    3136 ,F=FEPOINT,ET=QUADRILATERAL
  0.1100000E+02  0.0000000E+00  0.0000000E+00  0.2805413E+00 -0.1751485E+01  0.5041517E-01  0.2759742E+00
  0.1094700E+02  0.1078190E+01  0.0000000E+00  0.3076739E+00 -0.1742189E+01  0.5247524E-01  0.3031659E+00
  0.1078860E+02  0.2145990E+01  0.0000000E+00  0.3330717E+00 -0.1737795E+01  0.5536453E-01  0.3284380E+00
  0.1052630E+02  0.3193130E+01  0.0000000E+00  0.3567181E+00 -0.1736633E+01  0.5888609E-01  0.3518241E+00
  0.1016270E+02  0.4209520E+01  0.0000000E+00  0.3782687E+00 -0.1737741E+01  0.6285687E-01  0.3730097E+00
  0.9701130E+01  0.5185360E+01  0.0000000E+00  0.3970186E+00 -0.1740239E+01  0.6695057E-01  0.3913328E+00
  0.9146170E+01  0.6111270E+01  0.0000000E+00  0.4132172E+00 -0.1743215E+01  0.7089396E-01  0.4070903E+00
  0.8503110E+01  0.6978330E+01  0.0000000E+00  0.4270333E+00 -0.1746248E+01  0.7453994E-01  0.4204774E+00
  0.7778170E+01  0.7778170E+01  0.0000000E+00  0.4381541E+00 -0.1749088E+01  0.7770591E-01  0.4312086E+00
  0.6978330E+01  0.8503110E+01  0.0000000E+00  0.4459039E+00 -0.1751351E+01  0.8007346E-01  0.4386554E+00
  0.6111270E+01  0.9146170E+01  0.0000000E+00  0.4507810E+00 -0.1752838E+01  0.8160827E-01  0.4433324E+00
  0.5185360E+01  0.9701130E+01  0.0000000E+00  0.4530427E+00 -0.1753471E+01  0.8230011E-01  0.4455047E+00
  0.4209520E+01  0.1016270E+02  0.0000000E+00  0.4524037E+00 -0.1753215E+01  0.8206999E-01  0.4448974E+00
  0.3193130E+01  0.1052630E+02  0.0000000E+00  0.4482749E+00 -0.1752020E+01  0.8079423E-01  0.4409339E+00
  0.2145990E+01  0.1078860E+02  0.0000000E+00  0.4412864E+00 -0.1750072E+01  0.7868899E-01  0.4342139E+00
  0.1078190E+01  0.1094700E+02  0.0000000E+00  0.4317372E+00 -0.1747481E+01  0.7588511E-01  0.4250159E+00
 -0.4808250E-06  0.1100000E+02  0.0000000E+00  0.4193992E+00 -0.1744421E+01  0.7245252E-01  0.4130936E+00
 -0.1078190E+01  0.1094700E+02  0.0000000E+00  0.4038586E+00 -0.1741316E+01  0.6853262E-01  0.3980013E+00
 -0.2145990E+01  0.1078860E+02  0.0000000E+00  0.3858069E+00 -0.1738695E+01  0.6447243E-01  0.3803817E+00
 -0.3193130E+01  0.1052630E+02  0.0000000E+00  0.3655643E+00 -0.1736972E+01  0.6046888E-01  0.3605285E+00
 -0.4209520E+01  0.1016270E+02  0.0000000E+00  0.3430202E+00 -0.1736868E+01  0.5670452E-01  0.3383008E+00
 -0.5185370E+01  0.9701130E+01  0.0000000E+00  0.3180645E+00 -0.1739825E+01  0.5350625E-01  0.3135316E+00
 -0.6111270E+01  0.9146160E+01  0.0000000E+00  0.2914145E+00 -0.1747219E+01  0.5114572E-01  0.2868912E+00
 -0.6978330E+01  0.8503120E+01  0.0000000E+00  0.2634439E+00 -0.1760854E+01  0.4976868E-01  0.2587001E+00
 -0.7778170E+01  0.7778170E+01  0.0000000E+00  0.2343051E+00 -0.1783896E+01  0.4955338E-01  0.2290051E+00
 -0.8503120E+01  0.6978330E+01  0.0000000E+00  0.2044180E+00 -0.1821921E+01  0.5079662E-01  0.1980061E+00
 -0.9146170E+01  0.6111270E+01  0.0000000E+00  0.1747203E+00 -0.1882089E+01  0.5351500E-01  0.1663230E+00
 -0.9701130E+01  0.5185360E+01  0.0000000E+00  0.1461184E+00 -0.1976695E+01  0.5769398E-01  0.1342460E+00
 -0.1016270E+02  0.4209520E+01  0.0000000E+00  0.1200888E+00 -0.2126720E+01  0.6337428E-01  0.1020050E+00
 -0.1052630E+02  0.3193130E+01  0.0000000E+00  0.9950319E-01 -0.2359647E+01  0.7060185E-01  0.7011607E-01
 -0.1078860E+02  0.2145990E+01  0.0000000E+00  0.8818386E-01 -0.2683801E+01  0.7910364E-01  0.3897446E-01
 -0.1094700E+02  0.1078190E+01  0.0000000E+00  0.8912644E-01 -0.3043362E+01  0.8869679E-01  0.8740849E-02
 -0.1100000E+02 -0.9616510E-06  0.0000000E+00  0.1012795E+00  0.2940101E+01  0.9923050E-01 -0.2026918E-01
 -0.1094700E+02 -0.1078190E+01  0.0000000E+00  0.1201701E+00  0.2736202E+01  0.1104301E+00 -0.4739238E-01
 -0.1078860E+02 -0.2146000E+01  0.0000000E+00  0.1418727E+00  0.2604475E+01  0.1218952E+00 -0.7259082E-01
 -0.1052630E+02 -0.3193130E+01  0.0000000E+00  0.1642811E+00  0.2518211E+01  0.1333814E+00 -0.9590465E-01
 -0.1016270E+02 -0.4209520E+01  0.0000000E+00  0.1860305E+00  0.2461289E+01  0.1446168E+00 -0.1170185E+00
 -0.9701130E+01 -0.5185360E+01  0.0000000E+00  0.2058234E+00  0.2424508E+01  0.1551343E+00 -0.1352651E+00
 -0.9146160E+01 -0.6111270E+01  0.0000000E+00  0.2233773E+00  0.2399578E+01  0.1646533E+00 -0.1509527E+00
 -0.8503110E+01 -0.6978330E+01  0.0000000E+00  0.2385839E+00  0.2382079E+01  0.1730141E+00 -0.1642814E+00
 -0.7778170E+01 -0.7778180E+01  0.0000000E+00  0.2509975E+00  0.2370268E+01  0.1799622E+00 -0.1749668E+00
 -0.6978330E+01 -0.8503110E+01  0.0000000E+00  0.2598202E+00  0.2363512E+01  0.1850600E+00 -0.1823713E+00
 -0.6111270E+01 -0.9146170E+01  0.0000000E+00  0.2654094E+00  0.2359661E+01  0.1883222E+00 -0.1870211E+00
 -0.5185360E+01 -0.9701130E+01  0.0000000E+00  0.2679569E+00  0.2357714E+01  0.1897618E+00 -0.1891859E+00
 -0.4209510E+01 -0.1016270E+02  0.0000000E+00  0.2671753E+00  0.2357967E+01  0.1892561E+00 -0.1885862E+00
 -0.3193130E+01 -0.1052630E+02  0.0000000E+00  0.2625107E+00  0.2361485E+01  0.1866026E+00 -0.1846384E+00
 -0.2145990E+01 -0.1078860E+02  0.0000000E+00  0.2546195E+00  0.2367762E+01  0.1821138E+00 -0.1779485E+00
 -0.1078190E+01 -0.1094700E+02  0.0000000E+00  0.2438463E+00  0.2377012E+01  0.1759772E+00 -0.1687988E+00
  0.1311740E-06 -0.1100000E+02  0.0000000E+00  0.2300831E+00  0.2390980E+01  0.1682530E+00 -0.1569367E+00
  0.1078190E+01 -0.1094700E+02  0.0000000E+00  0.2131578E+00  0.2413120E+01  0.1590566E+00 -0.1419058E+00
  0.2145990E+01 -0.1078860E+02  0.0000000E+00  0.1939708E+00  0.2445661E+01  0.1488642E+00 -0.1243549E+00
  0.3193140E+01 -0.1052630E+02  0.0000000E+00  0.1731126E+00  0.2492949E+01  0.1379541E+00 -0.1045784E+00
  0.4209520E+01 -0.1016270E+02  0.0000000E+00  0.1510165E+00  0.2564202E+01  0.1265352E+00 -0.8243082E-01
  0.5185360E+01 -0.9701130E+01  0.0000000E+00  0.1286450E+00  0.2676217E+01  0.1149640E+00 -0.5773048E-01
  0.6111270E+01 -0.9146160E+01  0.0000000E+00  0.1082366E+00  0.2849622E+01  0.1036558E+00 -0.3115486E-01
  0.6978330E+01 -0.8503110E+01  0.0000000E+00  0.9289840E-01  0.3109012E+01  0.9284910E-01 -0.3026113E-02
  0.7778180E+01 -0.7778170E+01  0.0000000E+00  0.8695389E-01 -0.2830521E+01  0.8278063E-01  0.2661477E-01
  0.8503120E+01 -0.6978320E+01  0.0000000E+00  0.9362765E-01 -0.2479227E+01  0.7382911E-01  0.5757950E-01
  0.9146170E+01 -0.6111270E+01  0.0000000E+00  0.1110822E+00 -0.2208650E+01  0.6614644E-01  0.8924075E-01
  0.9701130E+01 -0.5185360E+01  0.0000000E+00  0.1352473E+00 -0.2028863E+01  0.5980840E-01  0.1213046E+00
  0.1016270E+02 -0.4209520E+01  0.0000000E+00  0.1630785E+00 -0.1914397E+01  0.5493778E-01  0.1535462E+00
  0.1052630E+02 -0.3193130E+01  0.0000000E+00  0.1925297E+00 -0.1842670E+01  0.5170130E-01  0.1854580E+00
  0.1078860E+02 -0.2145990E+01  0.0000000E+00  0.2223152E+00 -0.1797332E+01  0.4993274E-01  0.2166352E+00
  0.1094700E+02 -0.1078180E+01  0.0000000E+00  0.2518295E+00 -0.1768741E+01  0.4952345E-01  0.2469120E+00
  0.1100000E+02  0.0000000E+00 -0.2568960E-01  0.2802160E+00 -0.1751496E+01  0.5035981E-01  0.2756536E+00
  0.1094700E+02  0.1078190E+01 -0.2568960E-01  0.3073133E+00 -0.1742205E+01  0.5241854E-01  0.3028097E+00
  0.1078860E+02  0.2145990E+01 -0.2568960E-01  0.3326850E+00 -0.1737815E+01  0.5530658E-01  0.3280556E+00
  0.1052630E+02  0.3193130E+01 -0.2568960E-01  0.3563019E+00 -0.1736660E+01  0.5882693E-01  0.3514121E+00
  0.1016270E+02  0.4209520E+01 -0.2568960E-01  0.3778263E+00 -0.1737769E+01  0.6279377E-01  0.3725717E+00
  0.9701130E+01  0.5185360E+01 -0.2568960E-01  0.3965510E+00 -0.1740269E+01  0.6688344E-01  0.3908699E+00
  0.9146170E+01  0.6111270E+01 -0.2568960E-01  0.4127339E+00 -0.1743250E+01  0.7082516E-01  0.4066117E+00
  0.8503110E+01  0.6978330E+01 -0.2568960E-01  0.4265307E+00 -0.1746287E+01  0.7446841E-01  0.4199797E+00
  0.7778170E+01  0.7778170E+01 -0.2568960E-01  0.4376402E+00 -0.1749127E+01  0.7763153E-01  0.4306997E+00
  0.6978330E+01  0.8503110E+01 -0.2568960E-01  0.4453767E+00 -0.1751391E+01  0.7999612E-01  0.4381336E+00
  0.6111270E+01  0.9146170E+01 -0.2568960E-01  0.4502522E+00 -0.1752880E+01  0.8153109E-01  0.4428089E+00
  0.5185360E+01  0.9701130E+01 -0.2568960E-01  0.4525080E+00 -0.1753513E+01  0.8222142E-01  0.4449754E+00
  0.4209520E+01  0.1016270E+02 -0.2568960E-01  0.4518714E+00 -0.1753257E+01  0.8199208E-01  0.4443704E+00
  0.3193130E+01  0.1052630E+02 -0.2568960E-01  0.4477462E+00 -0.1752061E+01  0.8071698E-01  0.4404105E+00
  0.2145990E+01  0.1078860E+02 -0.2568960E-01  0.4407693E+00 -0.1750113E+01  0.7861422E-01  0.4337019E+00
  0.1078190E+01  0.1094700E+02 -0.2568960E-01  0.4312279E+00 -0.1747517E+01  0.7581090E-01  0.4245118E+00
 -0.4808250E-06  0.1100000E+02 -0.2568960E-01  0.4189074E+00 -0.1744456E+01  0.7238220E-01  0.4126067E+00
 -0.1078190E+01  0.1094700E+02 -0.2568960E-01  0.4033855E+00 -0.1741351E+01  0.6846617E-01  0.3975327E+00
 -0.2145990E+01  0.1078860E+02 -0.2568960E-01  0.3853568E+00 -0.1738724E+01  0.6440822E-01  0.3799361E+00
 -0.3193130E+01  0.1052630E+02 -0.2568960E-01  0.3651340E+00 -0.1736997E+01  0.6040666E-01  0.3601026E+00
 -0.4209520E+01  0.1016270E+02 -0.2568960E-01  0.3426210E+00 -0.1736890E+01  0.5664577E-01  0.3379059E+00
 -0.5185370E+01  0.9701130E+01 -0.2568960E-01  0.3176951E+00 -0.1739846E+01  0.5345079E-01  0.3131664E+00
 -0.6111270E+01  0.9146160E+01 -0.2568960E-01  0.2910774E+00 -0.1747231E+01  0.5109020E-01  0.2865586E+00
 -0.6978330E+01  0.8503120E+01 -0.2568960E-01  0.2631360E+00 -0.1760865E+01  0.4971324E-01  0.2583973E+00
 -0.7778170E+01  0.7778170E+01 -0.2568960E-01  0.2340350E+00 -0.1783901E+01  0.4949727E-01  0.2287409E+00
 -0.8503120E+01  0.6978330E+01 -0.2568960E-01  0.2041849E+00 -0.1821923E+01  0.5073911E-01  0.1977802E+00
 -0.9146170E+01  0.6111270E+01 -0.2568960E-01  0.1745206E+00 -0.1882080E+01  0.5345234E-01  0.1661334E+00
 -0.9701130E+01  0.5185360E+01 -0.2568960E-01  0.1459507E+00 -0.1976692E+01  0.5762737E-01  0.1340921E+00
 -0.1016270E+02  0.4209520E+01 -0.2568960E-01  0.1199534E+00 -0.2126697E+01  0.6330039E-01  0.1018915E+00
 -0.1052630E+02  0.3193130E+01 -0.2568960E-01  0.9939405E-01 -0.2359589E+01  0.7052039E-01  0.7004322E-01
 -0.1078860E+02  0.2145990E+01 -0.2568960E-01  0.8808499E-01 -0.2683743E+01  0.7901270E-01  0.3893532E-01
 -0.1094700E+02  0.1078190E+01 -0.2568960E-01  0.8902710E-01 -0.3043297E+01  0.8859735E-01  0.8736904E-02
 -0.1100000E+02 -0.9616510E-06 -0.2568960E-01  0.1011637E+00  0.2940191E+01  0.9911886E-01 -0.2023709E-01
 -0.1094700E+02 -0.1078190E+01 -0.2568960E-01  0.1200297E+00  0.2736316E+01  0.1103064E+00 -0.4732448E-01
 -0.1078860E+02 -0.2146000E+01 -0.2568960E-01  0.1417088E+00  0.2604559E+01  0.1217605E+00 -0.7249679E-01
 -0.1052630E+02 -0.3193130E+01 -0.2568960E-01  0.1640912E+00  0.2518307E+01  0.1332363E+00 -0.9578101E-01
 -0.1016270E+02 -0.4209520E+01 -0.2568960E-01  0.1858143E+00  0.2461382E+01  0.1444596E+00 -0.1168691E+00
 -0.9701130E+01 -0.5185360E+01 -0.2568960E-01  0.2055814E+00  0.2424607E+01  0.1549652E+00 -0.1350906E+00
 -0.9146160E+01 -0.6111270E+01 -0.2568960E-01  0.2231191E+00  0.2399668E+01  0.1644767E+00 -0.1507633E+00
 -0.8503110E+01 -0.6978330E+01 -0.2568960E-01  0.2383059E+00  0.2382179E+01  0.1728289E+00 -0.1640727E+00
 -0.7778170E+01 -0.7778180E+01 -0.2568960E-01  0.2507055E+00  0.2370365E+01  0.1797698E+00 -0.1747458E+00
 -0.6978330E+01 -0.8503110E+01 -0.2568960E-01  0.2595154E+00  0.2363614E+01  0.1848615E+00 -0.1821386E+00
 -0.6111270E+01 -0.9146170E+01 -0.2568960E-01  0.2651026E+00  0.2359756E+01  0.1881223E+00 -0.1867870E+00
 -0.5185360E+01 -0.9701130E+01 -0.2568960E-01  0.2676434E+00  0.2357816E+01  0.1895591E+00 -0.1889452E+00
 -0.4209510E+01 -0.1016270E+02 -0.2568960E-01  0.2668646E+00  0.2358067E+01  0.1890548E+00 -0.1883481E+00
 -0.3193130E+01 -0.1052630E+02 -0.2568960E-01  0.2622038E+00  0.2361587E+01  0.1864031E+00 -0.1844036E+00
 -0.2145990E+01 -0.1078860E+02 -0.2568960E-01  0.2543251E+00  0.2367856E+01  0.1819199E+00 -0.1777256E+00
 -0.1078190E+01 -0.1094700E+02 -0.2568960E-01  0.2435601E+00  0.2377111E+01  0.1757874E+00 -0.1685832E+00
  0.1311740E-06 -0.1100000E+02 -0.2568960E-01  0.2298154E+00  0.2391075E+01  0.1680722E+00 -0.1567381E+00
  0.1078190E+01 -0.1094700E+02 -0.2568960E-01  0.2129098E+00  0.2413217E+01  0.1588854E+00 -0.1417252E+00
  0.2145990E+01 -0.1078860E+02 -0.2568960E-01  0.1937468E+00  0.2445749E+01  0.1487032E+00 -0.1241981E+00
  0.3193140E+01 -0.1052630E+02 -0.2568960E-01  0.1729087E+00  0.2493049E+01  0.1378021E+00 -0.1044414E+00
  0.4209520E+01 -0.1016270E+02 -0.2568960E-01  0.1508414E+00  0.2564292E+01  0.1263959E+00 -0.8232379E-01
  0.5185360E+01 -0.9701130E+01 -0.2568960E-01  0.1284976E+00  0.2676311E+01  0.1148377E+00 -0.5765364E-01
  0.6111270E+01 -0.9146160E+01 -0.2568960E-01  0.1081127E+00  0.2849705E+01  0.1035398E+00 -0.3111053E-01
  0.6978330E+01 -0.8503110E+01 -0.2568960E-01  0.9279235E-01  0.3109131E+01  0.9274347E-01 -0.3011688E-02
  0.7778180E+01 -0.7778170E+01 -0.2568960E-01  0.8685642E-01 -0.2830450E+01  0.8268595E-01  0.2659081E-01
  0.8503120E+01 -0.6978320E+01 -0.2568960E-01  0.9352293E-01 -0.2479201E+01  0.7374505E-01  0.5751700E-01
  0.9146170E+01 -0.6111270E+01 -0.2568960E-01  0.1109569E+00 -0.2208621E+01  0.6606922E-01  0.8914202E-01
  0.9701130E+01 -0.5185360E+01 -0.2568960E-01  0.1350964E+00 -0.2028841E+01  0.5973899E-01  0.1211705E+00
  0.1016270E+02 -0.4209520E+01 -0.2568960E-01  0.1628923E+00 -0.1914387E+01  0.5487360E-01  0.1533715E+00
  0.1052630E+02 -0.3193130E+01 -0.2568960E-01  0.1923064E+00 -0.1842673E+01  0.5164183E-01  0.1852428E+00
  0.1078860E+02 -0.2145990E+01 -0.2568960E-01  0.2220592E+00 -0.1797332E+01  0.4987527E-01  0.2163856E+00
  0.1094700E+02 -0.1078180E+01 -0.2568960E-01  0.2515398E+00 -0.1768751E+01  0.4946885E-01  0.2466274E+00
  0.1100000E+02  0.0000000E+00 -0.1027320E+00  0.2793104E+00 -0.1751434E+01  0.5018003E-01  0.2747658E+00
  0.1094700E+02  0.1078190E+01 -0.1027320E+00  0.3063203E+00 -0.1742151E+01  0.5223286E-01  0.3018342E+00
  0.1078860E+02  0.2145990E+01 -0.1027320E+00  0.3316337E+00 -0.1737771E+01  0.5511750E-01  0.3270213E+00
  0.1052630E+02  0.3193130E+01 -0.1027320E+00  0.3551705E+00 -0.1736645E+01  0.5863497E-01  0.3502970E+00
  0.1016270E+02  0.4209520E+01 -0.1027320E+00  0.3766193E+00 -0.1737760E+01  0.6259003E-01  0.3713820E+00
  0.9701130E+01  0.5185360E+01 -0.1027320E+00  0.3952864E+00 -0.1740263E+01  0.6666765E-01  0.3896239E+00
  0.9146170E+01  0.6111270E+01 -0.1027320E+00  0.4114419E+00 -0.1743255E+01  0.7060549E-01  0.4053385E+00
  0.8503110E+01  0.6978330E+01 -0.1027320E+00  0.4251797E+00 -0.1746306E+01  0.7424052E-01  0.4186480E+00
  0.7778170E+01  0.7778170E+01 -0.1027320E+00  0.4362467E+00 -0.1749149E+01  0.7739394E-01  0.4293266E+00
  0.6978330E+01  0.8503110E+01 -0.1027320E+00  0.4439632E+00 -0.1751412E+01  0.7975165E-01  0.4367414E+00
  0.6111270E+01  0.9146170E+01 -0.1027320E+00  0.4488455E+00 -0.1752907E+01  0.8128840E-01  0.4414233E+00
  0.5185360E+01  0.9701130E+01 -0.1027320E+00  0.4510745E+00 -0.1753540E+01  0.8197304E-01  0.4435635E+00
  0.4209520E+01  0.1016270E+02 -0.1027320E+00  0.4504339E+00 -0.1753286E+01  0.8174394E-01  0.4429545E+00
  0.3193130E+01  0.1052630E+02 -0.1027320E+00  0.4463280E+00 -0.1752089E+01  0.8047329E-01  0.4390134E+00
  0.2145990E+01  0.1078860E+02 -0.1027320E+00  0.4393913E+00 -0.1750134E+01  0.7837776E-01  0.4323443E+00
  0.1078190E+01  0.1094700E+02 -0.1027320E+00  0.4298578E+00 -0.1747530E+01  0.7557553E-01  0.4231620E+00
 -0.4808250E-06  0.1100000E+02 -0.1027320E+00  0.4175730E+00 -0.1744468E+01  0.7215662E-01  0.4112914E+00
 -0.1078190E+01  0.1094700E+02 -0.1027320E+00  0.4021068E+00 -0.1741360E+01  0.6825261E-01  0.3962719E+00
 -0.2145990E+01  0.1078860E+02 -0.1027320E+00  0.3841473E+00 -0.1738712E+01  0.6420175E-01  0.3787444E+00
 -0.3193130E+01  0.1052630E+02 -0.1027320E+00  0.3639649E+00 -0.1736974E+01  0.6020495E-01  0.3589509E+00
 -0.4209520E+01  0.1016270E+02 -0.1027320E+00  0.3415231E+00 -0.1736863E+01  0.5645517E-01  0.3368246E+00
 -0.5185370E+01  0.9701130E+01 -0.1027320E+00  0.3166832E+00 -0.1739810E+01  0.5326924E-01  0.3121709E+00
 -0.6111270E+01  0.9146160E+01 -0.1027320E+00  0.2901508E+00 -0.1747159E+01  0.5090698E-01  0.2856500E+00
 -0.6978330E+01  0.8503120E+01 -0.1027320E+00  0.2622780E+00 -0.1760786E+01  0.4953087E-01  0.2575586E+00
 -0.7778170E+01  0.7778170E+01 -0.1027320E+00  0.2332710E+00 -0.1783810E+01  0.4931506E-01  0.2279987E+00
 -0.8503120E+01  0.6978330E+01 -0.1027320E+00  0.2035207E+00 -0.1821811E+01  0.5055181E-01  0.1971426E+00
 -0.9146170E+01  0.6111270E+01 -0.1027320E+00  0.1739388E+00 -0.1881932E+01  0.5324960E-01  0.1655874E+00
 -0.9701130E+01  0.5185360E+01 -0.1027320E+00  0.1454462E+00 -0.1976591E+01  0.5741474E-01  0.1336343E+00
 -0.1016270E+02  0.4209520E+01 -0.1027320E+00  0.1195340E+00 -0.2126602E+01  0.6306944E-01  0.1015412E+00
 -0.1052630E+02  0.3193130E+01 -0.1027320E+00  0.9904011E-01 -0.2359530E+01  0.7026514E-01  0.6979796E-01
 -0.1078860E+02  0.2145990E+01 -0.1027320E+00  0.8776008E-01 -0.2683994E+01  0.7873098E-01  0.3877194E-01
 -0.1094700E+02  0.1078190E+01 -0.1027320E+00  0.8871713E-01 -0.3043757E+01  0.8829287E-01  0.8665833E-02
 -0.1100000E+02 -0.9616510E-06 -0.1027320E+00  0.1008266E+00  0.2939784E+01  0.9878041E-01 -0.2020982E-01
 -0.1094700E+02 -0.1078190E+01 -0.1027320E+00  0.1196400E+00  0.2735962E+01  0.1099317E+00 -0.4720971E-01
 -0.1078860E+02 -0.2146000E+01 -0.1027320E+00  0.1412738E+00  0.2604152E+01  0.1213573E+00 -0.7232361E-01
 -0.1052630E+02 -0.3193130E+01 -0.1027320E+00  0.1635914E+00  0.2518024E+01  0.1328035E+00 -0.9552682E-01
 -0.1016270E+02 -0.4209520E+01 -0.1027320E+00  0.1852428E+00  0.2461166E+01  0.1439900E+00 -0.1165408E+00
 -0.9701130E+01 -0.5185360E+01 -0.1027320E+00  0.2049496E+00  0.2424411E+01  0.1544625E+00 -0.1347058E+00
 -0.9146160E+01 -0.6111270E+01 -0.1027320E+00  0.2224560E+00  0.2399450E+01  0.1639550E+00 -0.1503510E+00
 -0.8503110E+01 -0.6978330E+01 -0.1027320E+00  0.2375856E+00  0.2382028E+01  0.1722818E+00 -0.1636029E+00
 -0.7778170E+01 -0.7778180E+01 -0.1027320E+00  0.2499408E+00  0.2370240E+01  0.1791996E+00 -0.1742351E+00
 -0.6978330E+01 -0.8503110E+01 -0.1027320E+00  0.2587265E+00  0.2363485E+01  0.1842762E+00 -0.1816086E+00
 -0.6111270E+01 -0.9146170E+01 -0.1027320E+00  0.2643184E+00  0.2359598E+01  0.1875364E+00 -0.1862641E+00
 -0.5185360E+01 -0.9701130E+01 -0.1027320E+00  0.2668321E+00  0.2357697E+01  0.1889621E+00 -0.1883951E+00
 -0.4209510E+01 -0.1016270E+02 -0.1027320E+00  0.2660514E+00  0.2357960E+01  0.1884585E+00 -0.1877944E+00
 -0.3193130E+01 -0.1052630E+02 -0.1027320E+00  0.2614104E+00  0.2361463E+01  0.1858164E+00 -0.1838686E+00
 -0.2145990E+01 -0.1078860E+02 -0.1027320E+00  0.2535719E+00  0.2367685E+01  0.1813507E+00 -0.1772304E+00
 -0.1078190E+01 -0.1094700E+02 -0.1027320E+00  0.2428175E+00  0.2376965E+01  0.1752269E+00 -0.1680948E+00
  0.1311740E-06 -0.1100000E+02 -0.1027320E+00  0.2291136E+00  0.2390926E+01  0.1675356E+00 -0.1562845E+00
  0.1078190E+01 -0.1094700E+02 -0.1027320E+00  0.2122663E+00  0.2413031E+01  0.1583789E+00 -0.1413263E+00
  0.2145990E+01 -0.1078860E+02 -0.1027320E+00  0.1931679E+00  0.2445477E+01  0.1482252E+00 -0.1238673E+00
  0.3193140E+01 -0.1052630E+02 -0.1027320E+00  0.1723715E+00  0.2492803E+01  0.1373483E+00 -0.1041508E+00
  0.4209520E+01 -0.1016270E+02 -0.1027320E+00  0.1503712E+00  0.2564006E+01  0.1259784E+00 -0.8210320E-01
  0.5185360E+01 -0.9701130E+01 -0.1027320E+00  0.1280973E+00  0.2675921E+01  0.1144575E+00 -0.5751868E-01
  0.6111270E+01 -0.9146160E+01 -0.1027320E+00  0.1077615E+00  0.2849190E+01  0.1031875E+00 -0.3106267E-01
  0.6978330E+01 -0.8503110E+01 -0.1027320E+00  0.9247048E-01  0.3108787E+01  0.9242073E-01 -0.3033029E-02
  0.7778180E+01 -0.7778170E+01 -0.1027320E+00  0.8654431E-01 -0.2830719E+01  0.8239595E-01  0.2647309E-01
  0.8503120E+01 -0.6978320E+01 -0.1027320E+00  0.9318071E-01 -0.2479354E+01  0.7348397E-01  0.5729529E-01
  0.9146170E+01 -0.6111270E+01 -0.1027320E+00  0.1105595E+00 -0.2208547E+01  0.6582594E-01  0.8882761E-01
