 VARIABLES="X" "Y" "Z" "abs(eta) (m)" "angle(phi) (rad)" "PRE1" "PRE2"
ZONE N=   3200 ,E =    3136 ,F=FEPOINT,ET=QUADRILATERAL
  0.1010000E+02  0.0000000E+00  0.0000000E+00  0.8067732E-01 -0.2497037E+01  0.6449079E-01  0.4847440E-01
  0.1005140E+02  0.9899730E+00  0.0000000E+00  0.7254695E-01 -0.2851917E+01  0.6952440E-01  0.2072241E-01
  0.9905930E+01  0.1970410E+01  0.0000000E+00  0.7597589E-01  0.3052903E+01  0.7567728E-01 -0.6729468E-02
  0.9665100E+01  0.2931880E+01  0.0000000E+00  0.8909684E-01  0.2759079E+01  0.8265773E-01 -0.3325576E-01
  0.9331180E+01  0.3865100E+01  0.0000000E+00  0.1070910E+00  0.2570282E+01  0.9008422E-01 -0.5790784E-01
  0.8907400E+01  0.4761110E+01  0.0000000E+00  0.1268848E+00  0.2452396E+01  0.9792432E-01 -0.8068823E-01
  0.8397840E+01  0.5611260E+01  0.0000000E+00  0.1472263E+00  0.2375939E+01  0.1061397E+00 -0.1020291E+00
  0.7807410E+01  0.6407370E+01  0.0000000E+00  0.1669565E+00  0.2324728E+01  0.1142834E+00 -0.1217119E+00
  0.7141780E+01  0.7141780E+01  0.0000000E+00  0.1847661E+00  0.2290975E+01  0.1218567E+00 -0.1388865E+00
  0.6407370E+01  0.7807410E+01  0.0000000E+00  0.2002865E+00  0.2269340E+01  0.1288048E+00 -0.1533754E+00
  0.5611260E+01  0.8397840E+01  0.0000000E+00  0.2137967E+00  0.2254906E+01  0.1351159E+00 -0.1656886E+00
  0.4761110E+01  0.8907410E+01  0.0000000E+00  0.2252009E+00  0.2244278E+01  0.1404603E+00 -0.1760294E+00
  0.3865100E+01  0.9331180E+01  0.0000000E+00  0.2336872E+00  0.2237303E+01  0.1444757E+00 -0.1836749E+00
  0.2931870E+01  0.9665100E+01  0.0000000E+00  0.2389473E+00  0.2234019E+01  0.1471102E+00 -0.1882934E+00
  0.1970410E+01  0.9905930E+01  0.0000000E+00  0.2413658E+00  0.2232919E+01  0.1483899E+00 -0.1903625E+00
  0.9899730E+00  0.1005140E+02  0.0000000E+00  0.2413191E+00  0.2232533E+01  0.1482877E+00 -0.1903829E+00
 -0.4414850E-06  0.1010000E+02  0.0000000E+00  0.2383553E+00  0.2234104E+01  0.1467617E+00 -0.1878144E+00
 -0.9899740E+00  0.1005140E+02  0.0000000E+00  0.2320852E+00  0.2238903E+01  0.1437769E+00 -0.1821860E+00
 -0.1970410E+01  0.9905930E+01  0.0000000E+00  0.2228445E+00  0.2246548E+01  0.1393857E+00 -0.1738716E+00
 -0.2931880E+01  0.9665100E+01  0.0000000E+00  0.2113681E+00  0.2256810E+01  0.1338928E+00 -0.1635518E+00
 -0.3865100E+01  0.9331180E+01  0.0000000E+00  0.1976489E+00  0.2272463E+01  0.1275806E+00 -0.1509578E+00
 -0.4761110E+01  0.8907400E+01  0.0000000E+00  0.1813592E+00  0.2297179E+01  0.1204533E+00 -0.1355809E+00
 -0.5611260E+01  0.8397840E+01  0.0000000E+00  0.1628044E+00  0.2334231E+01  0.1125641E+00 -0.1176206E+00
 -0.6407370E+01  0.7807410E+01  0.0000000E+00  0.1431387E+00  0.2388269E+01  0.1044082E+00 -0.9791643E-01
 -0.7141780E+01  0.7141780E+01  0.0000000E+00  0.1231415E+00  0.2470364E+01  0.9642699E-01 -0.7658767E-01
 -0.7807410E+01  0.6407370E+01  0.0000000E+00  0.1033836E+00  0.2601279E+01  0.8865634E-01 -0.5318102E-01
 -0.8397840E+01  0.5611260E+01  0.0000000E+00  0.8574641E-01  0.2812192E+01  0.8113638E-01 -0.2773690E-01
 -0.8907410E+01  0.4761110E+01  0.0000000E+00  0.7429916E-01  0.3125700E+01  0.7428978E-01 -0.1180756E-02
 -0.9331180E+01  0.3865100E+01  0.0000000E+00  0.7320569E-01 -0.2779592E+01  0.6846124E-01  0.2592551E-01
 -0.9665100E+01  0.2931880E+01  0.0000000E+00  0.8343916E-01 -0.2439194E+01  0.6368867E-01  0.5390591E-01
 -0.9905930E+01  0.1970410E+01  0.0000000E+00  0.1023154E+00 -0.2197152E+01  0.5997690E-01  0.8289275E-01
 -0.1005140E+02  0.9899730E+00  0.0000000E+00  0.1258630E+00 -0.2044838E+01  0.5745476E-01  0.1119842E+00
 -0.1010000E+02 -0.8829700E-06  0.0000000E+00  0.1511506E+00 -0.1951453E+01  0.5615710E-01  0.1403314E+00
 -0.1005140E+02 -0.9899740E+00  0.0000000E+00  0.1772081E+00 -0.1892928E+01  0.5610218E-01  0.1680930E+00
 -0.9905930E+01 -0.1970410E+01  0.0000000E+00  0.2037682E+00 -0.1855613E+01  0.5725512E-01  0.1955590E+00
 -0.9665100E+01 -0.2931880E+01  0.0000000E+00  0.2299059E+00 -0.1832116E+01  0.5939741E-01  0.2221006E+00
 -0.9331180E+01 -0.3865100E+01  0.0000000E+00  0.2545018E+00 -0.1817897E+01  0.6224954E-01  0.2467714E+00
 -0.8907400E+01 -0.4761110E+01  0.0000000E+00  0.2774881E+00 -0.1810215E+01  0.6580294E-01  0.2695730E+00
 -0.8397840E+01 -0.5611260E+01  0.0000000E+00  0.2992418E+00 -0.1806939E+01  0.7000875E-01  0.2909371E+00
 -0.7807400E+01 -0.6407370E+01  0.0000000E+00  0.3194418E+00 -0.1806061E+01  0.7446185E-01  0.3106421E+00
 -0.7141780E+01 -0.7141780E+01  0.0000000E+00  0.3371652E+00 -0.1806561E+01  0.7875718E-01  0.3278379E+00
 -0.6407370E+01 -0.7807410E+01  0.0000000E+00  0.3522361E+00 -0.1808303E+01  0.8287407E-01  0.3423480E+00
 -0.5611260E+01 -0.8397850E+01  0.0000000E+00  0.3651418E+00 -0.1810746E+01  0.8677735E-01  0.3546804E+00
 -0.4761110E+01 -0.8907410E+01  0.0000000E+00  0.3760006E+00 -0.1812886E+01  0.9013934E-01  0.3650360E+00
 -0.3865100E+01 -0.9331190E+01  0.0000000E+00  0.3840427E+00 -0.1814511E+01  0.9267315E-01  0.3726936E+00
 -0.2931870E+01 -0.9665100E+01  0.0000000E+00  0.3889408E+00 -0.1815859E+01  0.9436358E-01  0.3773201E+00
 -0.1970410E+01 -0.9905930E+01  0.0000000E+00  0.3911573E+00 -0.1816652E+01  0.9520233E-01  0.3793950E+00
 -0.9899710E+00 -0.1005140E+02  0.0000000E+00  0.3911569E+00 -0.1816459E+01  0.9512910E-01  0.3794129E+00
  0.1204410E-06 -0.1010000E+02  0.0000000E+00  0.3884220E+00 -0.1815607E+01  0.9414292E-01  0.3768405E+00
  0.9899760E+00 -0.1005140E+02  0.0000000E+00  0.3824927E+00 -0.1814362E+01  0.9224355E-01  0.3712032E+00
  0.1970410E+01 -0.9905930E+01  0.0000000E+00  0.3737382E+00 -0.1812474E+01  0.8944763E-01  0.3628765E+00
  0.2931880E+01 -0.9665100E+01  0.0000000E+00  0.3628750E+00 -0.1810040E+01  0.8598974E-01  0.3525394E+00
  0.3865100E+01 -0.9331180E+01  0.0000000E+00  0.3497141E+00 -0.1807940E+01  0.8215735E-01  0.3399266E+00
  0.4761110E+01 -0.8907410E+01  0.0000000E+00  0.3337658E+00 -0.1806614E+01  0.7798028E-01  0.3245284E+00
  0.5611260E+01 -0.8397840E+01  0.0000000E+00  0.3152297E+00 -0.1806054E+01  0.7347797E-01  0.3065465E+00
  0.6407370E+01 -0.7807410E+01  0.0000000E+00  0.2950135E+00 -0.1807055E+01  0.6905290E-01  0.2868182E+00
  0.7141780E+01 -0.7141780E+01  0.0000000E+00  0.2733364E+00 -0.1811327E+01  0.6511357E-01  0.2654675E+00
  0.7807410E+01 -0.6407370E+01  0.0000000E+00  0.2497828E+00 -0.1820432E+01  0.6170909E-01  0.2420402E+00
  0.8397840E+01 -0.5611260E+01  0.0000000E+00  0.2244328E+00 -0.1836126E+01  0.5885236E-01  0.2165790E+00
  0.8907410E+01 -0.4761110E+01  0.0000000E+00  0.1983327E+00 -0.1861595E+01  0.5686540E-01  0.1900057E+00
  0.9331180E+01 -0.3865100E+01  0.0000000E+00  0.1722526E+00 -0.1902070E+01  0.5602478E-01  0.1628870E+00
  0.9665100E+01 -0.2931870E+01  0.0000000E+00  0.1462022E+00 -0.1966607E+01  0.5636922E-01  0.1348984E+00
  0.9905930E+01 -0.1970410E+01  0.0000000E+00  0.1206967E+00 -0.2071007E+01  0.5788736E-01  0.1059091E+00
  0.1005140E+02 -0.9899690E+00  0.0000000E+00  0.9785078E-01 -0.2238830E+01  0.6061301E-01  0.7681691E-01
  0.1010000E+02  0.0000000E+00 -0.2568960E-01  0.8059838E-01 -0.2497067E+01  0.6442913E-01  0.4842506E-01
  0.1005140E+02  0.9899730E+00 -0.2568960E-01  0.7246680E-01 -0.2852170E+01  0.6945283E-01  0.2068191E-01
  0.9905930E+01  0.1970410E+01 -0.2568960E-01  0.7590646E-01  0.3052823E+01  0.7560758E-01 -0.6729349E-02
  0.9665100E+01  0.2931880E+01 -0.2568960E-01  0.8902033E-01  0.2758761E+01  0.8257619E-01 -0.3325345E-01
  0.9331180E+01  0.3865100E+01 -0.2568960E-01  0.1069997E+00  0.2570189E+01  0.9000199E-01 -0.5786685E-01
  0.8907400E+01  0.4761110E+01 -0.2568960E-01  0.1267975E+00  0.2452138E+01  0.9783605E-01 -0.8065799E-01
  0.8397840E+01  0.5611260E+01 -0.2568960E-01  0.1470991E+00  0.2375898E+01  0.1060439E+00 -0.1019453E+00
  0.7807410E+01  0.6407370E+01 -0.2568960E-01  0.1668416E+00  0.2324548E+01  0.1141830E+00 -0.1216486E+00
  0.7141780E+01  0.7141780E+01 -0.2568960E-01  0.1846121E+00  0.2290927E+01  0.1217486E+00 -0.1387765E+00
  0.6407370E+01  0.7807410E+01 -0.2568960E-01  0.2001548E+00  0.2269198E+01  0.1286984E+00 -0.1532927E+00
  0.5611260E+01  0.8397840E+01 -0.2568960E-01  0.2136122E+00  0.2254882E+01  0.1349954E+00 -0.1655488E+00
  0.4761110E+01  0.8907410E+01 -0.2568960E-01  0.2250501E+00  0.2244160E+01  0.1403456E+00 -0.1759280E+00
  0.3865100E+01  0.9331180E+01 -0.2568960E-01  0.2334928E+00  0.2237271E+01  0.1443496E+00 -0.1835267E+00
  0.2931870E+01  0.9665100E+01 -0.2568960E-01  0.2387889E+00  0.2233916E+01  0.1469933E+00 -0.1881837E+00
  0.1970410E+01  0.9905930E+01 -0.2568960E-01  0.2411578E+00  0.2232901E+01  0.1482585E+00 -0.1902012E+00
  0.9899730E+00  0.1005140E+02 -0.2568960E-01  0.2411593E+00  0.2232431E+01  0.1481700E+00 -0.1902721E+00
 -0.4414850E-06  0.1010000E+02 -0.2568960E-01  0.2381570E+00  0.2234073E+01  0.1466337E+00 -0.1876627E+00
 -0.9899740E+00  0.1005140E+02 -0.2568960E-01  0.2319300E+00  0.2238791E+01  0.1436605E+00 -0.1820802E+00
 -0.1970410E+01  0.9905930E+01 -0.2568960E-01  0.2226527E+00  0.2246525E+01  0.1392618E+00 -0.1737251E+00
 -0.2931880E+01  0.9665100E+01 -0.2568960E-01  0.2112291E+00  0.2256681E+01  0.1337837E+00 -0.1634616E+00
 -0.3865100E+01  0.9331180E+01 -0.2568960E-01  0.1974848E+00  0.2272419E+01  0.1274682E+00 -0.1508380E+00
 -0.4761110E+01  0.8907400E+01 -0.2568960E-01  0.1812358E+00  0.2297018E+01  0.1203495E+00 -0.1355080E+00
 -0.5611260E+01  0.8397840E+01 -0.2568960E-01  0.1626641E+00  0.2334195E+01  0.1124628E+00 -0.1175233E+00
 -0.6407370E+01  0.7807410E+01 -0.2568960E-01  0.1430420E+00  0.2388047E+01  0.1043158E+00 -0.9787345E-01
 -0.7141780E+01  0.7141780E+01 -0.2568960E-01  0.1230377E+00  0.2470283E+01  0.9633941E-01 -0.7653093E-01
 -0.7807410E+01  0.6407370E+01 -0.2568960E-01  0.1033021E+00  0.2600990E+01  0.8857103E-01 -0.5316475E-01
 -0.8397840E+01  0.5611260E+01 -0.2568960E-01  0.8566973E-01  0.2812112E+01  0.8106160E-01 -0.2771859E-01
 -0.8907410E+01  0.4761110E+01 -0.2568960E-01  0.7422499E-01  0.3125344E+01  0.7421520E-01 -0.1206039E-02
 -0.9331180E+01  0.3865100E+01 -0.2568960E-01  0.7313418E-01 -0.2779663E+01  0.6839620E-01  0.2589533E-01
 -0.9665100E+01  0.2931880E+01 -0.2568960E-01  0.8334936E-01 -0.2439185E+01  0.6361966E-01  0.5384845E-01
 -0.9905930E+01  0.1970410E+01 -0.2568960E-01  0.1022192E+00 -0.2197155E+01  0.5992071E-01  0.8281470E-01
 -0.1005140E+02  0.9899730E+00 -0.2568960E-01  0.1257421E+00 -0.2044762E+01  0.5739103E-01  0.1118809E+00
 -0.1010000E+02 -0.8829700E-06 -0.2568960E-01  0.1510125E+00 -0.1951433E+01  0.5610288E-01  0.1402043E+00
 -0.1005140E+02 -0.9899740E+00 -0.2568960E-01  0.1770595E+00 -0.1892845E+01  0.5604113E-01  0.1679567E+00
 -0.9905930E+01 -0.1970410E+01 -0.2568960E-01  0.2035839E+00 -0.1855604E+01  0.5720151E-01  0.1953826E+00
 -0.9665100E+01 -0.2931880E+01 -0.2568960E-01  0.2297170E+00 -0.1832055E+01  0.5933522E-01  0.2219217E+00
 -0.9331180E+01 -0.3865100E+01 -0.2568960E-01  0.2542767E+00 -0.1817885E+01  0.6219149E-01  0.2465540E+00
 -0.8907400E+01 -0.4761110E+01 -0.2568960E-01  0.2772720E+00 -0.1810175E+01  0.6574088E-01  0.2693658E+00
 -0.8397840E+01 -0.5611260E+01 -0.2568960E-01  0.2989740E+00 -0.1806937E+01  0.6994560E-01  0.2906769E+00
 -0.7807400E+01 -0.6407370E+01 -0.2568960E-01  0.3191929E+00 -0.1806030E+01  0.7439449E-01  0.3104023E+00
 -0.7141780E+01 -0.7141780E+01 -0.2568960E-01  0.3368707E+00 -0.1806558E+01  0.7868755E-01  0.3275517E+00
 -0.6407370E+01 -0.7807410E+01 -0.2568960E-01  0.3519680E+00 -0.1808287E+01  0.8280564E-01  0.3420887E+00
 -0.5611260E+01 -0.8397850E+01 -0.2568960E-01  0.3648170E+00 -0.1810748E+01  0.8670072E-01  0.3543648E+00
 -0.4761110E+01 -0.8907410E+01 -0.2568960E-01  0.3757133E+00 -0.1812875E+01  0.9006644E-01  0.3647582E+00
 -0.3865100E+01 -0.9331190E+01 -0.2568960E-01  0.3837081E+00 -0.1814513E+01  0.9259301E-01  0.3723687E+00
 -0.2931870E+01 -0.9665100E+01 -0.2568960E-01  0.3886456E+00 -0.1815852E+01  0.9428939E-01  0.3770343E+00
 -0.1970410E+01 -0.9905930E+01 -0.2568960E-01  0.3908092E+00 -0.1816655E+01  0.9511867E-01  0.3790570E+00
 -0.9899710E+00 -0.1005140E+02 -0.2568960E-01  0.3908603E+00 -0.1816453E+01  0.9505475E-01  0.3791258E+00
  0.1204410E-06 -0.1010000E+02 -0.2568960E-01  0.3880840E+00 -0.1815609E+01  0.9406169E-01  0.3765124E+00
  0.9899760E+00 -0.1005140E+02 -0.2568960E-01  0.3822008E+00 -0.1814353E+01  0.9216996E-01  0.3709207E+00
  0.1970410E+01 -0.9905930E+01 -0.2568960E-01  0.3734052E+00 -0.1812477E+01  0.8936881E-01  0.3625529E+00
  0.2931880E+01 -0.9665100E+01 -0.2568960E-01  0.3625993E+00 -0.1810027E+01  0.8591983E-01  0.3522727E+00
  0.3865100E+01 -0.9331180E+01 -0.2568960E-01  0.3494083E+00 -0.1807939E+01  0.8208505E-01  0.3396295E+00
  0.4761110E+01 -0.8907410E+01 -0.2568960E-01  0.3335069E+00 -0.1806588E+01  0.7791144E-01  0.3242787E+00
  0.5611260E+01 -0.8397840E+01 -0.2568960E-01  0.3149481E+00 -0.1806053E+01  0.7341214E-01  0.3062727E+00
  0.6407370E+01 -0.7807410E+01 -0.2568960E-01  0.2947857E+00 -0.1807021E+01  0.6898984E-01  0.2865990E+00
  0.7141780E+01 -0.7141780E+01 -0.2568960E-01  0.2730956E+00 -0.1811317E+01  0.6505368E-01  0.2652343E+00
  0.7807410E+01 -0.6407370E+01 -0.2568960E-01  0.2495808E+00 -0.1820379E+01  0.6164631E-01  0.2418477E+00
  0.8397840E+01 -0.5611260E+01 -0.2568960E-01  0.2242305E+00 -0.1836118E+01  0.5879767E-01  0.2163843E+00
  0.8907410E+01 -0.4761110E+01 -0.2568960E-01  0.1981705E+00 -0.1861521E+01  0.5680499E-01  0.1898545E+00
  0.9331180E+01 -0.3865100E+01 -0.2568960E-01  0.1720968E+00 -0.1902052E+01  0.5597113E-01  0.1627407E+00
  0.9665100E+01 -0.2931870E+01 -0.2568960E-01  0.1460683E+00 -0.1966524E+01  0.5630640E-01  0.1347795E+00
  0.9905930E+01 -0.1970410E+01 -0.2568960E-01  0.1205845E+00 -0.2071001E+01  0.5783294E-01  0.1058110E+00
  0.1005140E+02 -0.9899690E+00 -0.2568960E-01  0.9775225E-01 -0.2238760E+01  0.6054664E-01  0.7674377E-01
  0.1010000E+02  0.0000000E+00 -0.1027320E+00  0.8036304E-01 -0.2497071E+01  0.6424116E-01  0.4828344E-01
  0.1005140E+02  0.9899730E+00 -0.1027320E+00  0.7224720E-01 -0.2852539E+01  0.6924997E-01  0.2059370E-01
  0.9905930E+01  0.1970410E+01 -0.1027320E+00  0.7569367E-01  0.3052734E+01  0.7539504E-01 -0.6717193E-02
  0.9665100E+01  0.2931880E+01 -0.1027320E+00  0.8877311E-01  0.2758480E+01  0.8233755E-01 -0.3318422E-01
  0.9331180E+01  0.3865100E+01 -0.1027320E+00  0.1067130E+00  0.2570043E+01  0.8975241E-01 -0.5772492E-01
  0.8907400E+01  0.4761110E+01 -0.1027320E+00  0.1264841E+00  0.2451860E+01  0.9757189E-01 -0.8048575E-01
  0.8397840E+01  0.5611260E+01 -0.1027320E+00  0.1467022E+00  0.2375882E+01  0.1057561E+00 -0.1016719E+00
  0.7807410E+01  0.6407370E+01 -0.1027320E+00  0.1664180E+00  0.2324401E+01  0.1138751E+00 -0.1213566E+00
  0.7141780E+01  0.7141780E+01 -0.1027320E+00  0.1841284E+00  0.2290893E+01  0.1214248E+00 -0.1384171E+00
  0.6407370E+01  0.7807410E+01 -0.1027320E+00  0.1996649E+00  0.2269093E+01  0.1283673E+00 -0.1529310E+00
  0.5611260E+01  0.8397840E+01 -0.1027320E+00  0.2130384E+00  0.2254907E+01  0.1346369E+00 -0.1651007E+00
  0.4761110E+01  0.8907410E+01 -0.1027320E+00  0.2244894E+00  0.2244089E+01  0.1399834E+00 -0.1754996E+00
  0.3865100E+01  0.9331180E+01 -0.1027320E+00  0.2328828E+00  0.2237277E+01  0.1439736E+00 -0.1830464E+00
  0.2931870E+01  0.9665100E+01 -0.1027320E+00  0.2382005E+00  0.2233860E+01  0.1466205E+00 -0.1877282E+00
  0.1970410E+01  0.9905930E+01 -0.1027320E+00  0.2405100E+00  0.2232937E+01  0.1478672E+00 -0.1896849E+00
  0.9899730E+00  0.1005140E+02 -0.1027320E+00  0.2405635E+00  0.2232378E+01  0.1477940E+00 -0.1898098E+00
 -0.4414850E-06  0.1010000E+02 -0.1027320E+00  0.2375345E+00  0.2234083E+01  0.1462523E+00 -0.1871708E+00
 -0.9899740E+00  0.1005140E+02 -0.1027320E+00  0.2313536E+00  0.2238725E+01  0.1432915E+00 -0.1816372E+00
 -0.1970410E+01  0.9905930E+01 -0.1027320E+00  0.2220542E+00  0.2246557E+01  0.1388930E+00 -0.1732536E+00
 -0.2931880E+01  0.9665100E+01 -0.1027320E+00  0.2107113E+00  0.2256594E+01  0.1334415E+00 -0.1630725E+00
 -0.3865100E+01  0.9331180E+01 -0.1027320E+00  0.1969678E+00  0.2272399E+01  0.1271314E+00 -0.1504457E+00
 -0.4761110E+01  0.8907400E+01 -0.1027320E+00  0.1807784E+00  0.2296891E+01  0.1200286E+00 -0.1351812E+00
 -0.5611260E+01  0.8397840E+01 -0.1027320E+00  0.1622260E+00  0.2334190E+01  0.1121593E+00 -0.1172073E+00
 -0.6407370E+01  0.7807410E+01 -0.1027320E+00  0.1426910E+00  0.2387821E+01  0.1040378E+00 -0.9765682E-01
 -0.7141780E+01  0.7141780E+01 -0.1027320E+00  0.1227109E+00  0.2470169E+01  0.9607486E-01 -0.7633862E-01
 -0.7807410E+01  0.6407370E+01 -0.1027320E+00  0.1030244E+00  0.2600723E+01  0.8831879E-01 -0.5304541E-01
 -0.8397840E+01  0.5611260E+01 -0.1027320E+00  0.8543339E-01  0.2812027E+01  0.8083563E-01 -0.2764895E-01
 -0.8907410E+01  0.4761110E+01 -0.1027320E+00  0.7401230E-01  0.3124861E+01  0.7400195E-01 -0.1238312E-02
 -0.9331180E+01  0.3865100E+01 -0.1027320E+00  0.7292049E-01 -0.2779747E+01  0.6819854E-01  0.2581389E-01
 -0.9665100E+01  0.2931880E+01 -0.1027320E+00  0.8310487E-01 -0.2439064E+01  0.6342653E-01  0.5369819E-01
 -0.9905930E+01  0.1970410E+01 -0.1027320E+00  0.1019299E+00 -0.2197121E+01  0.5974834E-01  0.8258232E-01
 -0.1005140E+02  0.9899730E+00 -0.1027320E+00  0.1253774E+00 -0.2044678E+01  0.5721516E-01  0.1115612E+00
 -0.1010000E+02 -0.8829700E-06 -0.1027320E+00  0.1505927E+00 -0.1951366E+01  0.5593758E-01  0.1398182E+00
 -0.1005140E+02 -0.9899740E+00 -0.1027320E+00  0.1765894E+00 -0.1892730E+01  0.5587310E-01  0.1675172E+00
 -0.9905930E+01 -0.1970410E+01 -0.1027320E+00  0.2030202E+00 -0.1855587E+01  0.5703986E-01  0.1948426E+00
 -0.9665100E+01 -0.2931880E+01 -0.1027320E+00  0.2290947E+00 -0.1831986E+01  0.5915916E-01  0.2213246E+00
 -0.9331180E+01 -0.3865100E+01 -0.1027320E+00  0.2535847E+00 -0.1817868E+01  0.6201804E-01  0.2458840E+00
 -0.8907400E+01 -0.4761110E+01 -0.1027320E+00  0.2765496E+00 -0.1810145E+01  0.6556158E-01  0.2686659E+00
 -0.8397840E+01 -0.5611260E+01 -0.1027320E+00  0.2981510E+00 -0.1806950E+01  0.6975697E-01  0.2898758E+00
 -0.7807400E+01 -0.6407370E+01 -0.1027320E+00  0.3183481E+00 -0.1806016E+01  0.7419305E-01  0.3095818E+00
 -0.7141780E+01 -0.7141780E+01 -0.1027320E+00  0.3359592E+00 -0.1806577E+01  0.7848074E-01  0.3266640E+00
 -0.6407370E+01 -0.7807410E+01 -0.1027320E+00  0.3510532E+00 -0.1808305E+01  0.8259652E-01  0.3411981E+00
 -0.5611260E+01 -0.8397850E+01 -0.1027320E+00  0.3638147E+00 -0.1810782E+01  0.8647452E-01  0.3533883E+00
 -0.4761110E+01 -0.8907410E+01 -0.1027320E+00  0.3747297E+00 -0.1812895E+01  0.8983809E-01  0.3638014E+00
 -0.3865100E+01 -0.9331190E+01 -0.1027320E+00  0.3826723E+00 -0.1814552E+01  0.9235773E-01  0.3713599E+00
 -0.2931870E+01 -0.9665100E+01 -0.1027320E+00  0.3876346E+00 -0.1815886E+01  0.9405705E-01  0.3760504E+00
 -0.1970410E+01 -0.9905930E+01 -0.1027320E+00  0.3897365E+00 -0.1816698E+01  0.9487405E-01  0.3780125E+00
 -0.9899710E+00 -0.1005140E+02 -0.1027320E+00  0.3898430E+00 -0.1816488E+01  0.9482041E-01  0.3781358E+00
  0.1204410E-06 -0.1010000E+02 -0.1027320E+00  0.3870359E+00 -0.1815651E+01  0.9382348E-01  0.3754916E+00
  0.9899760E+00 -0.1005140E+02 -0.1027320E+00  0.3812017E+00 -0.1814379E+01  0.9193873E-01  0.3699487E+00
  0.1970410E+01 -0.9905930E+01 -0.1027320E+00  0.3723801E+00 -0.1812513E+01  0.8913639E-01  0.3615545E+00
  0.2931880E+01 -0.9665100E+01 -0.1027320E+00  0.3616568E+00 -0.1810050E+01  0.8570462E-01  0.3513550E+00
  0.3865100E+01 -0.9331180E+01 -0.1027320E+00  0.3484639E+00 -0.1807963E+01  0.8187158E-01  0.3387095E+00
  0.4761110E+01 -0.8907410E+01 -0.1027320E+00  0.3326270E+00 -0.1806582E+01  0.7770409E-01  0.3234236E+00
  0.5611260E+01 -0.8397840E+01 -0.1027320E+00  0.3140817E+00 -0.1806072E+01  0.7321580E-01  0.3054288E+00
  0.6407370E+01 -0.7807410E+01 -0.1027320E+00  0.2940186E+00 -0.1807004E+01  0.6880543E-01  0.2858544E+00
  0.7141780E+01 -0.7141780E+01 -0.1027320E+00  0.2723537E+00 -0.1811308E+01  0.6487449E-01  0.2645144E+00
  0.7807410E+01 -0.6407370E+01 -0.1027320E+00  0.2489093E+00 -0.1820322E+01  0.6146671E-01  0.2412005E+00
  0.8397840E+01 -0.5611260E+01 -0.1027320E+00  0.2236109E+00 -0.1836108E+01  0.5863308E-01  0.2157869E+00
