 VARIABLES="X" "Y" "Z" "abs(eta) (m)" "angle(phi) (rad)" "PRE1" "PRE2"
ZONE N=   3200 ,E =    3136 ,F=FEPOINT,ET=QUADRILATERAL
  0.1672800E+02  0.0000000E+00  0.0000000E+00  0.2183589E+00 -0.1342863E+01 -0.4934139E-01  0.2127112E+00
  0.1664750E+02  0.1639630E+01  0.0000000E+00  0.2158256E+00 -0.1339133E+01 -0.4955279E-01  0.2100600E+00
  0.1640660E+02  0.3263470E+01  0.0000000E+00  0.2124005E+00 -0.1337492E+01 -0.4910564E-01  0.2066461E+00
  0.1600770E+02  0.4855880E+01  0.0000000E+00  0.2080366E+00 -0.1338090E+01 -0.4797569E-01  0.2024291E+00
  0.1545470E+02  0.6401530E+01  0.0000000E+00  0.2036284E+00 -0.1340650E+01 -0.4645174E-01  0.1982593E+00
  0.1475280E+02  0.7885530E+01  0.0000000E+00  0.1993788E+00 -0.1344926E+01 -0.4465177E-01  0.1943145E+00
  0.1390880E+02  0.9293580E+01  0.0000000E+00  0.1957075E+00 -0.1351000E+01 -0.4267028E-01  0.1909992E+00
  0.1293090E+02  0.1061210E+02  0.0000000E+00  0.1917357E+00 -0.1358976E+01 -0.4031055E-01  0.1874503E+00
  0.1182850E+02  0.1182850E+02  0.0000000E+00  0.1839679E+00 -0.1370922E+01 -0.3652606E-01  0.1803054E+00
  0.1061210E+02  0.1293090E+02  0.0000000E+00  0.1758147E+00 -0.1384957E+01 -0.3248555E-01  0.1727874E+00
  0.9293580E+01  0.1390880E+02  0.0000000E+00  0.1661332E+00 -0.1402473E+01 -0.2783225E-01  0.1637852E+00
  0.7885520E+01  0.1475280E+02  0.0000000E+00  0.1518087E+00 -0.1427937E+01 -0.2161355E-01  0.1502623E+00
  0.6401530E+01  0.1545470E+02  0.0000000E+00  0.1345789E+00 -0.1463159E+01 -0.1445775E-01  0.1338001E+00
  0.4855880E+01  0.1600770E+02  0.0000000E+00  0.1089799E+00 -0.1530072E+01 -0.4436952E-02  0.1088896E+00
  0.3263470E+01  0.1640660E+02  0.0000000E+00  0.6803931E-01 -0.1739610E+01  0.1143149E-01  0.6707212E-01
  0.1639630E+01  0.1664750E+02  0.0000000E+00  0.3439387E-01 -0.2882343E+01  0.3324452E-01  0.8817052E-02
 -0.7312040E-06  0.1672800E+02  0.0000000E+00  0.6659333E-01  0.2469524E+01  0.5211163E-01 -0.4146142E-01
 -0.1639630E+01  0.1664750E+02  0.0000000E+00  0.1027658E+00  0.2262559E+01  0.6555385E-01 -0.7914224E-01
 -0.3263470E+01  0.1640660E+02  0.0000000E+00  0.1289911E+00  0.2178333E+01  0.7363416E-01 -0.1059090E+00
 -0.4855880E+01  0.1600770E+02  0.0000000E+00  0.1428017E+00  0.2139998E+01  0.7696439E-01 -0.1202863E+00
 -0.6401530E+01  0.1545470E+02  0.0000000E+00  0.1491616E+00  0.2121941E+01  0.7811033E-01 -0.1270747E+00
 -0.7885530E+01  0.1475280E+02  0.0000000E+00  0.1517497E+00  0.2112591E+01  0.7825343E-01 -0.1300168E+00
 -0.9293580E+01  0.1390880E+02  0.0000000E+00  0.1546374E+00  0.2104879E+01  0.7871848E-01 -0.1331020E+00
 -0.1061210E+02  0.1293090E+02  0.0000000E+00  0.1551325E+00  0.2101428E+01  0.7850909E-01 -0.1337999E+00
 -0.1182850E+02  0.1182850E+02  0.0000000E+00  0.1550044E+00  0.2099108E+01  0.7813405E-01 -0.1338710E+00
 -0.1293090E+02  0.1061210E+02  0.0000000E+00  0.1546796E+00  0.2097184E+01  0.7771304E-01 -0.1337402E+00
 -0.1390880E+02  0.9293580E+01  0.0000000E+00  0.1519151E+00  0.2098450E+01  0.7649036E-01 -0.1312533E+00
 -0.1475280E+02  0.7885520E+01  0.0000000E+00  0.1497679E+00  0.2097196E+01  0.7524686E-01 -0.1294926E+00
 -0.1545470E+02  0.6401530E+01  0.0000000E+00  0.1484650E+00  0.2092382E+01  0.7397359E-01 -0.1287236E+00
 -0.1600770E+02  0.4855880E+01  0.0000000E+00  0.1471597E+00  0.2085857E+01  0.7248899E-01 -0.1280676E+00
 -0.1640660E+02  0.3263470E+01  0.0000000E+00  0.1457805E+00  0.2078014E+01  0.7081248E-01 -0.1274267E+00
 -0.1664750E+02  0.1639630E+01  0.0000000E+00  0.1438336E+00  0.2070067E+01  0.6886546E-01 -0.1262761E+00
 -0.1672800E+02 -0.1462410E-05  0.0000000E+00  0.1411872E+00  0.2062350E+01  0.6663980E-01 -0.1244707E+00
 -0.1664750E+02 -0.1639630E+01  0.0000000E+00  0.1377327E+00  0.2055407E+01  0.6416468E-01 -0.1218737E+00
 -0.1640660E+02 -0.3263470E+01  0.0000000E+00  0.1335255E+00  0.2049376E+01  0.6149100E-01 -0.1185239E+00
 -0.1600770E+02 -0.4855890E+01  0.0000000E+00  0.1285572E+00  0.2044788E+01  0.5867887E-01 -0.1143842E+00
 -0.1545470E+02 -0.6401530E+01  0.0000000E+00  0.1235127E+00  0.2037760E+01  0.5560262E-01 -0.1102894E+00
 -0.1475280E+02 -0.7885530E+01  0.0000000E+00  0.1185230E+00  0.2026885E+01  0.5220224E-01 -0.1064078E+00
 -0.1390880E+02 -0.9293580E+01  0.0000000E+00  0.1139930E+00  0.2010598E+01  0.4853363E-01 -0.1031449E+00
 -0.1293090E+02 -0.1061210E+02  0.0000000E+00  0.1092175E+00  0.1992594E+01  0.4471375E-01 -0.9964508E-01
 -0.1182850E+02 -0.1182850E+02  0.0000000E+00  0.1013067E+00  0.1989143E+01  0.4115593E-01 -0.9257021E-01
 -0.1061210E+02 -0.1293090E+02  0.0000000E+00  0.9297527E-01  0.1984643E+01  0.3738858E-01 -0.8512636E-01
 -0.9293580E+01 -0.1390880E+02  0.0000000E+00  0.8330781E-01  0.1986414E+01  0.3363597E-01 -0.7621557E-01
 -0.7885520E+01 -0.1475280E+02  0.0000000E+00  0.6975692E-01  0.2020844E+01  0.3034487E-01 -0.6281096E-01
 -0.6401520E+01 -0.1545470E+02  0.0000000E+00  0.5398768E-01  0.2103496E+01  0.2741821E-01 -0.4650711E-01
 -0.4855880E+01 -0.1600770E+02  0.0000000E+00  0.3373667E-01  0.2438384E+01  0.2573335E-01 -0.2181645E-01
 -0.3263470E+01 -0.1640660E+02  0.0000000E+00  0.3329219E-01 -0.2509324E+01  0.2685644E-01  0.1967490E-01
 -0.1639630E+01 -0.1664750E+02  0.0000000E+00  0.8337624E-01 -0.1945681E+01  0.3052950E-01  0.7758573E-01
  0.1994790E-06 -0.1672800E+02  0.0000000E+00  0.1315574E+00 -0.1811180E+01  0.3132052E-01  0.1277747E+00
  0.1639640E+01 -0.1664750E+02  0.0000000E+00  0.1679253E+00 -0.1734159E+01  0.2731087E-01  0.1656896E+00
  0.3263470E+01 -0.1640660E+02  0.0000000E+00  0.1938599E+00 -0.1668428E+01  0.1889677E-01  0.1929367E+00
  0.4855890E+01 -0.1600770E+02  0.0000000E+00  0.2079541E+00 -0.1615605E+01  0.9315052E-02  0.2077453E+00
  0.6401530E+01 -0.1545470E+02  0.0000000E+00  0.2148331E+00 -0.1573509E+01  0.5827261E-03  0.2148323E+00
  0.7885520E+01 -0.1475280E+02  0.0000000E+00  0.2181181E+00 -0.1536949E+01 -0.7381402E-02  0.2179931E+00
  0.9293580E+01 -0.1390880E+02  0.0000000E+00  0.2216931E+00 -0.1506445E+01 -0.1425631E-01  0.2212342E+00
  0.1061210E+02 -0.1293090E+02  0.0000000E+00  0.2229849E+00 -0.1478709E+01 -0.2050510E-01  0.2220401E+00
  0.1182850E+02 -0.1182850E+02  0.0000000E+00  0.2237134E+00 -0.1453887E+01 -0.2609466E-01  0.2221863E+00
  0.1293090E+02 -0.1061210E+02  0.0000000E+00  0.2242620E+00 -0.1431926E+01 -0.3104344E-01  0.2221030E+00
  0.1390880E+02 -0.9293580E+01  0.0000000E+00  0.2224746E+00 -0.1410694E+01 -0.3546669E-01  0.2196294E+00
  0.1475280E+02 -0.7885520E+01  0.0000000E+00  0.2213587E+00 -0.1392769E+01 -0.3920012E-01  0.2178601E+00
  0.1545470E+02 -0.6401530E+01  0.0000000E+00  0.2211679E+00 -0.1378127E+01 -0.4234921E-01  0.2170756E+00
  0.1600770E+02 -0.4855880E+01  0.0000000E+00  0.2210300E+00 -0.1365882E+01 -0.4497597E-01  0.2164057E+00
  0.1640660E+02 -0.3263470E+01  0.0000000E+00  0.2208131E+00 -0.1356121E+01 -0.4703980E-01  0.2157445E+00
  0.1664750E+02 -0.1639620E+01  0.0000000E+00  0.2199725E+00 -0.1348518E+01 -0.4849358E-01  0.2145607E+00
  0.1672800E+02  0.0000000E+00 -0.2568960E-01  0.2181600E+00 -0.1342877E+01 -0.4929354E-01  0.2125181E+00
  0.1664750E+02  0.1639630E+01 -0.2568960E-01  0.2156302E+00 -0.1339145E+01 -0.4950552E-01  0.2098704E+00
  0.1640660E+02  0.3263470E+01 -0.2568960E-01  0.2122114E+00 -0.1337502E+01 -0.4905976E-01  0.2064627E+00
  0.1600770E+02  0.4855880E+01 -0.2568960E-01  0.2078579E+00 -0.1338096E+01 -0.4793318E-01  0.2022555E+00
  0.1545470E+02  0.6401530E+01 -0.2568960E-01  0.2034570E+00 -0.1340654E+01 -0.4641178E-01  0.1980927E+00
  0.1475280E+02  0.7885530E+01 -0.2568960E-01  0.1992093E+00 -0.1344939E+01 -0.4461128E-01  0.1941499E+00
  0.1390880E+02  0.9293580E+01 -0.2568960E-01  0.1955331E+00 -0.1351006E+01 -0.4263112E-01  0.1908292E+00
  0.1293090E+02  0.1061210E+02 -0.2568960E-01  0.1915543E+00 -0.1358986E+01 -0.4027044E-01  0.1872734E+00
  0.1182850E+02  0.1182850E+02 -0.2568960E-01  0.1838066E+00 -0.1370925E+01 -0.3649351E-01  0.1801474E+00
  0.1061210E+02  0.1293090E+02 -0.2568960E-01  0.1756594E+00 -0.1384966E+01 -0.3245525E-01  0.1726351E+00
  0.9293580E+01  0.1390880E+02 -0.2568960E-01  0.1659792E+00 -0.1402501E+01 -0.2780184E-01  0.1636342E+00
  0.7885520E+01  0.1475280E+02 -0.2568960E-01  0.1516834E+00 -0.1427945E+01 -0.2159462E-01  0.1501383E+00
  0.6401530E+01  0.1545470E+02 -0.2568960E-01  0.1344621E+00 -0.1463179E+01 -0.1444250E-01  0.1336842E+00
  0.4855880E+01  0.1600770E+02 -0.2568960E-01  0.1088804E+00 -0.1530107E+01 -0.4429054E-02  0.1087902E+00
  0.3263470E+01  0.1640660E+02 -0.2568960E-01  0.6798520E-01 -0.1739618E+01  0.1142293E-01  0.6701868E-01
  0.1639630E+01  0.1664750E+02 -0.2568960E-01  0.3436712E-01 -0.2882060E+01  0.3321617E-01  0.8819585E-02
 -0.7312040E-06  0.1672800E+02 -0.2568960E-01  0.6653952E-01  0.2469534E+01  0.5206994E-01 -0.4142739E-01
 -0.1639630E+01  0.1664750E+02 -0.2568960E-01  0.1026915E+00  0.2262529E+01  0.6550406E-01 -0.7908706E-01
 -0.3263470E+01  0.1640660E+02 -0.2568960E-01  0.1288875E+00  0.2178341E+01  0.7357581E-01 -0.1058234E+00
 -0.4855880E+01  0.1600770E+02 -0.2568960E-01  0.1426777E+00  0.2140012E+01  0.7689922E-01 -0.1201809E+00
 -0.6401530E+01  0.1545470E+02 -0.2568960E-01  0.1490317E+00  0.2121949E+01  0.7804336E-01 -0.1269634E+00
 -0.7885530E+01  0.1475280E+02 -0.2568960E-01  0.1516259E+00  0.2112581E+01  0.7818834E-01 -0.1299115E+00
 -0.9293580E+01  0.1390880E+02 -0.2568960E-01  0.1544981E+00  0.2104897E+01  0.7864988E-01 -0.1329807E+00
 -0.1061210E+02  0.1293090E+02 -0.2568960E-01  0.1549950E+00  0.2101435E+01  0.7844052E-01 -0.1336807E+00
 -0.1182850E+02  0.1182850E+02 -0.2568960E-01  0.1548663E+00  0.2099112E+01  0.7806487E-01 -0.1337514E+00
 -0.1293090E+02  0.1061210E+02 -0.2568960E-01  0.1545345E+00  0.2097193E+01  0.7764144E-01 -0.1336141E+00
 -0.1390880E+02  0.9293580E+01 -0.2568960E-01  0.1517834E+00  0.2098446E+01  0.7642351E-01 -0.1311398E+00
 -0.1475280E+02  0.7885520E+01 -0.2568960E-01  0.1496442E+00  0.2097177E+01  0.7518231E-01 -0.1293870E+00
 -0.1545470E+02  0.6401530E+01 -0.2568960E-01  0.1483424E+00  0.2092374E+01  0.7391134E-01 -0.1286180E+00
 -0.1600770E+02  0.4855880E+01 -0.2568960E-01  0.1470358E+00  0.2085855E+01  0.7242782E-01 -0.1279599E+00
 -0.1640660E+02  0.3263470E+01 -0.2568960E-01  0.1456531E+00  0.2078016E+01  0.7075079E-01 -0.1273152E+00
 -0.1664750E+02  0.1639630E+01 -0.2568960E-01  0.1437050E+00  0.2070080E+01  0.6880543E-01 -0.1261624E+00
 -0.1672800E+02 -0.1462410E-05 -0.2568960E-01  0.1410598E+00  0.2062366E+01  0.6658159E-01 -0.1243573E+00
 -0.1664750E+02 -0.1639630E+01 -0.2568960E-01  0.1376087E+00  0.2055405E+01  0.6410675E-01 -0.1217640E+00
 -0.1640660E+02 -0.3263470E+01 -0.2568960E-01  0.1334091E+00  0.2049366E+01  0.6143627E-01 -0.1184211E+00
 -0.1600770E+02 -0.4855890E+01 -0.2568960E-01  0.1284502E+00  0.2044754E+01  0.5862607E-01 -0.1142910E+00
 -0.1545470E+02 -0.6401530E+01 -0.2568960E-01  0.1234123E+00  0.2037708E+01  0.5555163E-01 -0.1102026E+00
 -0.1475280E+02 -0.7885530E+01 -0.2568960E-01  0.1184265E+00  0.2026847E+01  0.5215570E-01 -0.1063232E+00
 -0.1390880E+02 -0.9293580E+01 -0.2568960E-01  0.1138934E+00  0.2010607E+01  0.4849214E-01 -0.1030544E+00
 -0.1293090E+02 -0.1061210E+02 -0.2568960E-01  0.1091134E+00  0.1992637E+01  0.4467547E-01 -0.9954817E-01
 -0.1182850E+02 -0.1182850E+02 -0.2568960E-01  0.1012201E+00  0.1989134E+01  0.4111984E-01 -0.9249149E-01
 -0.1061210E+02 -0.1293090E+02 -0.2568960E-01  0.9289604E-01  0.1984640E+01  0.3735639E-01 -0.8505395E-01
 -0.9293580E+01 -0.1390880E+02 -0.2568960E-01  0.8323129E-01  0.1986467E+01  0.3360908E-01 -0.7614379E-01
 -0.7885520E+01 -0.1475280E+02 -0.2568960E-01  0.6970581E-01  0.2020799E+01  0.3031981E-01 -0.6276630E-01
 -0.6401520E+01 -0.1545470E+02 -0.2568960E-01  0.5394545E-01  0.2103485E+01  0.2739626E-01 -0.4647103E-01
 -0.4855880E+01 -0.1600770E+02 -0.2568960E-01  0.3370877E-01  0.2438468E+01  0.2571390E-01 -0.2179624E-01
 -0.3263470E+01 -0.1640660E+02 -0.2568960E-01  0.3325956E-01 -0.2509577E+01  0.2683509E-01  0.1964883E-01
 -0.1639630E+01 -0.1664750E+02 -0.2568960E-01  0.8329164E-01 -0.1945773E+01  0.3050560E-01  0.7750423E-01
  0.1994790E-06 -0.1672800E+02 -0.2568960E-01  0.1314424E+00 -0.1811216E+01  0.3129777E-01  0.1276618E+00
  0.1639640E+01 -0.1664750E+02 -0.2568960E-01  0.1677890E+00 -0.1734187E+01  0.2729336E-01  0.1655543E+00
  0.3263470E+01 -0.1640660E+02 -0.2568960E-01  0.1936945E+00 -0.1668453E+01  0.1888542E-01  0.1927716E+00
  0.4855890E+01 -0.1600770E+02 -0.2568960E-01  0.2077685E+00 -0.1615627E+01  0.9311225E-02  0.2075597E+00
  0.6401530E+01 -0.1545470E+02 -0.2568960E-01  0.2146423E+00 -0.1573528E+01  0.5862309E-03  0.2146415E+00
  0.7885520E+01 -0.1475280E+02 -0.2568960E-01  0.2179328E+00 -0.1536972E+01 -0.7370113E-02  0.2178081E+00
  0.9293580E+01 -0.1390880E+02 -0.2568960E-01  0.2214913E+00 -0.1506460E+01 -0.1424007E-01  0.2210330E+00
  0.1061210E+02 -0.1293090E+02 -0.2568960E-01  0.2227844E+00 -0.1478725E+01 -0.2048312E-01  0.2218408E+00
  0.1182850E+02 -0.1182850E+02 -0.2568960E-01  0.2235120E+00 -0.1453894E+01 -0.2606955E-01  0.2219865E+00
  0.1293090E+02 -0.1061210E+02 -0.2568960E-01  0.2240533E+00 -0.1431930E+01 -0.3101360E-01  0.2218965E+00
  0.1390880E+02 -0.9293580E+01 -0.2568960E-01  0.2222779E+00 -0.1410707E+01 -0.3543251E-01  0.2194356E+00
  0.1475280E+02 -0.7885520E+01 -0.2568960E-01  0.2211687E+00 -0.1392790E+01 -0.3916194E-01  0.2176739E+00
  0.1545470E+02 -0.6401530E+01 -0.2568960E-01  0.2209779E+00 -0.1378145E+01 -0.4230888E-01  0.2168898E+00
  0.1600770E+02 -0.4855880E+01 -0.2568960E-01  0.2208371E+00 -0.1365894E+01 -0.4493413E-01  0.2162174E+00
  0.1640660E+02 -0.3263470E+01 -0.2568960E-01  0.2206162E+00 -0.1356134E+01 -0.4699507E-01  0.2155527E+00
  0.1664750E+02 -0.1639620E+01 -0.2568960E-01  0.2197724E+00 -0.1348539E+01 -0.4844495E-01  0.2143665E+00
  0.1672800E+02  0.0000000E+00 -0.1027320E+00  0.2175786E+00 -0.1342911E+01 -0.4915483E-01  0.2119535E+00
  0.1664750E+02  0.1639630E+01 -0.1027320E+00  0.2150593E+00 -0.1339179E+01 -0.4936720E-01  0.2093165E+00
  0.1640660E+02  0.3263470E+01 -0.1027320E+00  0.2116615E+00 -0.1337530E+01 -0.4892690E-01  0.2059290E+00
  0.1600770E+02  0.4855880E+01 -0.1027320E+00  0.2073382E+00 -0.1338114E+01 -0.4780980E-01  0.2017508E+00
  0.1545470E+02  0.6401530E+01 -0.1027320E+00  0.2029577E+00 -0.1340666E+01 -0.4629551E-01  0.1976071E+00
  0.1475280E+02  0.7885530E+01 -0.1027320E+00  0.1987160E+00 -0.1344953E+01 -0.4449819E-01  0.1936698E+00
  0.1390880E+02  0.9293580E+01 -0.1027320E+00  0.1950215E+00 -0.1351035E+01 -0.4251408E-01  0.1903312E+00
  0.1293090E+02  0.1061210E+02 -0.1027320E+00  0.1910206E+00 -0.1359036E+01 -0.4014890E-01  0.1867536E+00
  0.1182850E+02  0.1182850E+02 -0.1027320E+00  0.1833306E+00 -0.1370951E+01 -0.3639429E-01  0.1796818E+00
  0.1061210E+02  0.1293090E+02 -0.1027320E+00  0.1752010E+00 -0.1384995E+01 -0.3236561E-01  0.1721855E+00
  0.9293580E+01  0.1390880E+02 -0.1027320E+00  0.1655234E+00 -0.1402551E+01 -0.2771732E-01  0.1631863E+00
  0.7885520E+01  0.1475280E+02 -0.1027320E+00  0.1513099E+00 -0.1427950E+01 -0.2154063E-01  0.1497688E+00
  0.6401530E+01  0.1545470E+02 -0.1027320E+00  0.1341137E+00 -0.1463223E+01 -0.1439925E-01  0.1333385E+00
  0.4855880E+01  0.1600770E+02 -0.1027320E+00  0.1085798E+00 -0.1530214E+01 -0.4405217E-02  0.1084904E+00
  0.3263470E+01  0.1640660E+02 -0.1027320E+00  0.6783500E-01 -0.1739508E+01  0.1139035E-01  0.6687187E-01
  0.1639630E+01  0.1664750E+02 -0.1027320E+00  0.3428243E-01 -0.2881370E+01  0.3312824E-01  0.8820721E-02
 -0.7312040E-06  0.1672800E+02 -0.1027320E+00  0.6638047E-01  0.2469525E+01  0.5194510E-01 -0.4132884E-01
 -0.1639630E+01  0.1664750E+02 -0.1027320E+00  0.1024690E+00  0.2262437E+01  0.6535494E-01 -0.7892168E-01
 -0.3263470E+01  0.1640660E+02 -0.1027320E+00  0.1285832E+00  0.2178318E+01  0.7339974E-01 -0.1055752E+00
 -0.4855880E+01  0.1600770E+02 -0.1027320E+00  0.1423045E+00  0.2140044E+01  0.7670200E-01 -0.1198640E+00
 -0.6401530E+01  0.1545470E+02 -0.1027320E+00  0.1486451E+00  0.2121958E+01  0.7784213E-01 -0.1266333E+00
 -0.7885530E+01  0.1475280E+02 -0.1027320E+00  0.1512623E+00  0.2112550E+01  0.7799685E-01 -0.1296023E+00
 -0.9293580E+01  0.1390880E+02 -0.1027320E+00  0.1540862E+00  0.2104912E+01  0.7844219E-01 -0.1326250E+00
 -0.1061210E+02  0.1293090E+02 -0.1027320E+00  0.1545926E+00  0.2101428E+01  0.7823601E-01 -0.1333342E+00
 -0.1182850E+02  0.1182850E+02 -0.1027320E+00  0.1544636E+00  0.2099101E+01  0.7786045E-01 -0.1334045E+00
 -0.1293090E+02  0.1061210E+02 -0.1027320E+00  0.1541127E+00  0.2097200E+01  0.7743037E-01 -0.1332488E+00
 -0.1390880E+02  0.9293580E+01 -0.1027320E+00  0.1514008E+00  0.2098393E+01  0.7622397E-01 -0.1308132E+00
 -0.1475280E+02  0.7885520E+01 -0.1027320E+00  0.1492865E+00  0.2097084E+01  0.7499065E-01 -0.1290847E+00
 -0.1545470E+02  0.6401530E+01 -0.1027320E+00  0.1479868E+00  0.2092288E+01  0.7372324E-01 -0.1283159E+00
 -0.1600770E+02  0.4855880E+01 -0.1027320E+00  0.1466756E+00  0.2085788E+01  0.7224183E-01 -0.1276513E+00
 -0.1640660E+02  0.3263470E+01 -0.1027320E+00  0.1452841E+00  0.2077976E+01  0.7056652E-01 -0.1269955E+00
 -0.1664750E+02  0.1639630E+01 -0.1027320E+00  0.1433323E+00  0.2070064E+01  0.6862502E-01 -0.1258362E+00
 -0.1672800E+02 -0.1462410E-05 -0.1027320E+00  0.1406901E+00  0.2062352E+01  0.6640542E-01 -0.1240323E+00
 -0.1664750E+02 -0.1639630E+01 -0.1027320E+00  0.1372519E+00  0.2055377E+01  0.6393698E-01 -0.1214501E+00
 -0.1640660E+02 -0.3263470E+01 -0.1027320E+00  0.1330719E+00  0.2049290E+01  0.6127200E-01 -0.1181265E+00
 -0.1600770E+02 -0.4855890E+01 -0.1027320E+00  0.1281408E+00  0.2044599E+01  0.5846722E-01 -0.1140248E+00
 -0.1545470E+02 -0.6401530E+01 -0.1027320E+00  0.1231239E+00  0.2037517E+01  0.5540081E-01 -0.1099556E+00
 -0.1475280E+02 -0.7885530E+01 -0.1027320E+00  0.1181470E+00  0.2026671E+01  0.5201390E-01 -0.1060814E+00
 -0.1390880E+02 -0.9293580E+01 -0.1027320E+00  0.1136041E+00  0.2010557E+01  0.4836389E-01 -0.1027950E+00
 -0.1293090E+02 -0.1061210E+02 -0.1027320E+00  0.1088101E+00  0.1992741E+01  0.4456153E-01 -0.9926681E-01
 -0.1182850E+02 -0.1182850E+02 -0.1027320E+00  0.1009680E+00  0.1989059E+01  0.4101050E-01 -0.9226412E-01
 -0.1061210E+02 -0.1293090E+02 -0.1027320E+00  0.9266403E-01  0.1984602E+01  0.3725987E-01 -0.8484294E-01
 -0.9293580E+01 -0.1390880E+02 -0.1027320E+00  0.8300576E-01  0.1986570E+01  0.3352583E-01 -0.7593402E-01
 -0.7885520E+01 -0.1475280E+02 -0.1027320E+00  0.6955322E-01  0.2020601E+01  0.3024098E-01 -0.6263492E-01
 -0.6401520E+01 -0.1545470E+02 -0.1027320E+00  0.5381883E-01  0.2103440E+01  0.2732988E-01 -0.4636318E-01
 -0.4855880E+01 -0.1600770E+02 -0.1027320E+00  0.3362561E-01  0.2438799E+01  0.2565768E-01 -0.2173397E-01
 -0.3263470E+01 -0.1640660E+02 -0.1027320E+00  0.3315376E-01 -0.2510571E+01  0.2676919E-01  0.1955971E-01
 -0.1639630E+01 -0.1664750E+02 -0.1027320E+00  0.8304469E-01 -0.1946022E+01  0.3043439E-01  0.7726686E-01
  0.1994790E-06 -0.1672800E+02 -0.1027320E+00  0.1311014E+00 -0.1811316E+01  0.3122938E-01  0.1273276E+00
  0.1639640E+01 -0.1664750E+02 -0.1027320E+00  0.1673850E+00 -0.1734265E+01  0.2724051E-01  0.1651535E+00
  0.3263470E+01 -0.1640660E+02 -0.1027320E+00  0.1932086E+00 -0.1668517E+01  0.1885051E-01  0.1922868E+00
  0.4855890E+01 -0.1600770E+02 -0.1027320E+00  0.2072126E+00 -0.1615686E+01  0.9298569E-02  0.2070039E+00
  0.6401530E+01 -0.1545470E+02 -0.1027320E+00  0.2140728E+00 -0.1573571E+01  0.5940739E-03  0.2140720E+00
  0.7885520E+01 -0.1475280E+02 -0.1027320E+00  0.2173831E+00 -0.1537043E+01 -0.7335941E-02  0.2172593E+00
  0.9293580E+01 -0.1390880E+02 -0.1027320E+00  0.2208946E+00 -0.1506499E+01 -0.1419320E-01  0.2204381E+00
  0.1061210E+02 -0.1293090E+02 -0.1027320E+00  0.2221949E+00 -0.1478761E+01 -0.2042092E-01  0.2212546E+00
  0.1182850E+02 -0.1182850E+02 -0.1027320E+00  0.2229200E+00 -0.1453930E+01 -0.2599263E-01  0.2213995E+00
  0.1293090E+02 -0.1061210E+02 -0.1027320E+00  0.2234416E+00 -0.1431947E+01 -0.3092506E-01  0.2212912E+00
  0.1390880E+02 -0.9293580E+01 -0.1027320E+00  0.2217025E+00 -0.1410752E+01 -0.3533097E-01  0.2188692E+00
