 VARIABLES="X" "Y" "Z" "abs(eta) (m)" "angle(phi) (rad)" "PRE1" "PRE2"
ZONE N=   3200 ,E =    3136 ,F=FEPOINT,ET=QUADRILATERAL
  0.1672800E+02  0.0000000E+00  0.0000000E+00  0.8265874E-01  0.2391753E+01  0.6048949E-01 -0.5633372E-01
  0.1664750E+02  0.1639630E+01  0.0000000E+00  0.8696101E-01  0.2393100E+01  0.6371769E-01 -0.5918001E-01
  0.1640660E+02  0.3263470E+01  0.0000000E+00  0.9116328E-01  0.2390368E+01  0.6662698E-01 -0.6222209E-01
  0.1600770E+02  0.4855880E+01  0.0000000E+00  0.9489953E-01  0.2390069E+01  0.6933830E-01 -0.6479291E-01
  0.1545470E+02  0.6401530E+01  0.0000000E+00  0.9810175E-01  0.2391718E+01  0.7178836E-01 -0.6686094E-01
  0.1475280E+02  0.7885530E+01  0.0000000E+00  0.1009914E+00  0.2393829E+01  0.7404805E-01 -0.6867426E-01
  0.1390880E+02  0.9293580E+01  0.0000000E+00  0.1039383E+00  0.2394370E+01  0.7624698E-01 -0.7063692E-01
  0.1293090E+02  0.1061210E+02  0.0000000E+00  0.1067898E+00  0.2393813E+01  0.7829832E-01 -0.7261843E-01
  0.1182850E+02  0.1182850E+02  0.0000000E+00  0.1095802E+00  0.2392808E+01  0.8026932E-01 -0.7459660E-01
  0.1061210E+02  0.1293090E+02  0.0000000E+00  0.1127931E+00  0.2390797E+01  0.8246826E-01 -0.7694980E-01
  0.9293580E+01  0.1390880E+02  0.0000000E+00  0.1160469E+00  0.2388099E+01  0.8463339E-01 -0.7939824E-01
  0.7885520E+01  0.1475280E+02  0.0000000E+00  0.1191811E+00  0.2387015E+01  0.8683074E-01 -0.8163682E-01
  0.6401530E+01  0.1545470E+02  0.0000000E+00  0.1209374E+00  0.2392528E+01  0.8856560E-01 -0.8235285E-01
  0.4855880E+01  0.1600770E+02  0.0000000E+00  0.1239580E+00  0.2400104E+01  0.9141455E-01 -0.8371960E-01
  0.3263470E+01  0.1640660E+02  0.0000000E+00  0.1254534E+00  0.2419452E+01  0.9413928E-01 -0.8292381E-01
  0.1639630E+01  0.1664750E+02  0.0000000E+00  0.1198467E+00  0.2461609E+01  0.9319077E-01 -0.7535730E-01
 -0.7312040E-06  0.1672800E+02  0.0000000E+00  0.9868596E-01  0.2556760E+01  0.8228481E-01 -0.5448053E-01
 -0.1639630E+01  0.1664750E+02  0.0000000E+00  0.6302769E-01  0.2850166E+01  0.6037012E-01 -0.1810907E-01
 -0.3263470E+01  0.1640660E+02  0.0000000E+00  0.4266512E-01 -0.2385914E+01  0.3105194E-01  0.2925901E-01
 -0.4855880E+01  0.1600770E+02  0.0000000E+00  0.6567257E-01 -0.1699141E+01  0.8405622E-02  0.6513242E-01
 -0.6401530E+01  0.1545470E+02  0.0000000E+00  0.8795201E-01 -0.1496394E+01 -0.6537785E-02  0.8770868E-01
 -0.7885530E+01  0.1475280E+02  0.0000000E+00  0.1052247E+00 -0.1401628E+01 -0.1771594E-01  0.1037226E+00
 -0.9293580E+01  0.1390880E+02  0.0000000E+00  0.1182339E+00 -0.1345209E+01 -0.2644643E-01  0.1152382E+00
 -0.1061210E+02  0.1293090E+02  0.0000000E+00  0.1287572E+00 -0.1305451E+01 -0.3376567E-01  0.1242509E+00
 -0.1182850E+02  0.1182850E+02  0.0000000E+00  0.1381975E+00 -0.1274398E+01 -0.4036438E-01  0.1321714E+00
 -0.1293090E+02  0.1061210E+02  0.0000000E+00  0.1456171E+00 -0.1251534E+01 -0.4570435E-01  0.1382587E+00
 -0.1390880E+02  0.9293580E+01  0.0000000E+00  0.1522833E+00 -0.1233296E+01 -0.5042549E-01  0.1436923E+00
 -0.1475280E+02  0.7885520E+01  0.0000000E+00  0.1591715E+00 -0.1218289E+01 -0.5495430E-01  0.1493840E+00
 -0.1545470E+02  0.6401530E+01  0.0000000E+00  0.1656775E+00 -0.1207382E+01 -0.5889299E-01  0.1548569E+00
 -0.1600770E+02  0.4855880E+01  0.0000000E+00  0.1708963E+00 -0.1200823E+01 -0.6179442E-01  0.1593330E+00
 -0.1640660E+02  0.3263470E+01  0.0000000E+00  0.1748834E+00 -0.1198015E+01 -0.6369380E-01  0.1628721E+00
 -0.1664750E+02  0.1639630E+01  0.0000000E+00  0.1778614E+00 -0.1198616E+01 -0.6467884E-01  0.1656844E+00
 -0.1672800E+02 -0.1462410E-05  0.0000000E+00  0.1804985E+00 -0.1201836E+01 -0.6509610E-01  0.1683514E+00
 -0.1664750E+02 -0.1639630E+01  0.0000000E+00  0.1832587E+00 -0.1207898E+01 -0.6505416E-01  0.1713234E+00
 -0.1640660E+02 -0.3263470E+01  0.0000000E+00  0.1860669E+00 -0.1216903E+01 -0.6448188E-01  0.1745364E+00
 -0.1600770E+02 -0.4855890E+01  0.0000000E+00  0.1881451E+00 -0.1228891E+01 -0.6308186E-01  0.1772548E+00
 -0.1545470E+02 -0.6401530E+01  0.0000000E+00  0.1894895E+00 -0.1243744E+01 -0.6087399E-01  0.1794454E+00
 -0.1475280E+02 -0.7885530E+01  0.0000000E+00  0.1903408E+00 -0.1262166E+01 -0.5781672E-01  0.1813473E+00
 -0.1390880E+02 -0.9293580E+01  0.0000000E+00  0.1911506E+00 -0.1284447E+01 -0.5399081E-01  0.1833673E+00
 -0.1293090E+02 -0.1061210E+02  0.0000000E+00  0.1918961E+00 -0.1309607E+01 -0.4955336E-01  0.1853877E+00
 -0.1182850E+02 -0.1182850E+02  0.0000000E+00  0.1925298E+00 -0.1338719E+01 -0.4428177E-01  0.1873683E+00
 -0.1061210E+02 -0.1293090E+02  0.0000000E+00  0.1933667E+00 -0.1374448E+01 -0.3772382E-01  0.1896512E+00
 -0.9293580E+01 -0.1390880E+02  0.0000000E+00  0.1943429E+00 -0.1414592E+01 -0.3023386E-01  0.1919768E+00
 -0.7885520E+01 -0.1475280E+02  0.0000000E+00  0.1952087E+00 -0.1460461E+01 -0.2149483E-01  0.1940217E+00
 -0.6401520E+01 -0.1545470E+02  0.0000000E+00  0.1947683E+00 -0.1511940E+01 -0.1145681E-01  0.1944310E+00
 -0.4855880E+01 -0.1600770E+02  0.0000000E+00  0.1953079E+00 -0.1577354E+01  0.1280739E-02  0.1953037E+00
 -0.3263470E+01 -0.1640660E+02  0.0000000E+00  0.1945296E+00 -0.1659637E+01  0.1725947E-01  0.1937625E+00
 -0.1639630E+01 -0.1664750E+02  0.0000000E+00  0.1883766E+00 -0.1750482E+01  0.3366667E-01  0.1853438E+00
  0.1994790E-06 -0.1672800E+02  0.0000000E+00  0.1692716E+00 -0.1819904E+01  0.4173210E-01  0.1640467E+00
  0.1639640E+01 -0.1664750E+02  0.0000000E+00  0.1339035E+00 -0.1873805E+01  0.3995590E-01  0.1278033E+00
  0.3263470E+01 -0.1640660E+02  0.0000000E+00  0.8679175E-01 -0.1937684E+01  0.3113325E-01  0.8101560E-01
  0.4855890E+01 -0.1600770E+02  0.0000000E+00  0.5219856E-01 -0.2075993E+01  0.2526302E-01  0.4567788E-01
  0.6401530E+01 -0.1545470E+02  0.0000000E+00  0.3337628E-01 -0.2363004E+01  0.2376076E-01  0.2343934E-01
  0.7885520E+01 -0.1475280E+02  0.0000000E+00  0.2581437E-01 -0.2842051E+01  0.2466490E-01  0.7617377E-02
  0.9293580E+01 -0.1390880E+02  0.0000000E+00  0.2692419E-01  0.3000851E+01  0.2665797E-01 -0.3776868E-02
  0.1061210E+02 -0.1293090E+02  0.0000000E+00  0.3195572E-01  0.2732387E+01  0.2931737E-01 -0.1271455E-01
  0.1182850E+02 -0.1182850E+02  0.0000000E+00  0.3823863E-01  0.2573563E+01  0.3223374E-01 -0.2057131E-01
  0.1293090E+02 -0.1061210E+02  0.0000000E+00  0.4455179E-01  0.2501409E+01  0.3572992E-01 -0.2661269E-01
  0.1390880E+02 -0.9293580E+01  0.0000000E+00  0.5068335E-01  0.2458315E+01  0.3930532E-01 -0.3199833E-01
  0.1475280E+02 -0.7885520E+01  0.0000000E+00  0.5686885E-01  0.2418776E+01  0.4264855E-01 -0.3761872E-01
  0.1545470E+02 -0.6401530E+01  0.0000000E+00  0.6300263E-01  0.2389909E+01  0.4602597E-01 -0.4302257E-01
  0.1600770E+02 -0.4855880E+01  0.0000000E+00  0.6865384E-01  0.2378561E+01  0.4961914E-01 -0.4744778E-01
  0.1640660E+02 -0.3263470E+01  0.0000000E+00  0.7374231E-01  0.2378808E+01  0.5330939E-01 -0.5095132E-01
  0.1664750E+02 -0.1639620E+01  0.0000000E+00  0.7833415E-01  0.2385618E+01  0.5699617E-01 -0.5373710E-01
  0.1672800E+02  0.0000000E+00 -0.2568960E-01  0.8256038E-01  0.2391796E+01  0.6041995E-01 -0.5626408E-01
  0.1664750E+02  0.1639630E+01 -0.2568960E-01  0.8685829E-01  0.2393150E+01  0.6364536E-01 -0.5910696E-01
  0.1640660E+02  0.3263470E+01 -0.2568960E-01  0.9105401E-01  0.2390412E+01  0.6654986E-01 -0.6214457E-01
  0.1600770E+02  0.4855880E+01 -0.2568960E-01  0.9478831E-01  0.2390112E+01  0.6925983E-01 -0.6471398E-01
  0.1545470E+02  0.6401530E+01 -0.2568960E-01  0.9799114E-01  0.2391739E+01  0.7170881E-01 -0.6678405E-01
  0.1475280E+02  0.7885530E+01 -0.2568960E-01  0.1008823E+00  0.2393825E+01  0.7396775E-01 -0.6860038E-01
  0.1390880E+02  0.9293580E+01 -0.2568960E-01  0.1038288E+00  0.2394348E+01  0.7616512E-01 -0.7056416E-01
  0.1293090E+02  0.1061210E+02 -0.2568960E-01  0.1066797E+00  0.2393792E+01  0.7821610E-01 -0.7254517E-01
  0.1182850E+02  0.1182850E+02 -0.2568960E-01  0.1094681E+00  0.2392789E+01  0.8018576E-01 -0.7452182E-01
  0.1061210E+02  0.1293090E+02 -0.2568960E-01  0.1126767E+00  0.2390774E+01  0.8238140E-01 -0.7687222E-01
  0.9293580E+01  0.1390880E+02 -0.2568960E-01  0.1159269E+00  0.2388086E+01  0.8454484E-01 -0.7931722E-01
  0.7885520E+01  0.1475280E+02 -0.2568960E-01  0.1190535E+00  0.2387010E+01  0.8673729E-01 -0.8154982E-01
  0.6401530E+01  0.1545470E+02 -0.2568960E-01  0.1208202E+00  0.2392493E+01  0.8847689E-01 -0.8227615E-01
  0.4855880E+01  0.1600770E+02 -0.2568960E-01  0.1238353E+00  0.2400086E+01  0.9132256E-01 -0.8363829E-01
  0.3263470E+01  0.1640660E+02 -0.2568960E-01  0.1253360E+00  0.2419419E+01  0.9404846E-01 -0.8284932E-01
  0.1639630E+01  0.1664750E+02 -0.2568960E-01  0.1197364E+00  0.2461575E+01  0.9310242E-01 -0.7529104E-01
 -0.7312040E-06  0.1672800E+02 -0.2568960E-01  0.9861260E-01  0.2556641E+01  0.8221713E-01 -0.5444987E-01
 -0.1639630E+01  0.1664750E+02 -0.2568960E-01  0.6298184E-01  0.2849882E+01  0.6032106E-01 -0.1811303E-01
 -0.3263470E+01  0.1640660E+02 -0.2568960E-01  0.4261826E-01 -0.2386120E+01  0.3102387E-01  0.2922046E-01
 -0.4855880E+01  0.1600770E+02 -0.2568960E-01  0.6560033E-01 -0.1699193E+01  0.8399715E-02  0.6506034E-01
 -0.6401530E+01  0.1545470E+02 -0.2568960E-01  0.8785757E-01 -0.1496409E+01 -0.6529449E-02  0.8761461E-01
 -0.7885530E+01  0.1475280E+02 -0.2568960E-01  0.1051091E+00 -0.1401652E+01 -0.1769395E-01  0.1036092E+00
 -0.9293580E+01  0.1390880E+02 -0.2568960E-01  0.1181072E+00 -0.1345219E+01 -0.2641694E-01  0.1151150E+00
 -0.1061210E+02  0.1293090E+02 -0.2568960E-01  0.1286220E+00 -0.1305454E+01 -0.3372977E-01  0.1241205E+00
 -0.1182850E+02  0.1182850E+02 -0.2568960E-01  0.1380462E+00 -0.1274411E+01 -0.4031850E-01  0.1320272E+00
 -0.1293090E+02  0.1061210E+02 -0.2568960E-01  0.1454621E+00 -0.1251539E+01 -0.4565496E-01  0.1381117E+00
 -0.1390880E+02  0.9293580E+01 -0.2568960E-01  0.1521228E+00 -0.1233298E+01 -0.5037207E-01  0.1435410E+00
 -0.1475280E+02  0.7885520E+01 -0.2568960E-01  0.1589971E+00 -0.1218295E+01 -0.5489315E-01  0.1492207E+00
 -0.1545470E+02  0.6401530E+01 -0.2568960E-01  0.1654863E+00 -0.1207398E+01 -0.5882262E-01  0.1546791E+00
 -0.1600770E+02  0.4855880E+01 -0.2568960E-01  0.1706940E+00 -0.1200835E+01 -0.6171948E-01  0.1591450E+00
 -0.1640660E+02  0.3263470E+01 -0.2568960E-01  0.1746755E+00 -0.1198018E+01 -0.6361762E-01  0.1626786E+00
 -0.1664750E+02  0.1639630E+01 -0.2568960E-01  0.1776519E+00 -0.1198613E+01 -0.6460314E-01  0.1654890E+00
 -0.1672800E+02 -0.1462410E-05 -0.2568960E-01  0.1802882E+00 -0.1201829E+01 -0.6502146E-01  0.1681548E+00
 -0.1664750E+02 -0.1639630E+01 -0.2568960E-01  0.1830456E+00 -0.1207891E+01 -0.6497967E-01  0.1711237E+00
 -0.1640660E+02 -0.3263470E+01 -0.2568960E-01  0.1858488E+00 -0.1216898E+01 -0.6440725E-01  0.1743315E+00
 -0.1600770E+02 -0.4855890E+01 -0.2568960E-01  0.1879262E+00 -0.1228886E+01 -0.6300922E-01  0.1770483E+00
 -0.1545470E+02 -0.6401530E+01 -0.2568960E-01  0.1892733E+00 -0.1243748E+01 -0.6080390E-01  0.1792409E+00
 -0.1475280E+02 -0.7885530E+01 -0.2568960E-01  0.1901286E+00 -0.1262175E+01 -0.5775065E-01  0.1811456E+00
 -0.1390880E+02 -0.9293580E+01 -0.2568960E-01  0.1909409E+00 -0.1284461E+01 -0.5392915E-01  0.1831668E+00
 -0.1293090E+02 -0.1061210E+02 -0.2568960E-01  0.1916873E+00 -0.1309623E+01 -0.4949636E-01  0.1851867E+00
 -0.1182850E+02 -0.1182850E+02 -0.2568960E-01  0.1923206E+00 -0.1338748E+01 -0.4422818E-01  0.1871659E+00
 -0.1061210E+02 -0.1293090E+02 -0.2568960E-01  0.1931567E+00 -0.1374465E+01 -0.3767955E-01  0.1894459E+00
 -0.9293580E+01 -0.1390880E+02 -0.2568960E-01  0.1941310E+00 -0.1414614E+01 -0.3019674E-01  0.1917681E+00
 -0.7885520E+01 -0.1475280E+02 -0.2568960E-01  0.1949926E+00 -0.1460473E+01 -0.2146856E-01  0.1938072E+00
 -0.6401520E+01 -0.1545470E+02 -0.2568960E-01  0.1945635E+00 -0.1511981E+01 -0.1143667E-01  0.1942271E+00
 -0.4855880E+01 -0.1600770E+02 -0.2568960E-01  0.1951000E+00 -0.1577393E+01  0.1286956E-02  0.1950957E+00
 -0.3263470E+01 -0.1640660E+02 -0.2568960E-01  0.1943288E+00 -0.1659688E+01  0.1725149E-01  0.1935616E+00
 -0.1639630E+01 -0.1664750E+02 -0.2568960E-01  0.1881837E+00 -0.1750551E+01  0.3364500E-01  0.1851517E+00
  0.1994790E-06 -0.1672800E+02 -0.2568960E-01  0.1691142E+00 -0.1819990E+01  0.4170731E-01  0.1638905E+00
  0.1639640E+01 -0.1664750E+02 -0.2568960E-01  0.1337789E+00 -0.1873877E+01  0.3992788E-01  0.1276815E+00
  0.3263470E+01 -0.1640660E+02 -0.2568960E-01  0.8670101E-01 -0.1937768E+01  0.3110747E-01  0.8092831E-01
  0.4855890E+01 -0.1600770E+02 -0.2568960E-01  0.5214038E-01 -0.2076114E+01  0.2524041E-01  0.4562391E-01
  0.6401530E+01 -0.1545470E+02 -0.2568960E-01  0.3333829E-01 -0.2363233E+01  0.2373906E-01  0.2340722E-01
  0.7885520E+01 -0.1475280E+02 -0.2568960E-01  0.2578708E-01 -0.2842244E+01  0.2464030E-01  0.7604566E-02
  0.9293580E+01 -0.1390880E+02 -0.2568960E-01  0.2689722E-01  0.3000579E+01  0.2663024E-01 -0.3780305E-02
  0.1061210E+02 -0.1293090E+02 -0.2568960E-01  0.3192527E-01  0.2732100E+01  0.2928578E-01 -0.1271086E-01
  0.1182850E+02 -0.1182850E+02 -0.2568960E-01  0.3820227E-01  0.2573496E+01  0.3220170E-01 -0.2055392E-01
  0.1293090E+02 -0.1061210E+02 -0.2568960E-01  0.4450818E-01  0.2501251E+01  0.3569073E-01 -0.2659229E-01
  0.1390880E+02 -0.9293580E+01 -0.2568960E-01  0.5063388E-01  0.2458154E+01  0.3926181E-01 -0.3197342E-01
  0.1475280E+02 -0.7885520E+01 -0.2568960E-01  0.5680963E-01  0.2418715E+01  0.4260182E-01 -0.3758217E-01
  0.1545470E+02 -0.6401530E+01 -0.2568960E-01  0.6293197E-01  0.2389970E+01  0.4597694E-01 -0.4297154E-01
  0.1600770E+02 -0.4855880E+01 -0.2568960E-01  0.6857283E-01  0.2378666E+01  0.4956559E-01 -0.4738656E-01
  0.1640660E+02 -0.3263470E+01 -0.2568960E-01  0.7365353E-01  0.2378910E+01  0.5325040E-01 -0.5088454E-01
  0.1664750E+02 -0.1639620E+01 -0.2568960E-01  0.7824029E-01  0.2385689E+01  0.5693170E-01 -0.5366865E-01
  0.1672800E+02  0.0000000E+00 -0.1027320E+00  0.8226613E-01  0.2391974E+01  0.6021461E-01 -0.5605280E-01
  0.1664750E+02  0.1639630E+01 -0.1027320E+00  0.8654720E-01  0.2393292E+01  0.6342581E-01 -0.5888620E-01
  0.1640660E+02  0.3263470E+01 -0.1027320E+00  0.9072749E-01  0.2390582E+01  0.6632177E-01 -0.6191043E-01
  0.1600770E+02  0.4855880E+01 -0.1027320E+00  0.9445347E-01  0.2390251E+01  0.6902414E-01 -0.6447577E-01
  0.1545470E+02  0.6401530E+01 -0.1027320E+00  0.9765817E-01  0.2391817E+01  0.7147034E-01 -0.6655156E-01
  0.1475280E+02  0.7885530E+01 -0.1027320E+00  0.1005541E+00  0.2393826E+01  0.7372718E-01 -0.6837706E-01
  0.1390880E+02  0.9293580E+01 -0.1027320E+00  0.1034993E+00  0.2394304E+01  0.7592028E-01 -0.7034354E-01
  0.1293090E+02  0.1061210E+02 -0.1027320E+00  0.1063471E+00  0.2393732E+01  0.7796788E-01 -0.7232369E-01
  0.1182850E+02  0.1182850E+02 -0.1027320E+00  0.1091292E+00  0.2392730E+01  0.7993321E-01 -0.7429581E-01
  0.1061210E+02  0.1293090E+02 -0.1027320E+00  0.1123255E+00  0.2390710E+01  0.8211967E-01 -0.7663792E-01
  0.9293580E+01  0.1390880E+02 -0.1027320E+00  0.1155626E+00  0.2388038E+01  0.8427533E-01 -0.7907199E-01
  0.7885520E+01  0.1475280E+02 -0.1027320E+00  0.1186692E+00  0.2386996E+01  0.8645616E-01 -0.8128777E-01
  0.6401530E+01  0.1545470E+02 -0.1027320E+00  0.1204688E+00  0.2392401E+01  0.8821196E-01 -0.8204494E-01
  0.4855880E+01  0.1600770E+02 -0.1027320E+00  0.1234626E+00  0.2400020E+01  0.9104218E-01 -0.8339264E-01
  0.3263470E+01  0.1640660E+02 -0.1027320E+00  0.1249807E+00  0.2419316E+01  0.9377335E-01 -0.8262413E-01
  0.1639630E+01  0.1664750E+02 -0.1027320E+00  0.1193973E+00  0.2461485E+01  0.9283203E-01 -0.7508616E-01
 -0.7312040E-06  0.1672800E+02 -0.1027320E+00  0.9837733E-01  0.2556314E+01  0.8200324E-01 -0.5434674E-01
 -0.1639630E+01  0.1664750E+02 -0.1027320E+00  0.6283938E-01  0.2849091E+01  0.6017031E-01 -0.1811966E-01
 -0.3263470E+01  0.1640660E+02 -0.1027320E+00  0.4248132E-01 -0.2386507E+01  0.3093544E-01  0.2911462E-01
 -0.4855880E+01  0.1600770E+02 -0.1027320E+00  0.6537988E-01 -0.1699338E+01  0.8380937E-02  0.6484049E-01
 -0.6401530E+01  0.1545470E+02 -0.1027320E+00  0.8757187E-01 -0.1496472E+01 -0.6502704E-02  0.8733011E-01
 -0.7885530E+01  0.1475280E+02 -0.1027320E+00  0.1047603E+00 -0.1401708E+01 -0.1762948E-01  0.1032663E+00
 -0.9293580E+01  0.1390880E+02 -0.1027320E+00  0.1177244E+00 -0.1345246E+01 -0.2632819E-01  0.1147426E+00
 -0.1061210E+02  0.1293090E+02 -0.1027320E+00  0.1282123E+00 -0.1305471E+01 -0.3362029E-01  0.1237258E+00
 -0.1182850E+02  0.1182850E+02 -0.1027320E+00  0.1375871E+00 -0.1274462E+01 -0.4017763E-01  0.1315902E+00
 -0.1293090E+02  0.1061210E+02 -0.1027320E+00  0.1449917E+00 -0.1251569E+01 -0.4550322E-01  0.1376664E+00
 -0.1390880E+02  0.9293580E+01 -0.1027320E+00  0.1516365E+00 -0.1233309E+01 -0.5020954E-01  0.1430826E+00
 -0.1475280E+02  0.7885520E+01 -0.1027320E+00  0.1584695E+00 -0.1218325E+01 -0.5470648E-01  0.1487272E+00
 -0.1545470E+02  0.6401530E+01 -0.1027320E+00  0.1649099E+00 -0.1207431E+01 -0.5861257E-01  0.1541423E+00
 -0.1600770E+02  0.4855880E+01 -0.1027320E+00  0.1700843E+00 -0.1200862E+01 -0.6149472E-01  0.1585783E+00
 -0.1640660E+02  0.3263470E+01 -0.1027320E+00  0.1740485E+00 -0.1198028E+01 -0.6338754E-01  0.1620953E+00
 -0.1664750E+02  0.1639630E+01 -0.1027320E+00  0.1770218E+00 -0.1198607E+01 -0.6437500E-01  0.1649017E+00
 -0.1672800E+02 -0.1462410E-05 -0.1027320E+00  0.1796561E+00 -0.1201810E+01 -0.6479666E-01  0.1675641E+00
 -0.1664750E+02 -0.1639630E+01 -0.1027320E+00  0.1824040E+00 -0.1207869E+01 -0.6475567E-01  0.1705225E+00
 -0.1640660E+02 -0.3263470E+01 -0.1027320E+00  0.1851940E+00 -0.1216883E+01 -0.6418297E-01  0.1737163E+00
 -0.1600770E+02 -0.4855890E+01 -0.1027320E+00  0.1872687E+00 -0.1228883E+01 -0.6278945E-01  0.1764286E+00
 -0.1545470E+02 -0.6401530E+01 -0.1027320E+00  0.1886236E+00 -0.1243762E+01 -0.6059271E-01  0.1786264E+00
 -0.1475280E+02 -0.7885530E+01 -0.1027320E+00  0.1894912E+00 -0.1262205E+01 -0.5755173E-01  0.1805400E+00
 -0.1390880E+02 -0.9293580E+01 -0.1027320E+00  0.1903107E+00 -0.1284497E+01 -0.5374450E-01  0.1825642E+00
 -0.1293090E+02 -0.1061210E+02 -0.1027320E+00  0.1910588E+00 -0.1309683E+01 -0.4932308E-01  0.1845825E+00
 -0.1182850E+02 -0.1182850E+02 -0.1027320E+00  0.1916917E+00 -0.1338824E+01 -0.4406953E-01  0.1865572E+00
 -0.1061210E+02 -0.1293090E+02 -0.1027320E+00  0.1925258E+00 -0.1374518E+01 -0.3754648E-01  0.1888292E+00
 -0.9293580E+01 -0.1390880E+02 -0.1027320E+00  0.1934942E+00 -0.1414667E+01 -0.3008762E-01  0.1911406E+00
 -0.7885520E+01 -0.1475280E+02 -0.1027320E+00  0.1943444E+00 -0.1460517E+01 -0.2138867E-01  0.1931638E+00
 -0.6401520E+01 -0.1545470E+02 -0.1027320E+00  0.1939489E+00 -0.1512095E+01 -0.1137847E-01  0.1936149E+00
 -0.4855880E+01 -0.1600770E+02 -0.1027320E+00  0.1944748E+00 -0.1577489E+01  0.1301621E-02  0.1944705E+00
 -0.3263470E+01 -0.1640660E+02 -0.1027320E+00  0.1937256E+00 -0.1659817E+01  0.1722274E-01  0.1929585E+00
 -0.1639630E+01 -0.1664750E+02 -0.1027320E+00  0.1876001E+00 -0.1750736E+01  0.3357479E-01  0.1845712E+00
  0.1994790E-06 -0.1672800E+02 -0.1027320E+00  0.1686307E+00 -0.1820222E+01  0.4162614E-01  0.1634123E+00
  0.1639640E+01 -0.1664750E+02 -0.1027320E+00  0.1334013E+00 -0.1874062E+01  0.3983871E-01  0.1273137E+00
  0.3263470E+01 -0.1640660E+02 -0.1027320E+00  0.8641998E-01 -0.1938000E+01  0.3102540E-01  0.8065877E-01
  0.4855890E+01 -0.1600770E+02 -0.1027320E+00  0.5196990E-01 -0.2076430E+01  0.2517225E-01  0.4546678E-01
  0.6401530E+01 -0.1545470E+02 -0.1027320E+00  0.3322656E-01 -0.2363871E+01  0.2367439E-01  0.2331367E-01
  0.7885520E+01 -0.1475280E+02 -0.1027320E+00  0.2570491E-01 -0.2842687E+01  0.2456514E-01  0.7569440E-02
  0.9293580E+01 -0.1390880E+02 -0.1027320E+00  0.2681639E-01  0.2999933E+01  0.2654777E-01 -0.3786121E-02
  0.1061210E+02 -0.1293090E+02 -0.1027320E+00  0.3183224E-01  0.2731397E+01  0.2919152E-01 -0.1269435E-01
  0.1182850E+02 -0.1182850E+02 -0.1027320E+00  0.3808793E-01  0.2573392E+01  0.3210321E-01 -0.2049572E-01
  0.1293090E+02 -0.1061210E+02 -0.1027320E+00  0.4437695E-01  0.2500921E+01  0.3557675E-01 -0.2652563E-01
  0.1390880E+02 -0.9293580E+01 -0.1027320E+00  0.5048248E-01  0.2457751E+01  0.3913155E-01 -0.3189361E-01
