 VARIABLES="X" "Y" "Z" "abs(eta) (m)" "angle(phi) (rad)" "PRE1" "PRE2"
ZONE N=   3200 ,E =    3136 ,F=FEPOINT,ET=QUADRILATERAL
  0.1672800E+02  0.0000000E+00  0.0000000E+00  0.1912952E+02 -0.4832600E+00 -0.1693890E+02  0.8888881E+01
  0.1664750E+02  0.1639630E+01  0.0000000E+00  0.1909189E+02 -0.4854790E+00 -0.1688585E+02  0.8908890E+01
  0.1640660E+02  0.3263470E+01  0.0000000E+00  0.1896535E+02 -0.4910899E+00 -0.1672401E+02  0.8943816E+01
  0.1600770E+02  0.4855880E+01  0.0000000E+00  0.1875103E+02 -0.4999512E+00 -0.1645601E+02  0.8988919E+01
  0.1545470E+02  0.6401530E+01  0.0000000E+00  0.1844924E+02 -0.5119438E+00 -0.1608393E+02  0.9037778E+01
  0.1475280E+02  0.7885530E+01  0.0000000E+00  0.1810873E+02 -0.5293554E+00 -0.1563024E+02  0.9144493E+01
  0.1390880E+02  0.9293580E+01  0.0000000E+00  0.1772135E+02 -0.5520632E+00 -0.1508874E+02  0.9293874E+01
  0.1293090E+02  0.1061210E+02  0.0000000E+00  0.1728854E+02 -0.5800348E+00 -0.1446089E+02  0.9475038E+01
  0.1182850E+02  0.1182850E+02  0.0000000E+00  0.1675000E+02 -0.6117915E+00 -0.1371189E+02  0.9620111E+01
  0.1061210E+02  0.1293090E+02  0.0000000E+00  0.1603578E+02 -0.6447702E+00 -0.1281640E+02  0.9637741E+01
  0.9293580E+01  0.1390880E+02  0.0000000E+00  0.1523670E+02 -0.6826475E+00 -0.1182224E+02  0.9612065E+01
  0.7885520E+01  0.1475280E+02  0.0000000E+00  0.1414165E+02 -0.7202136E+00 -0.1062978E+02  0.9327059E+01
  0.6401530E+01  0.1545470E+02  0.0000000E+00  0.1283772E+02 -0.7623866E+00 -0.9284108E+01  0.8866364E+01
  0.4855880E+01  0.1600770E+02  0.0000000E+00  0.1103894E+02 -0.8043160E+00 -0.7656651E+01  0.7951968E+01
  0.3263470E+01  0.1640660E+02  0.0000000E+00  0.8213383E+01 -0.8348688E+00 -0.5513438E+01  0.6087829E+01
  0.1639630E+01  0.1664750E+02  0.0000000E+00  0.4194065E+01 -0.8402936E+00 -0.2798465E+01  0.3123904E+01
 -0.7312040E-06  0.1672800E+02  0.0000000E+00  0.8352082E-05 -0.2557215E+01  0.6966100E-05  0.4607680E-05
 -0.1639630E+01  0.1664750E+02  0.0000000E+00  0.4194071E+01  0.2301297E+01  0.2798462E+01 -0.3123915E+01
 -0.3263470E+01  0.1640660E+02  0.0000000E+00  0.8213398E+01  0.2306722E+01  0.5513437E+01 -0.6087850E+01
 -0.4855880E+01  0.1600770E+02  0.0000000E+00  0.1103894E+02  0.2337275E+01  0.7656646E+01 -0.7951984E+01
 -0.6401530E+01  0.1545470E+02  0.0000000E+00  0.1283768E+02  0.2379202E+01  0.9284037E+01 -0.8866373E+01
 -0.7885530E+01  0.1475280E+02  0.0000000E+00  0.1414167E+02  0.2421382E+01  0.1062982E+02 -0.9327033E+01
 -0.9293580E+01  0.1390880E+02  0.0000000E+00  0.1523668E+02  0.2458946E+01  0.1182223E+02 -0.9612041E+01
 -0.1061210E+02  0.1293090E+02  0.0000000E+00  0.1603573E+02  0.2496818E+01  0.1281632E+02 -0.9637765E+01
 -0.1182850E+02  0.1182850E+02  0.0000000E+00  0.1675000E+02  0.2529799E+01  0.1371187E+02 -0.9620140E+01
 -0.1293090E+02  0.1061210E+02  0.0000000E+00  0.1728855E+02  0.2561560E+01  0.1446092E+02 -0.9475018E+01
 -0.1390880E+02  0.9293580E+01  0.0000000E+00  0.1772134E+02  0.2589528E+01  0.1508871E+02 -0.9293893E+01
 -0.1475280E+02  0.7885520E+01  0.0000000E+00  0.1810872E+02  0.2612238E+01  0.1563023E+02 -0.9144471E+01
 -0.1545470E+02  0.6401530E+01  0.0000000E+00  0.1844927E+02  0.2629646E+01  0.1608393E+02 -0.9037838E+01
 -0.1600770E+02  0.4855880E+01  0.0000000E+00  0.1875105E+02  0.2641639E+01  0.1645602E+02 -0.8988964E+01
 -0.1640660E+02  0.3263470E+01  0.0000000E+00  0.1896525E+02  0.2650499E+01  0.1672390E+02 -0.8943834E+01
 -0.1664750E+02  0.1639630E+01  0.0000000E+00  0.1909189E+02  0.2656112E+01  0.1688583E+02 -0.8908913E+01
 -0.1672800E+02 -0.1462410E-05  0.0000000E+00  0.1912946E+02  0.2658334E+01  0.1693887E+02 -0.8888823E+01
 -0.1664750E+02 -0.1639630E+01  0.0000000E+00  0.1909189E+02  0.2656112E+01  0.1688584E+02 -0.8908915E+01
 -0.1640660E+02 -0.3263470E+01  0.0000000E+00  0.1896524E+02  0.2650500E+01  0.1672389E+02 -0.8943813E+01
 -0.1600770E+02 -0.4855890E+01  0.0000000E+00  0.1875101E+02  0.2641640E+01  0.1645599E+02 -0.8988928E+01
 -0.1545470E+02 -0.6401530E+01  0.0000000E+00  0.1844927E+02  0.2629646E+01  0.1608393E+02 -0.9037846E+01
 -0.1475280E+02 -0.7885530E+01  0.0000000E+00  0.1810872E+02  0.2612239E+01  0.1563025E+02 -0.9144466E+01
 -0.1390880E+02 -0.9293580E+01  0.0000000E+00  0.1772134E+02  0.2589527E+01  0.1508871E+02 -0.9293900E+01
 -0.1293090E+02 -0.1061210E+02  0.0000000E+00  0.1728855E+02  0.2561560E+01  0.1446092E+02 -0.9475017E+01
 -0.1182850E+02 -0.1182850E+02  0.0000000E+00  0.1675000E+02  0.2529799E+01  0.1371187E+02 -0.9620144E+01
 -0.1061210E+02 -0.1293090E+02  0.0000000E+00  0.1603573E+02  0.2496819E+01  0.1281633E+02 -0.9637755E+01
 -0.9293580E+01 -0.1390880E+02  0.0000000E+00  0.1523667E+02  0.2458945E+01  0.1182221E+02 -0.9612052E+01
 -0.7885520E+01 -0.1475280E+02  0.0000000E+00  0.1414164E+02  0.2421381E+01  0.1062979E+02 -0.9327030E+01
 -0.6401520E+01 -0.1545470E+02  0.0000000E+00  0.1283767E+02  0.2379202E+01  0.9284037E+01 -0.8866364E+01
 -0.4855880E+01 -0.1600770E+02  0.0000000E+00  0.1103892E+02  0.2337277E+01  0.7656643E+01 -0.7951960E+01
 -0.3263470E+01 -0.1640660E+02  0.0000000E+00  0.8213408E+01  0.2306726E+01  0.5513466E+01 -0.6087836E+01
 -0.1639630E+01 -0.1664750E+02  0.0000000E+00  0.4194065E+01  0.2301299E+01  0.2798465E+01 -0.3123903E+01
  0.1994790E-06 -0.1672800E+02  0.0000000E+00  0.2367364E-04  0.4185249E+00 -0.2163036E-04 -0.9621280E-05
  0.1639640E+01 -0.1664750E+02  0.0000000E+00  0.4194124E+01 -0.8402845E+00 -0.2798533E+01  0.3123922E+01
  0.3263470E+01 -0.1640660E+02  0.0000000E+00  0.8213408E+01 -0.8348677E+00 -0.5513462E+01  0.6087842E+01
  0.4855890E+01 -0.1600770E+02  0.0000000E+00  0.1103893E+02 -0.8043170E+00 -0.7656641E+01  0.7951973E+01
  0.6401530E+01 -0.1545470E+02  0.0000000E+00  0.1283774E+02 -0.7623876E+00 -0.9284112E+01  0.8866385E+01
  0.7885520E+01 -0.1475280E+02  0.0000000E+00  0.1414164E+02 -0.7202131E+00 -0.1062978E+02  0.9327044E+01
  0.9293580E+01 -0.1390880E+02  0.0000000E+00  0.1523671E+02 -0.6826497E+00 -0.1182222E+02  0.9612096E+01
  0.1061210E+02 -0.1293090E+02  0.0000000E+00  0.1603575E+02 -0.6447706E+00 -0.1281638E+02  0.9637729E+01
  0.1182850E+02 -0.1182850E+02  0.0000000E+00  0.1675002E+02 -0.6117899E+00 -0.1371192E+02  0.9620097E+01
  0.1293090E+02 -0.1061210E+02  0.0000000E+00  0.1728852E+02 -0.5800350E+00 -0.1446087E+02  0.9475029E+01
  0.1390880E+02 -0.9293580E+01  0.0000000E+00  0.1772137E+02 -0.5520629E+00 -0.1508876E+02  0.9293881E+01
  0.1475280E+02 -0.7885520E+01  0.0000000E+00  0.1810875E+02 -0.5293546E+00 -0.1563026E+02  0.9144492E+01
  0.1545470E+02 -0.6401530E+01  0.0000000E+00  0.1844923E+02 -0.5119447E+00 -0.1608392E+02  0.9037787E+01
  0.1600770E+02 -0.4855880E+01  0.0000000E+00  0.1875109E+02 -0.4999500E+00 -0.1645608E+02  0.8988928E+01
  0.1640660E+02 -0.3263470E+01  0.0000000E+00  0.1896531E+02 -0.4910912E+00 -0.1672396E+02  0.8943818E+01
  0.1664750E+02 -0.1639620E+01  0.0000000E+00  0.1909187E+02 -0.4854801E+00 -0.1688583E+02  0.8908899E+01
  0.1672800E+02  0.0000000E+00 -0.2568960E-01  0.1909906E+02 -0.4832760E+00 -0.1691179E+02  0.8874998E+01
  0.1664750E+02  0.1639630E+01 -0.2568960E-01  0.1906159E+02 -0.4854987E+00 -0.1685888E+02  0.8895082E+01
  0.1640660E+02  0.3263470E+01 -0.2568960E-01  0.1893526E+02 -0.4911176E+00 -0.1669723E+02  0.8930091E+01
  0.1600770E+02  0.4855880E+01 -0.2568960E-01  0.1872163E+02 -0.4999855E+00 -0.1642990E+02  0.8975389E+01
  0.1545470E+02  0.6401530E+01 -0.2568960E-01  0.1842065E+02 -0.5119922E+00 -0.1605857E+02  0.9024552E+01
  0.1475280E+02  0.7885530E+01 -0.2568960E-01  0.1808070E+02 -0.5294034E+00 -0.1560561E+02  0.9131090E+01
  0.1390880E+02  0.9293580E+01 -0.2568960E-01  0.1769374E+02 -0.5521019E+00 -0.1506488E+02  0.9279980E+01
  0.1293090E+02  0.1061210E+02 -0.2568960E-01  0.1726114E+02 -0.5800531E+00 -0.1443780E+02  0.9460287E+01
  0.1182850E+02  0.1182850E+02 -0.2568960E-01  0.1672330E+02 -0.6118049E+00 -0.1368990E+02  0.9604958E+01
  0.1061210E+02  0.1293090E+02 -0.2568960E-01  0.1601051E+02 -0.6447925E+00 -0.1279599E+02  0.9622838E+01
  0.9293580E+01  0.1390880E+02 -0.2568960E-01  0.1521230E+02 -0.6826543E+00 -0.1180324E+02  0.9596753E+01
  0.7885520E+01  0.1475280E+02 -0.2568960E-01  0.1411989E+02 -0.7202448E+00 -0.1061313E+02  0.9313035E+01
  0.6401530E+01  0.1545470E+02 -0.2568960E-01  0.1281754E+02 -0.7624089E+00 -0.9269314E+01  0.8852631E+01
  0.4855880E+01  0.1600770E+02 -0.2568960E-01  0.1102177E+02 -0.8043439E+00 -0.7644523E+01  0.7939814E+01
  0.3263470E+01  0.1640660E+02 -0.2568960E-01  0.8201394E+01 -0.8349100E+00 -0.5505140E+01  0.6079169E+01
  0.1639630E+01  0.1664750E+02 -0.2568960E-01  0.4188156E+01 -0.8403435E+00 -0.2794367E+01  0.3119642E+01
 -0.7312040E-06  0.1672800E+02 -0.2568960E-01  0.5439772E-04  0.3103089E+00 -0.5179965E-04 -0.1661049E-04
 -0.1639630E+01  0.1664750E+02 -0.2568960E-01  0.4188136E+01  0.2301231E+01  0.2794297E+01 -0.3119678E+01
 -0.3263470E+01  0.1640660E+02 -0.2568960E-01  0.8201351E+01  0.2306678E+01  0.5505081E+01 -0.6079165E+01
 -0.4855880E+01  0.1600770E+02 -0.2568960E-01  0.1102182E+02  0.2337256E+01  0.7644615E+01 -0.7939796E+01
 -0.6401530E+01  0.1545470E+02 -0.2568960E-01  0.1281757E+02  0.2379186E+01  0.9269362E+01 -0.8852634E+01
 -0.7885530E+01  0.1475280E+02 -0.2568960E-01  0.1411986E+02  0.2421347E+01  0.1061310E+02 -0.9313030E+01
 -0.9293580E+01  0.1390880E+02 -0.2568960E-01  0.1521232E+02  0.2458938E+01  0.1180325E+02 -0.9596766E+01
 -0.1061210E+02  0.1293090E+02 -0.2568960E-01  0.1601048E+02  0.2496798E+01  0.1279594E+02 -0.9622853E+01
 -0.1182850E+02  0.1182850E+02 -0.2568960E-01  0.1672330E+02  0.2529787E+01  0.1368989E+02 -0.9604975E+01
 -0.1293090E+02  0.1061210E+02 -0.2568960E-01  0.1726116E+02  0.2561541E+01  0.1443783E+02 -0.9460279E+01
 -0.1390880E+02  0.9293580E+01 -0.2568960E-01  0.1769373E+02  0.2589489E+01  0.1506485E+02 -0.9279996E+01
 -0.1475280E+02  0.7885520E+01 -0.2568960E-01  0.1808069E+02  0.2612191E+01  0.1560561E+02 -0.9131063E+01
 -0.1545470E+02  0.6401530E+01 -0.2568960E-01  0.1842065E+02  0.2629602E+01  0.1605858E+02 -0.9024531E+01
 -0.1600770E+02  0.4855880E+01 -0.2568960E-01  0.1872161E+02  0.2641606E+01  0.1642988E+02 -0.8975399E+01
 -0.1640660E+02  0.3263470E+01 -0.2568960E-01  0.1893526E+02  0.2650475E+01  0.1669723E+02 -0.8930092E+01
 -0.1664750E+02  0.1639630E+01 -0.2568960E-01  0.1906152E+02  0.2656091E+01  0.1685878E+02 -0.8895100E+01
 -0.1672800E+02 -0.1462410E-05 -0.2568960E-01  0.1909904E+02  0.2658313E+01  0.1691173E+02 -0.8875051E+01
 -0.1664750E+02 -0.1639630E+01 -0.2568960E-01  0.1906153E+02  0.2656090E+01  0.1685879E+02 -0.8895122E+01
 -0.1640660E+02 -0.3263470E+01 -0.2568960E-01  0.1893525E+02  0.2650474E+01  0.1669721E+02 -0.8930106E+01
 -0.1600770E+02 -0.4855890E+01 -0.2568960E-01  0.1872162E+02  0.2641606E+01  0.1642989E+02 -0.8975410E+01
 -0.1545470E+02 -0.6401530E+01 -0.2568960E-01  0.1842065E+02  0.2629601E+01  0.1605858E+02 -0.9024535E+01
 -0.1475280E+02 -0.7885530E+01 -0.2568960E-01  0.1808070E+02  0.2612190E+01  0.1560562E+02 -0.9131072E+01
 -0.1390880E+02 -0.9293580E+01 -0.2568960E-01  0.1769371E+02  0.2589490E+01  0.1506484E+02 -0.9279979E+01
 -0.1293090E+02 -0.1061210E+02 -0.2568960E-01  0.1726114E+02  0.2561542E+01  0.1443782E+02 -0.9460248E+01
 -0.1182850E+02 -0.1182850E+02 -0.2568960E-01  0.1672330E+02  0.2529786E+01  0.1368989E+02 -0.9604987E+01
 -0.1061210E+02 -0.1293090E+02 -0.2568960E-01  0.1601047E+02  0.2496798E+01  0.1279594E+02 -0.9622837E+01
 -0.9293580E+01 -0.1390880E+02 -0.2568960E-01  0.1521229E+02  0.2458937E+01  0.1180322E+02 -0.9596757E+01
 -0.7885520E+01 -0.1475280E+02 -0.2568960E-01  0.1411985E+02  0.2421346E+01  0.1061310E+02 -0.9313028E+01
 -0.6401520E+01 -0.1545470E+02 -0.2568960E-01  0.1281757E+02  0.2379186E+01  0.9269356E+01 -0.8852637E+01
 -0.4855880E+01 -0.1600770E+02 -0.2568960E-01  0.1102181E+02  0.2337256E+01  0.7644608E+01 -0.7939791E+01
 -0.3263470E+01 -0.1640660E+02 -0.2568960E-01  0.8201324E+01  0.2306679E+01  0.5505069E+01 -0.6079140E+01
 -0.1639630E+01 -0.1664750E+02 -0.2568960E-01  0.4188121E+01  0.2301231E+01  0.2794287E+01 -0.3119667E+01
  0.1994790E-06 -0.1672800E+02 -0.2568960E-01  0.7209260E-04 -0.5197032E-01 -0.7199527E-04  0.3744989E-05
  0.1639640E+01 -0.1664750E+02 -0.2568960E-01  0.4188196E+01 -0.8403423E+00 -0.2794398E+01  0.3119668E+01
  0.3263470E+01 -0.1640660E+02 -0.2568960E-01  0.8201381E+01 -0.8349115E+00 -0.5505122E+01  0.6079168E+01
  0.4855890E+01 -0.1600770E+02 -0.2568960E-01  0.1102183E+02 -0.8043399E+00 -0.7644595E+01  0.7939827E+01
  0.6401530E+01 -0.1545470E+02 -0.2568960E-01  0.1281754E+02 -0.7624087E+00 -0.9269317E+01  0.8852629E+01
  0.7885520E+01 -0.1475280E+02 -0.2568960E-01  0.1411990E+02 -0.7202445E+00 -0.1061315E+02  0.9313042E+01
  0.9293580E+01 -0.1390880E+02 -0.2568960E-01  0.1521231E+02 -0.6826555E+00 -0.1180324E+02  0.9596773E+01
  0.1061210E+02 -0.1293090E+02 -0.2568960E-01  0.1601053E+02 -0.6447915E+00 -0.1279602E+02  0.9622838E+01
  0.1182850E+02 -0.1182850E+02 -0.2568960E-01  0.1672330E+02 -0.6118057E+00 -0.1368990E+02  0.9604971E+01
  0.1293090E+02 -0.1061210E+02 -0.2568960E-01  0.1726114E+02 -0.5800534E+00 -0.1443779E+02  0.9460286E+01
  0.1390880E+02 -0.9293580E+01 -0.2568960E-01  0.1769374E+02 -0.5521024E+00 -0.1506487E+02  0.9279985E+01
  0.1475280E+02 -0.7885520E+01 -0.2568960E-01  0.1808070E+02 -0.5294037E+00 -0.1560560E+02  0.9131094E+01
  0.1545470E+02 -0.6401530E+01 -0.2568960E-01  0.1842065E+02 -0.5119922E+00 -0.1605858E+02  0.9024555E+01
  0.1600770E+02 -0.4855880E+01 -0.2568960E-01  0.1872160E+02 -0.4999857E+00 -0.1642988E+02  0.8975378E+01
  0.1640660E+02 -0.3263470E+01 -0.2568960E-01  0.1893528E+02 -0.4911165E+00 -0.1669726E+02  0.8930082E+01
  0.1664750E+02 -0.1639620E+01 -0.2568960E-01  0.1906158E+02 -0.4854980E+00 -0.1685888E+02  0.8895065E+01
  0.1672800E+02  0.0000000E+00 -0.1027320E+00  0.1900904E+02 -0.4833685E+00 -0.1683125E+02  0.8834723E+01
  0.1664750E+02  0.1639630E+01 -0.1027320E+00  0.1897176E+02 -0.4855952E+00 -0.1677858E+02  0.8854783E+01
  0.1640660E+02  0.3263470E+01 -0.1027320E+00  0.1884653E+02 -0.4912275E+00 -0.1661801E+02  0.8890071E+01
  0.1600770E+02  0.4855880E+01 -0.1027320E+00  0.1863449E+02 -0.5001220E+00 -0.1635221E+02  0.8935845E+01
  0.1545470E+02  0.6401530E+01 -0.1027320E+00  0.1833594E+02 -0.5121586E+00 -0.1598324E+02  0.8985712E+01
  0.1475280E+02  0.7885530E+01 -0.1027320E+00  0.1799772E+02 -0.5295680E+00 -0.1553249E+02  0.9091740E+01
  0.1390880E+02  0.9293580E+01 -0.1027320E+00  0.1761193E+02 -0.5522404E+00 -0.1499394E+02  0.9239147E+01
  0.1293090E+02  0.1061210E+02 -0.1027320E+00  0.1717980E+02 -0.5801324E+00 -0.1436902E+02  0.9416845E+01
  0.1182850E+02  0.1182850E+02 -0.1027320E+00  0.1664396E+02 -0.6118641E+00 -0.1362439E+02  0.9560196E+01
  0.1061210E+02  0.1293090E+02 -0.1027320E+00  0.1593544E+02 -0.6448752E+00 -0.1273521E+02  0.9578774E+01
  0.9293580E+01  0.1390880E+02 -0.1027320E+00  0.1513962E+02 -0.6826854E+00 -0.1174655E+02  0.9551269E+01
  0.7885520E+01  0.1475280E+02 -0.1027320E+00  0.1405496E+02 -0.7203470E+00 -0.1056338E+02  0.9271292E+01
  0.6401530E+01  0.1545470E+02 -0.1027320E+00  0.1275749E+02 -0.7624655E+00 -0.9225388E+01  0.8811678E+01
  0.4855880E+01  0.1600770E+02 -0.1027320E+00  0.1097075E+02 -0.8044071E+00 -0.7608639E+01  0.7903545E+01
  0.3263470E+01  0.1640660E+02 -0.1027320E+00  0.8166159E+01 -0.8350692E+00 -0.5480525E+01  0.6053924E+01
  0.1639630E+01  0.1664750E+02 -0.1027320E+00  0.4170028E+01 -0.8405151E+00 -0.2781739E+01  0.3106616E+01
 -0.7312040E-06  0.1672800E+02 -0.1027320E+00  0.1078474E-04  0.2434043E+01  0.8195939E-05 -0.7009794E-05
 -0.1639630E+01  0.1664750E+02 -0.1027320E+00  0.4170044E+01  0.2301089E+01  0.2781786E+01 -0.3106596E+01
 -0.3263470E+01  0.1640660E+02 -0.1027320E+00  0.8166127E+01  0.2306522E+01  0.5480497E+01 -0.6053907E+01
 -0.4855880E+01  0.1600770E+02 -0.1027320E+00  0.1097075E+02  0.2337184E+01  0.7608626E+01 -0.7903561E+01
 -0.6401530E+01  0.1545470E+02 -0.1027320E+00  0.1275746E+02  0.2379127E+01  0.9225372E+01 -0.8811659E+01
 -0.7885530E+01  0.1475280E+02 -0.1027320E+00  0.1405497E+02  0.2421247E+01  0.1056341E+02 -0.9271286E+01
 -0.9293580E+01  0.1390880E+02 -0.1027320E+00  0.1513963E+02  0.2458908E+01  0.1174656E+02 -0.9551269E+01
 -0.1061210E+02  0.1293090E+02 -0.1027320E+00  0.1593548E+02  0.2496716E+01  0.1273523E+02 -0.9578812E+01
 -0.1182850E+02  0.1182850E+02 -0.1027320E+00  0.1664398E+02  0.2529728E+01  0.1362440E+02 -0.9560216E+01
 -0.1293090E+02  0.1061210E+02 -0.1027320E+00  0.1717983E+02  0.2561462E+01  0.1436905E+02 -0.9416842E+01
 -0.1390880E+02  0.9293580E+01 -0.1027320E+00  0.1761195E+02  0.2589351E+01  0.1499395E+02 -0.9239171E+01
 -0.1475280E+02  0.7885520E+01 -0.1027320E+00  0.1799776E+02  0.2612025E+01  0.1553252E+02 -0.9091757E+01
 -0.1545470E+02  0.6401530E+01 -0.1027320E+00  0.1833597E+02  0.2629436E+01  0.1598327E+02 -0.8985699E+01
 -0.1600770E+02  0.4855880E+01 -0.1027320E+00  0.1863453E+02  0.2641471E+01  0.1635225E+02 -0.8935855E+01
 -0.1640660E+02  0.3263470E+01 -0.1027320E+00  0.1884647E+02  0.2650365E+01  0.1661796E+02 -0.8890043E+01
 -0.1664750E+02  0.1639630E+01 -0.1027320E+00  0.1897171E+02  0.2655998E+01  0.1677854E+02 -0.8854748E+01
 -0.1672800E+02 -0.1462410E-05 -0.1027320E+00  0.1900903E+02  0.2658220E+01  0.1683121E+02 -0.8834795E+01
 -0.1664750E+02 -0.1639630E+01 -0.1027320E+00  0.1897168E+02  0.2655999E+01  0.1677851E+02 -0.8854721E+01
 -0.1640660E+02 -0.3263470E+01 -0.1027320E+00  0.1884646E+02  0.2650366E+01  0.1661796E+02 -0.8890026E+01
 -0.1600770E+02 -0.4855890E+01 -0.1027320E+00  0.1863453E+02  0.2641472E+01  0.1635226E+02 -0.8935844E+01
 -0.1545470E+02 -0.6401530E+01 -0.1027320E+00  0.1833596E+02  0.2629436E+01  0.1598327E+02 -0.8985684E+01
 -0.1475280E+02 -0.7885530E+01 -0.1027320E+00  0.1799776E+02  0.2612025E+01  0.1553253E+02 -0.9091757E+01
 -0.1390880E+02 -0.9293580E+01 -0.1027320E+00  0.1761195E+02  0.2589352E+01  0.1499396E+02 -0.9239161E+01
 -0.1293090E+02 -0.1061210E+02 -0.1027320E+00  0.1717983E+02  0.2561462E+01  0.1436906E+02 -0.9416840E+01
 -0.1182850E+02 -0.1182850E+02 -0.1027320E+00  0.1664397E+02  0.2529727E+01  0.1362439E+02 -0.9560219E+01
 -0.1061210E+02 -0.1293090E+02 -0.1027320E+00  0.1593548E+02  0.2496715E+01  0.1273521E+02 -0.9578823E+01
 -0.9293580E+01 -0.1390880E+02 -0.1027320E+00  0.1513961E+02  0.2458906E+01  0.1174653E+02 -0.9551272E+01
 -0.7885520E+01 -0.1475280E+02 -0.1027320E+00  0.1405494E+02  0.2421246E+01  0.1056337E+02 -0.9271276E+01
 -0.6401520E+01 -0.1545470E+02 -0.1027320E+00  0.1275744E+02  0.2379125E+01  0.9225334E+01 -0.8811669E+01
 -0.4855880E+01 -0.1600770E+02 -0.1027320E+00  0.1097071E+02  0.2337182E+01  0.7608582E+01 -0.7903538E+01
 -0.3263470E+01 -0.1640660E+02 -0.1027320E+00  0.8166121E+01  0.2306522E+01  0.5480489E+01 -0.6053907E+01
 -0.1639630E+01 -0.1664750E+02 -0.1027320E+00  0.4170034E+01  0.2301091E+01  0.2781785E+01 -0.3106583E+01
  0.1994790E-06 -0.1672800E+02 -0.1027320E+00  0.8130035E-05  0.2220552E+01  0.4918607E-05 -0.6473389E-05
  0.1639640E+01 -0.1664750E+02 -0.1027320E+00  0.4170053E+01 -0.8405174E+00 -0.2781748E+01  0.3106641E+01
  0.3263470E+01 -0.1640660E+02 -0.1027320E+00  0.8166134E+01 -0.8350729E+00 -0.5480485E+01  0.6053926E+01
  0.4855890E+01 -0.1600770E+02 -0.1027320E+00  0.1097074E+02 -0.8044080E+00 -0.7608624E+01  0.7903543E+01
  0.6401530E+01 -0.1545470E+02 -0.1027320E+00  0.1275748E+02 -0.7624676E+00 -0.9225364E+01  0.8811691E+01
  0.7885520E+01 -0.1475280E+02 -0.1027320E+00  0.1405495E+02 -0.7203478E+00 -0.1056337E+02  0.9271292E+01
  0.9293580E+01 -0.1390880E+02 -0.1027320E+00  0.1513962E+02 -0.6826875E+00 -0.1174653E+02  0.9551288E+01
  0.1061210E+02 -0.1293090E+02 -0.1027320E+00  0.1593547E+02 -0.6448756E+00 -0.1273522E+02  0.9578796E+01
  0.1182850E+02 -0.1182850E+02 -0.1027320E+00  0.1664396E+02 -0.6118639E+00 -0.1362440E+02  0.9560195E+01
  0.1293090E+02 -0.1061210E+02 -0.1027320E+00  0.1717983E+02 -0.5801318E+00 -0.1436904E+02  0.9416850E+01
  0.1390880E+02 -0.9293580E+01 -0.1027320E+00  0.1761196E+02 -0.5522401E+00 -0.1499397E+02  0.9239157E+01
