 VARIABLES="X" "Y" "Z" "abs(eta) (m)" "angle(phi) (rad)" "PRE1" "PRE2"
ZONE N=   3200 ,E =    3136 ,F=FEPOINT,ET=QUADRILATERAL
  0.1672800E+02  0.0000000E+00  0.0000000E+00  0.2111181E+00  0.2026673E+01  0.9294455E-01 -0.1895578E+00
  0.1664750E+02  0.1639630E+01  0.0000000E+00  0.2128906E+00  0.2032451E+01  0.9482796E-01 -0.1906044E+00
  0.1640660E+02  0.3263470E+01  0.0000000E+00  0.2136034E+00  0.2038005E+01  0.9620617E-01 -0.1907113E+00
  0.1600770E+02  0.4855880E+01  0.0000000E+00  0.2133813E+00  0.2043091E+01  0.9707369E-01 -0.1900217E+00
  0.1545470E+02  0.6401530E+01  0.0000000E+00  0.2130495E+00  0.2046718E+01  0.9761026E-01 -0.1893735E+00
  0.1475280E+02  0.7885530E+01  0.0000000E+00  0.2127662E+00  0.2048637E+01  0.9784321E-01 -0.1889342E+00
  0.1390880E+02  0.9293580E+01  0.0000000E+00  0.2135632E+00  0.2047200E+01  0.9793717E-01 -0.1897829E+00
  0.1293090E+02  0.1061210E+02  0.0000000E+00  0.2149063E+00  0.2043230E+01  0.9779405E-01 -0.1913662E+00
  0.1182850E+02  0.1182850E+02  0.0000000E+00  0.2124161E+00  0.2041997E+01  0.9642763E-01 -0.1892678E+00
  0.1061210E+02  0.1293090E+02  0.0000000E+00  0.2095680E+00  0.2040768E+01  0.9490519E-01 -0.1868469E+00
  0.9293580E+01  0.1390880E+02  0.0000000E+00  0.2055409E+00  0.2040321E+01  0.9299951E-01 -0.1832980E+00
  0.7885520E+01  0.1475280E+02  0.0000000E+00  0.1974149E+00  0.2043668E+01  0.8991157E-01 -0.1757514E+00
  0.6401530E+01  0.1545470E+02  0.0000000E+00  0.1885610E+00  0.2048205E+01  0.8663985E-01 -0.1674777E+00
  0.4855880E+01  0.1600770E+02  0.0000000E+00  0.1727775E+00  0.2061629E+01  0.8144052E-01 -0.1523795E+00
  0.3263470E+01  0.1640660E+02  0.0000000E+00  0.1432325E+00  0.2099023E+01  0.7218953E-01 -0.1237102E+00
  0.1639630E+01  0.1664750E+02  0.0000000E+00  0.9509737E-01  0.2210541E+01  0.5677225E-01 -0.7629168E-01
 -0.7312040E-06  0.1672800E+02  0.0000000E+00  0.4282126E-01  0.2671525E+01  0.3817676E-01 -0.1939575E-01
 -0.1639630E+01  0.1664750E+02  0.0000000E+00  0.5028762E-01 -0.1921970E+01  0.1729894E-01  0.4721855E-01
 -0.3263470E+01  0.1640660E+02  0.0000000E+00  0.1189540E+00 -0.1536172E+01 -0.4117894E-02  0.1188827E+00
 -0.4855880E+01  0.1600770E+02  0.0000000E+00  0.1696854E+00 -0.1455366E+01 -0.1954340E-01  0.1685562E+00
 -0.6401530E+01  0.1545470E+02  0.0000000E+00  0.1996455E+00 -0.1421250E+01 -0.2974501E-01  0.1974172E+00
 -0.7885530E+01  0.1475280E+02  0.0000000E+00  0.2191041E+00 -0.1399607E+01 -0.3732543E-01  0.2159014E+00
 -0.9293580E+01  0.1390880E+02  0.0000000E+00  0.2354730E+00 -0.1381887E+01 -0.4421889E-01  0.2312838E+00
 -0.1061210E+02  0.1293090E+02  0.0000000E+00  0.2460676E+00 -0.1367944E+01 -0.4957365E-01  0.2410222E+00
 -0.1182850E+02  0.1182850E+02  0.0000000E+00  0.2548305E+00 -0.1356237E+01 -0.5425774E-01  0.2489873E+00
 -0.1293090E+02  0.1061210E+02  0.0000000E+00  0.2631166E+00 -0.1346314E+01 -0.5857026E-01  0.2565148E+00
 -0.1390880E+02  0.9293580E+01  0.0000000E+00  0.2665696E+00 -0.1338434E+01 -0.6138496E-01  0.2594055E+00
 -0.1475280E+02  0.7885520E+01  0.0000000E+00  0.2699347E+00 -0.1332208E+01 -0.6379407E-01  0.2622882E+00
 -0.1545470E+02  0.6401530E+01  0.0000000E+00  0.2742223E+00 -0.1328002E+01 -0.6592748E-01  0.2661794E+00
 -0.1600770E+02  0.4855880E+01  0.0000000E+00  0.2786928E+00 -0.1325744E+01 -0.6761280E-01  0.2703668E+00
 -0.1640660E+02  0.3263470E+01  0.0000000E+00  0.2831005E+00 -0.1325438E+01 -0.6876628E-01  0.2746217E+00
 -0.1664750E+02  0.1639630E+01  0.0000000E+00  0.2863237E+00 -0.1326916E+01 -0.6913843E-01  0.2778509E+00
 -0.1672800E+02 -0.1462410E-05  0.0000000E+00  0.2883650E+00 -0.1330101E+01 -0.6873980E-01  0.2800521E+00
 -0.1664750E+02 -0.1639630E+01  0.0000000E+00  0.2891528E+00 -0.1334867E+01 -0.6758849E-01  0.2811426E+00
 -0.1640660E+02 -0.3263470E+01  0.0000000E+00  0.2888567E+00 -0.1341261E+01 -0.6572209E-01  0.2812807E+00
 -0.1600770E+02 -0.4855890E+01  0.0000000E+00  0.2876271E+00 -0.1349413E+01 -0.6315710E-01  0.2806074E+00
 -0.1545470E+02 -0.6401530E+01  0.0000000E+00  0.2863031E+00 -0.1360015E+01 -0.5990153E-01  0.2799665E+00
 -0.1475280E+02 -0.7885530E+01  0.0000000E+00  0.2850755E+00 -0.1373185E+01 -0.5596823E-01  0.2795274E+00
 -0.1390880E+02 -0.9293580E+01  0.0000000E+00  0.2850326E+00 -0.1389565E+01 -0.5137461E-01  0.2803645E+00
 -0.1293090E+02 -0.1061210E+02  0.0000000E+00  0.2856511E+00 -0.1408767E+01 -0.4608164E-01  0.2819096E+00
 -0.1182850E+02 -0.1182850E+02  0.0000000E+00  0.2826170E+00 -0.1428006E+01 -0.4021810E-01  0.2797407E+00
 -0.1061210E+02 -0.1293090E+02  0.0000000E+00  0.2792543E+00 -0.1450095E+01 -0.3362470E-01  0.2772225E+00
 -0.9293580E+01 -0.1390880E+02  0.0000000E+00  0.2748072E+00 -0.1474800E+01 -0.2634012E-01  0.2735420E+00
 -0.7885520E+01 -0.1475280E+02  0.0000000E+00  0.2664602E+00 -0.1501359E+01 -0.1848743E-01  0.2658180E+00
 -0.6401520E+01 -0.1545470E+02  0.0000000E+00  0.2574905E+00 -0.1532673E+01 -0.9814115E-02  0.2573034E+00
 -0.4855880E+01 -0.1600770E+02  0.0000000E+00  0.2418853E+00 -0.1568117E+01 -0.6481376E-03  0.2418844E+00
 -0.3263470E+01 -0.1640660E+02  0.0000000E+00  0.2129385E+00 -0.1611655E+01  0.8697911E-02  0.2127608E+00
 -0.1639630E+01 -0.1664750E+02  0.0000000E+00  0.1656941E+00 -0.1672448E+01  0.1681407E-01  0.1648388E+00
  0.1994790E-06 -0.1672800E+02  0.0000000E+00  0.1100762E+00 -0.1778968E+01  0.2274966E-01  0.1076997E+00
  0.1639640E+01 -0.1664750E+02  0.0000000E+00  0.4917084E-01 -0.2148849E+01  0.2686665E-01  0.4118197E-01
  0.3263470E+01 -0.1640660E+02  0.0000000E+00  0.4265014E-01  0.2357628E+01  0.3020141E-01 -0.3011494E-01
  0.4855890E+01 -0.1600770E+02  0.0000000E+00  0.8670191E-01  0.1983012E+01  0.3473629E-01 -0.7943936E-01
  0.6401530E+01 -0.1545470E+02  0.0000000E+00  0.1153154E+00  0.1927400E+01  0.4025586E-01 -0.1080606E+00
  0.7885520E+01 -0.1475280E+02  0.0000000E+00  0.1345065E+00  0.1920529E+01  0.4608825E-01 -0.1263640E+00
  0.9293580E+01 -0.1390880E+02  0.0000000E+00  0.1507636E+00  0.1921132E+01  0.5174406E-01 -0.1416058E+00
  0.1061210E+02 -0.1293090E+02  0.0000000E+00  0.1617347E+00  0.1933178E+01  0.5733530E-01 -0.1512309E+00
  0.1182850E+02 -0.1182850E+02  0.0000000E+00  0.1710051E+00  0.1946157E+01  0.6269179E-01 -0.1590990E+00
  0.1293090E+02 -0.1061210E+02  0.0000000E+00  0.1797676E+00  0.1956893E+01  0.6769612E-01 -0.1665342E+00
  0.1390880E+02 -0.9293580E+01  0.0000000E+00  0.1842264E+00  0.1975419E+01  0.7252473E-01 -0.1693504E+00
  0.1475280E+02 -0.7885520E+01  0.0000000E+00  0.1885780E+00  0.1991188E+01  0.7696215E-01 -0.1721584E+00
  0.1545470E+02 -0.6401530E+01  0.0000000E+00  0.1937162E+00  0.2002164E+01  0.8099539E-01 -0.1759708E+00
  0.1600770E+02 -0.4855880E+01  0.0000000E+00  0.1989555E+00  0.2009971E+01  0.8459433E-01 -0.1800752E+00
  0.1640660E+02 -0.3263470E+01  0.0000000E+00  0.2040902E+00  0.2015389E+01  0.8777719E-01 -0.1842498E+00
  0.1664750E+02 -0.1639620E+01  0.0000000E+00  0.2081510E+00  0.2020988E+01  0.9057448E-01 -0.1874116E+00
  0.1672800E+02  0.0000000E+00 -0.2568960E-01  0.2109256E+00  0.2026669E+01  0.9285916E-01 -0.1893853E+00
  0.1664750E+02  0.1639630E+01 -0.2568960E-01  0.2126995E+00  0.2032463E+01  0.9474508E-01 -0.1904323E+00
  0.1640660E+02  0.3263470E+01 -0.2568960E-01  0.2134167E+00  0.2038009E+01  0.9612280E-01 -0.1905442E+00
  0.1600770E+02  0.4855880E+01 -0.2568960E-01  0.2132006E+00  0.2043082E+01  0.9698988E-01 -0.1898617E+00
  0.1545470E+02  0.6401530E+01 -0.2568960E-01  0.2128726E+00  0.2046703E+01  0.9752638E-01 -0.1892178E+00
  0.1475280E+02  0.7885530E+01 -0.2568960E-01  0.2125908E+00  0.2048622E+01  0.9775975E-01 -0.1887800E+00
  0.1390880E+02  0.9293580E+01 -0.2568960E-01  0.2133762E+00  0.2047193E+01  0.9785011E-01 -0.1896174E+00
  0.1293090E+02  0.1061210E+02 -0.2568960E-01  0.2147037E+00  0.2043240E+01  0.9770389E-01 -0.1911848E+00
  0.1182850E+02  0.1182850E+02 -0.2568960E-01  0.2122280E+00  0.2042003E+01  0.9634338E-01 -0.1890996E+00
  0.1061210E+02  0.1293090E+02 -0.2568960E-01  0.2093835E+00  0.2040778E+01  0.9482341E-01 -0.1866814E+00
  0.9293580E+01  0.1390880E+02 -0.2568960E-01  0.2053536E+00  0.2040330E+01  0.9291637E-01 -0.1831301E+00
  0.7885520E+01  0.1475280E+02 -0.2568960E-01  0.1972561E+00  0.2043662E+01  0.8983818E-01 -0.1756105E+00
  0.6401530E+01  0.1545470E+02 -0.2568960E-01  0.1883967E+00  0.2048208E+01  0.8656484E-01 -0.1673315E+00
  0.4855880E+01  0.1600770E+02 -0.2568960E-01  0.1726252E+00  0.2061644E+01  0.8137101E-01 -0.1522440E+00
  0.3263470E+01  0.1640660E+02 -0.2568960E-01  0.1431175E+00  0.2099018E+01  0.7213096E-01 -0.1236113E+00
  0.1639630E+01  0.1664750E+02 -0.2568960E-01  0.9503343E-01  0.2210492E+01  0.5673031E-01 -0.7624319E-01
 -0.7312040E-06  0.1672800E+02 -0.2568960E-01  0.4278795E-01  0.2671526E+01  0.3814709E-01 -0.1938061E-01
 -0.1639630E+01  0.1664750E+02 -0.2568960E-01  0.5025743E-01 -0.1921838E+01  0.1728234E-01  0.4719248E-01
 -0.3263470E+01  0.1640660E+02 -0.2568960E-01  0.1188573E+00 -0.1536183E+01 -0.4113247E-02  0.1187861E+00
 -0.4855880E+01  0.1600770E+02 -0.2568960E-01  0.1695312E+00 -0.1455393E+01 -0.1952102E-01  0.1684035E+00
 -0.6401530E+01  0.1545470E+02 -0.2568960E-01  0.1994715E+00 -0.1421261E+01 -0.2971707E-01  0.1972455E+00
 -0.7885530E+01  0.1475280E+02 -0.2568960E-01  0.2189224E+00 -0.1399616E+01 -0.3729248E-01  0.2157228E+00
 -0.9293580E+01  0.1390880E+02 -0.2568960E-01  0.2352555E+00 -0.1381899E+01 -0.4417523E-01  0.2310708E+00
 -0.1061210E+02  0.1293090E+02 -0.2568960E-01  0.2458497E+00 -0.1367957E+01 -0.4952673E-01  0.2408094E+00
 -0.1182850E+02  0.1182850E+02 -0.2568960E-01  0.2546055E+00 -0.1356246E+01 -0.5420769E-01  0.2487679E+00
 -0.1293090E+02  0.1061210E+02 -0.2568960E-01  0.2628690E+00 -0.1346320E+01 -0.5851355E-01  0.2562738E+00
 -0.1390880E+02  0.9293580E+01 -0.2568960E-01  0.2663330E+00 -0.1338441E+01 -0.6132862E-01  0.2591757E+00
 -0.1475280E+02  0.7885520E+01 -0.2568960E-01  0.2697063E+00 -0.1332219E+01 -0.6373725E-01  0.2620669E+00
 -0.1545470E+02  0.6401530E+01 -0.2568960E-01  0.2739911E+00 -0.1328012E+01 -0.6586912E-01  0.2659556E+00
 -0.1600770E+02  0.4855880E+01 -0.2568960E-01  0.2784536E+00 -0.1325751E+01 -0.6755289E-01  0.2701352E+00
 -0.1640660E+02  0.3263470E+01 -0.2568960E-01  0.2828491E+00 -0.1325444E+01 -0.6870346E-01  0.2743783E+00
 -0.1664750E+02  0.1639630E+01 -0.2568960E-01  0.2860647E+00 -0.1326922E+01 -0.6907433E-01  0.2776000E+00
 -0.1672800E+02 -0.1462410E-05 -0.2568960E-01  0.2881024E+00 -0.1330104E+01 -0.6867634E-01  0.2797973E+00
 -0.1664750E+02 -0.1639630E+01 -0.2568960E-01  0.2888902E+00 -0.1334877E+01 -0.6752423E-01  0.2808879E+00
 -0.1640660E+02 -0.3263470E+01 -0.2568960E-01  0.2885996E+00 -0.1341276E+01 -0.6565955E-01  0.2810312E+00
 -0.1600770E+02 -0.4855890E+01 -0.2568960E-01  0.2873772E+00 -0.1349433E+01 -0.6309649E-01  0.2803650E+00
 -0.1545470E+02 -0.6401530E+01 -0.2568960E-01  0.2860584E+00 -0.1360040E+01 -0.5984333E-01  0.2797288E+00
 -0.1475280E+02 -0.7885530E+01 -0.2568960E-01  0.2848332E+00 -0.1373204E+01 -0.5591540E-01  0.2792909E+00
 -0.1390880E+02 -0.9293580E+01 -0.2568960E-01  0.2847804E+00 -0.1389576E+01 -0.5132599E-01  0.2801170E+00
 -0.1293090E+02 -0.1061210E+02 -0.2568960E-01  0.2853841E+00 -0.1408771E+01 -0.4603738E-01  0.2816463E+00
 -0.1182850E+02 -0.1182850E+02 -0.2568960E-01  0.2823641E+00 -0.1428017E+01 -0.4017905E-01  0.2794908E+00
 -0.1061210E+02 -0.1293090E+02 -0.2568960E-01  0.2790049E+00 -0.1450107E+01 -0.3359108E-01  0.2769754E+00
 -0.9293580E+01 -0.1390880E+02 -0.2568960E-01  0.2745566E+00 -0.1474810E+01 -0.2631336E-01  0.2732928E+00
 -0.7885520E+01 -0.1475280E+02 -0.2568960E-01  0.2662355E+00 -0.1501383E+01 -0.1846558E-01  0.2655944E+00
 -0.6401520E+01 -0.1545470E+02 -0.2568960E-01  0.2572627E+00 -0.1532687E+01 -0.9801663E-02  0.2570759E+00
 -0.4855880E+01 -0.1600770E+02 -0.2568960E-01  0.2416691E+00 -0.1568133E+01 -0.6435843E-03  0.2416683E+00
 -0.3263470E+01 -0.1640660E+02 -0.2568960E-01  0.2127592E+00 -0.1611680E+01  0.8696047E-02  0.2125814E+00
 -0.1639630E+01 -0.1664750E+02 -0.2568960E-01  0.1655650E+00 -0.1672467E+01  0.1680410E-01  0.1647100E+00
  0.1994790E-06 -0.1672800E+02 -0.2568960E-01  0.1099794E+00 -0.1779002E+01  0.2273330E-01  0.1076042E+00
  0.1639640E+01 -0.1664750E+02 -0.2568960E-01  0.4911374E-01 -0.2149110E+01  0.2684619E-01  0.4112713E-01
  0.3263470E+01 -0.1640660E+02 -0.2568960E-01  0.4262276E-01  0.2357481E+01  0.3017758E-01 -0.3010004E-01
  0.4855890E+01 -0.1600770E+02 -0.2568960E-01  0.8662605E-01  0.1983053E+01  0.3470913E-01 -0.7936843E-01
  0.6401530E+01 -0.1545470E+02 -0.2568960E-01  0.1152186E+00  0.1927395E+01  0.4022150E-01 -0.1079701E+00
  0.7885520E+01 -0.1475280E+02 -0.2568960E-01  0.1344019E+00  0.1920493E+01  0.4604775E-01 -0.1262675E+00
  0.9293580E+01 -0.1390880E+02 -0.2568960E-01  0.1506251E+00  0.1921154E+01  0.5169960E-01 -0.1414747E+00
  0.1061210E+02 -0.1293090E+02 -0.2568960E-01  0.1615948E+00  0.1933174E+01  0.5728510E-01 -0.1511003E+00
  0.1182850E+02 -0.1182850E+02 -0.2568960E-01  0.1708568E+00  0.1946152E+01  0.6263668E-01 -0.1589613E+00
  0.1293090E+02 -0.1061210E+02 -0.2568960E-01  0.1795963E+00  0.1956920E+01  0.6763604E-01 -0.1663737E+00
  0.1390880E+02 -0.9293580E+01 -0.2568960E-01  0.1840657E+00  0.1975421E+01  0.7246178E-01 -0.1692025E+00
  0.1475280E+02 -0.7885520E+01 -0.2568960E-01  0.1884222E+00  0.1991159E+01  0.7689357E-01 -0.1720183E+00
  0.1545470E+02 -0.6401530E+01 -0.2568960E-01  0.1935577E+00  0.2002131E+01  0.8092324E-01 -0.1758295E+00
  0.1600770E+02 -0.4855880E+01 -0.2568960E-01  0.1987874E+00  0.2009940E+01  0.8451734E-01 -0.1799257E+00
  0.1640660E+02 -0.3263470E+01 -0.2568960E-01  0.2039115E+00  0.2015375E+01  0.8769780E-01 -0.1840897E+00
  0.1664750E+02 -0.1639620E+01 -0.2568960E-01  0.2079634E+00  0.2020987E+01  0.9049256E-01 -0.1872428E+00
  0.1672800E+02  0.0000000E+00 -0.1027320E+00  0.2103701E+00  0.2026654E+01  0.9261174E-01 -0.1888879E+00
  0.1664750E+02  0.1639630E+01 -0.1027320E+00  0.2121445E+00  0.2032433E+01  0.9449212E-01 -0.1899382E+00
  0.1640660E+02  0.3263470E+01 -0.1027320E+00  0.2128733E+00  0.2037966E+01  0.9586976E-01 -0.1900632E+00
  0.1600770E+02  0.4855880E+01 -0.1027320E+00  0.2126775E+00  0.2043022E+01  0.9674053E-01 -0.1894016E+00
  0.1545470E+02  0.6401530E+01 -0.1027320E+00  0.2123628E+00  0.2046627E+01  0.9727846E-01 -0.1887719E+00
  0.1475280E+02  0.7885530E+01 -0.1027320E+00  0.2120801E+00  0.2048540E+01  0.9750946E-01 -0.1883345E+00
  0.1390880E+02  0.9293580E+01 -0.1027320E+00  0.2128347E+00  0.2047140E+01  0.9759165E-01 -0.1891414E+00
  0.1293090E+02  0.1061210E+02 -0.1027320E+00  0.2141143E+00  0.2043247E+01  0.9743699E-01 -0.1906593E+00
  0.1182850E+02  0.1182850E+02 -0.1027320E+00  0.2116782E+00  0.2041984E+01  0.9609025E-01 -0.1886116E+00
  0.1061210E+02  0.1293090E+02 -0.1027320E+00  0.2088406E+00  0.2040767E+01  0.9457554E-01 -0.1861984E+00
  0.9293580E+01  0.1390880E+02 -0.1027320E+00  0.2048030E+00  0.2040342E+01  0.9266949E-01 -0.1826380E+00
  0.7885520E+01  0.1475280E+02 -0.1027320E+00  0.1967826E+00  0.2043621E+01  0.8961536E-01 -0.1751927E+00
  0.6401530E+01  0.1545470E+02 -0.1027320E+00  0.1879098E+00  0.2048222E+01  0.8634346E-01 -0.1668978E+00
  0.4855880E+01  0.1600770E+02 -0.1027320E+00  0.1721697E+00  0.2061664E+01  0.8115937E-01 -0.1518406E+00
  0.3263470E+01  0.1640660E+02 -0.1027320E+00  0.1427889E+00  0.2098985E+01  0.7196133E-01 -0.1233298E+00
  0.1639630E+01  0.1664750E+02 -0.1027320E+00  0.9484245E-01  0.2210343E+01  0.5660501E-01 -0.7609838E-01
 -0.7312040E-06  0.1672800E+02 -0.1027320E+00  0.4268801E-01  0.2671447E+01  0.3805647E-01 -0.1933835E-01
 -0.1639630E+01  0.1664750E+02 -0.1027320E+00  0.5016078E-01 -0.1921518E+01  0.1723404E-01  0.4710723E-01
 -0.3263470E+01  0.1640660E+02 -0.1027320E+00  0.1185851E+00 -0.1536173E+01 -0.4104982E-02  0.1185140E+00
 -0.4855880E+01  0.1600770E+02 -0.1027320E+00  0.1690677E+00 -0.1455456E+01 -0.1945713E-01  0.1679444E+00
 -0.6401530E+01  0.1545470E+02 -0.1027320E+00  0.1989526E+00 -0.1421299E+01 -0.2963219E-01  0.1967335E+00
 -0.7885530E+01  0.1475280E+02 -0.1027320E+00  0.2183837E+00 -0.1399627E+01 -0.3719831E-01  0.2151923E+00
 -0.9293580E+01  0.1390880E+02 -0.1027320E+00  0.2346124E+00 -0.1381936E+01 -0.4404609E-01  0.2304407E+00
 -0.1061210E+02  0.1293090E+02 -0.1027320E+00  0.2452078E+00 -0.1367982E+01 -0.4939140E-01  0.2401819E+00
 -0.1182850E+02  0.1182850E+02 -0.1027320E+00  0.2539435E+00 -0.1356274E+01 -0.5405959E-01  0.2481227E+00
 -0.1293090E+02  0.1061210E+02 -0.1027320E+00  0.2621386E+00 -0.1346354E+01 -0.5834215E-01  0.2555638E+00
 -0.1390880E+02  0.9293580E+01 -0.1027320E+00  0.2656400E+00 -0.1338465E+01 -0.6116284E-01  0.2585028E+00
 -0.1475280E+02  0.7885520E+01 -0.1027320E+00  0.2690400E+00 -0.1332244E+01 -0.6357306E-01  0.2614211E+00
 -0.1545470E+02  0.6401530E+01 -0.1027320E+00  0.2733184E+00 -0.1328041E+01 -0.6569969E-01  0.2653046E+00
 -0.1600770E+02  0.4855880E+01 -0.1027320E+00  0.2777574E+00 -0.1325777E+01 -0.6737701E-01  0.2694615E+00
 -0.1640660E+02  0.3263470E+01 -0.1027320E+00  0.2821176E+00 -0.1325471E+01 -0.6851843E-01  0.2736705E+00
 -0.1664750E+02  0.1639630E+01 -0.1027320E+00  0.2853088E+00 -0.1326948E+01 -0.6888474E-01  0.2768682E+00
 -0.1672800E+02 -0.1462410E-05 -0.1027320E+00  0.2873349E+00 -0.1330136E+01 -0.6848451E-01  0.2790542E+00
 -0.1664750E+02 -0.1639630E+01 -0.1027320E+00  0.2881262E+00 -0.1334913E+01 -0.6733567E-01  0.2801475E+00
 -0.1640660E+02 -0.3263470E+01 -0.1027320E+00  0.2878495E+00 -0.1341321E+01 -0.6547629E-01  0.2803037E+00
 -0.1600770E+02 -0.4855890E+01 -0.1027320E+00  0.2866502E+00 -0.1349492E+01 -0.6292050E-01  0.2796594E+00
 -0.1545470E+02 -0.6401530E+01 -0.1027320E+00  0.2853464E+00 -0.1360101E+01 -0.5967746E-01  0.2790361E+00
 -0.1475280E+02 -0.7885530E+01 -0.1027320E+00  0.2841253E+00 -0.1373264E+01 -0.5575958E-01  0.2786002E+00
 -0.1390880E+02 -0.9293580E+01 -0.1027320E+00  0.2840433E+00 -0.1389616E+01 -0.5118194E-01  0.2793940E+00
 -0.1293090E+02 -0.1061210E+02 -0.1027320E+00  0.2846018E+00 -0.1408780E+01 -0.4590883E-01  0.2808746E+00
 -0.1182850E+02 -0.1182850E+02 -0.1027320E+00  0.2816207E+00 -0.1428054E+01 -0.4006271E-01  0.2787566E+00
 -0.1061210E+02 -0.1293090E+02 -0.1027320E+00  0.2782691E+00 -0.1450147E+01 -0.3349156E-01  0.2762462E+00
 -0.9293580E+01 -0.1390880E+02 -0.1027320E+00  0.2738145E+00 -0.1474837E+01 -0.2623478E-01  0.2725548E+00
 -0.7885520E+01 -0.1475280E+02 -0.1027320E+00  0.2655706E+00 -0.1501440E+01 -0.1840413E-01  0.2649321E+00
 -0.6401520E+01 -0.1545470E+02 -0.1027320E+00  0.2565840E+00 -0.1532723E+01 -0.9766566E-02  0.2563981E+00
 -0.4855880E+01 -0.1600770E+02 -0.1027320E+00  0.2410203E+00 -0.1568178E+01 -0.6311540E-03  0.2410195E+00
 -0.3263470E+01 -0.1640660E+02 -0.1027320E+00  0.2122345E+00 -0.1611740E+01  0.8687178E-02  0.2120566E+00
 -0.1639630E+01 -0.1664750E+02 -0.1027320E+00  0.1651772E+00 -0.1672537E+01  0.1677630E-01  0.1643230E+00
  0.1994790E-06 -0.1672800E+02 -0.1027320E+00  0.1096929E+00 -0.1779111E+01  0.2268571E-01  0.1073214E+00
  0.1639640E+01 -0.1664750E+02 -0.1027320E+00  0.4894875E-01 -0.2149785E+01  0.2678368E-01  0.4097090E-01
  0.3263470E+01 -0.1640660E+02 -0.1027320E+00  0.4254900E-01  0.2356762E+01  0.3010375E-01 -0.3006961E-01
  0.4855890E+01 -0.1600770E+02 -0.1027320E+00  0.8639392E-01  0.1983171E+01  0.3462547E-01 -0.7915166E-01
  0.6401530E+01 -0.1545470E+02 -0.1027320E+00  0.1149320E+00  0.1927396E+01  0.4012159E-01 -0.1077016E+00
  0.7885520E+01 -0.1475280E+02 -0.1027320E+00  0.1340912E+00  0.1920385E+01  0.4592775E-01 -0.1259805E+00
  0.9293580E+01 -0.1390880E+02 -0.1027320E+00  0.1502168E+00  0.1921196E+01  0.5156537E-01 -0.1410890E+00
  0.1061210E+02 -0.1293090E+02 -0.1027320E+00  0.1611825E+00  0.1933149E+01  0.5713518E-01 -0.1507162E+00
  0.1182850E+02 -0.1182850E+02 -0.1027320E+00  0.1704221E+00  0.1946110E+01  0.6247072E-01 -0.1585595E+00
  0.1293090E+02 -0.1061210E+02 -0.1027320E+00  0.1790991E+00  0.1956979E+01  0.6745853E-01 -0.1659091E+00
  0.1390880E+02 -0.9293580E+01 -0.1027320E+00  0.1835951E+00  0.1975373E+01  0.7226852E-01 -0.1687733E+00
