 VARIABLES="X" "Y" "Z" "abs(eta) (m)" "angle(phi) (rad)" "PRE1" "PRE2"
ZONE N=   3200 ,E =    3136 ,F=FEPOINT,ET=QUADRILATERAL
  0.1672800E+02  0.0000000E+00  0.0000000E+00  0.2481939E+00 -0.1448776E+01 -0.3020973E-01  0.2463485E+00
  0.1664750E+02  0.1639630E+01  0.0000000E+00  0.2485959E+00 -0.1449647E+01 -0.3004356E-01  0.2467738E+00
  0.1640660E+02  0.3263470E+01  0.0000000E+00  0.2496548E+00 -0.1452218E+01 -0.2953441E-01  0.2479016E+00
  0.1600770E+02  0.4855880E+01  0.0000000E+00  0.2510319E+00 -0.1456294E+01 -0.2868095E-01  0.2493881E+00
  0.1545470E+02  0.6401530E+01  0.0000000E+00  0.2521614E+00 -0.1461644E+01 -0.2746935E-01  0.2506607E+00
  0.1475280E+02  0.7885530E+01  0.0000000E+00  0.2505881E+00 -0.1467709E+01 -0.2578683E-01  0.2492578E+00
  0.1390880E+02  0.9293580E+01  0.0000000E+00  0.2468972E+00 -0.1474711E+01 -0.2368679E-01  0.2457583E+00
  0.1293090E+02  0.1061210E+02  0.0000000E+00  0.2433089E+00 -0.1483327E+01 -0.2125490E-01  0.2423787E+00
  0.1182850E+02  0.1182850E+02  0.0000000E+00  0.2397601E+00 -0.1493562E+01 -0.1849922E-01  0.2390453E+00
  0.1061210E+02  0.1293090E+02  0.0000000E+00  0.2349591E+00 -0.1505223E+01 -0.1539608E-01  0.2344541E+00
  0.9293580E+01  0.1390880E+02  0.0000000E+00  0.2281820E+00 -0.1517928E+01 -0.1205789E-01  0.2278632E+00
  0.7885520E+01  0.1475280E+02  0.0000000E+00  0.2206134E+00 -0.1532433E+01 -0.8461467E-02  0.2204510E+00
  0.6401530E+01  0.1545470E+02  0.0000000E+00  0.2071896E+00 -0.1549423E+01 -0.4428048E-02  0.2071423E+00
  0.4855880E+01  0.1600770E+02  0.0000000E+00  0.1863087E+00 -0.1570829E+01  0.6155417E-05  0.1863087E+00
  0.3263470E+01  0.1640660E+02  0.0000000E+00  0.1504820E+00 -0.1603460E+01  0.4914481E-02  0.1504017E+00
  0.1639630E+01  0.1664750E+02  0.0000000E+00  0.9343853E-01 -0.1685857E+01  0.1072740E-01  0.9282070E-01
 -0.7312040E-06  0.1672800E+02  0.0000000E+00  0.3688360E-01 -0.2060138E+01  0.1733694E-01  0.3255504E-01
 -0.1639630E+01  0.1664750E+02  0.0000000E+00  0.3722998E-01  0.2305447E+01  0.2495629E-01 -0.2762707E-01
 -0.3263470E+01  0.1640660E+02  0.0000000E+00  0.9115839E-01  0.1940743E+01  0.3295972E-01 -0.8499123E-01
 -0.4855880E+01  0.1600770E+02  0.0000000E+00  0.1268194E+00  0.1882846E+01  0.3893486E-01 -0.1206948E+00
 -0.6401530E+01  0.1545470E+02  0.0000000E+00  0.1478491E+00  0.1867628E+01  0.4324471E-01 -0.1413834E+00
 -0.7885530E+01  0.1475280E+02  0.0000000E+00  0.1614899E+00  0.1864356E+01  0.4672897E-01 -0.1545814E+00
 -0.9293580E+01  0.1390880E+02  0.0000000E+00  0.1693310E+00  0.1867996E+01  0.4958753E-01 -0.1619076E+00
 -0.1061210E+02  0.1293090E+02  0.0000000E+00  0.1763419E+00  0.1871574E+01  0.5224359E-01 -0.1684253E+00
 -0.1182850E+02  0.1182850E+02  0.0000000E+00  0.1813320E+00  0.1875861E+01  0.5446395E-01 -0.1729594E+00
 -0.1293090E+02  0.1061210E+02  0.0000000E+00  0.1850583E+00  0.1880656E+01  0.5642882E-01 -0.1762452E+00
 -0.1390880E+02  0.9293580E+01  0.0000000E+00  0.1887911E+00  0.1884388E+01  0.5823775E-01 -0.1795841E+00
 -0.1475280E+02  0.7885520E+01  0.0000000E+00  0.1925949E+00  0.1886945E+01  0.5987928E-01 -0.1830499E+00
 -0.1545470E+02  0.6401530E+01  0.0000000E+00  0.1942981E+00  0.1890877E+01  0.6113464E-01 -0.1844297E+00
 -0.1600770E+02  0.4855880E+01  0.0000000E+00  0.1933351E+00  0.1897003E+01  0.6195471E-01 -0.1831395E+00
 -0.1640660E+02  0.3263470E+01  0.0000000E+00  0.1920959E+00  0.1902209E+01  0.6250408E-01 -0.1816427E+00
 -0.1664750E+02  0.1639630E+01  0.0000000E+00  0.1911266E+00  0.1905690E+01  0.6281731E-01 -0.1805086E+00
 -0.1672800E+02 -0.1462410E-05  0.0000000E+00  0.1907575E+00  0.1906938E+01  0.6292088E-01 -0.1800816E+00
 -0.1664750E+02 -0.1639630E+01  0.0000000E+00  0.1911269E+00  0.1905691E+01  0.6281762E-01 -0.1805088E+00
 -0.1640660E+02 -0.3263470E+01  0.0000000E+00  0.1920958E+00  0.1902210E+01  0.6250407E-01 -0.1816426E+00
 -0.1600770E+02 -0.4855890E+01  0.0000000E+00  0.1933349E+00  0.1897005E+01  0.6195489E-01 -0.1831392E+00
 -0.1545470E+02 -0.6401530E+01  0.0000000E+00  0.1942980E+00  0.1890876E+01  0.6113442E-01 -0.1844297E+00
 -0.1475280E+02 -0.7885530E+01  0.0000000E+00  0.1925950E+00  0.1886947E+01  0.5987970E-01 -0.1830499E+00
 -0.1390880E+02 -0.9293580E+01  0.0000000E+00  0.1887912E+00  0.1884388E+01  0.5823781E-01 -0.1795842E+00
 -0.1293090E+02 -0.1061210E+02  0.0000000E+00  0.1850585E+00  0.1880656E+01  0.5642890E-01 -0.1762453E+00
 -0.1182850E+02 -0.1182850E+02  0.0000000E+00  0.1813318E+00  0.1875863E+01  0.5446423E-01 -0.1729592E+00
 -0.1061210E+02 -0.1293090E+02  0.0000000E+00  0.1763421E+00  0.1871572E+01  0.5224331E-01 -0.1684256E+00
 -0.9293580E+01 -0.1390880E+02  0.0000000E+00  0.1693311E+00  0.1867996E+01  0.4958763E-01 -0.1619076E+00
 -0.7885520E+01 -0.1475280E+02  0.0000000E+00  0.1614900E+00  0.1864356E+01  0.4672896E-01 -0.1545815E+00
 -0.6401520E+01 -0.1545470E+02  0.0000000E+00  0.1478493E+00  0.1867634E+01  0.4324555E-01 -0.1413833E+00
 -0.4855880E+01 -0.1600770E+02  0.0000000E+00  0.1268194E+00  0.1882851E+01  0.3893547E-01 -0.1206946E+00
 -0.3263470E+01 -0.1640660E+02  0.0000000E+00  0.9115821E-01  0.1940743E+01  0.3295967E-01 -0.8499105E-01
 -0.1639630E+01 -0.1664750E+02  0.0000000E+00  0.3722977E-01  0.2305452E+01  0.2495630E-01 -0.2762677E-01
  0.1994790E-06 -0.1672800E+02  0.0000000E+00  0.3688388E-01 -0.2060157E+01  0.1733769E-01  0.3255495E-01
  0.1639640E+01 -0.1664750E+02  0.0000000E+00  0.9343925E-01 -0.1685860E+01  0.1072777E-01  0.9282138E-01
  0.3263470E+01 -0.1640660E+02  0.0000000E+00  0.1504821E+00 -0.1603463E+01  0.4914835E-02  0.1504018E+00
  0.4855890E+01 -0.1600770E+02  0.0000000E+00  0.1863083E+00 -0.1570830E+01  0.6212520E-05  0.1863083E+00
  0.6401530E+01 -0.1545470E+02  0.0000000E+00  0.2071893E+00 -0.1549429E+01 -0.4426774E-02  0.2071420E+00
  0.7885520E+01 -0.1475280E+02  0.0000000E+00  0.2206134E+00 -0.1532437E+01 -0.8460412E-02  0.2204512E+00
  0.9293580E+01 -0.1390880E+02  0.0000000E+00  0.2281822E+00 -0.1517927E+01 -0.1205820E-01  0.2278634E+00
  0.1061210E+02 -0.1293090E+02  0.0000000E+00  0.2349593E+00 -0.1505223E+01 -0.1539597E-01  0.2344543E+00
  0.1182850E+02 -0.1182850E+02  0.0000000E+00  0.2397604E+00 -0.1493563E+01 -0.1849911E-01  0.2390456E+00
  0.1293090E+02 -0.1061210E+02  0.0000000E+00  0.2433091E+00 -0.1483325E+01 -0.2125540E-01  0.2423789E+00
  0.1390880E+02 -0.9293580E+01  0.0000000E+00  0.2468977E+00 -0.1474711E+01 -0.2368684E-01  0.2457588E+00
  0.1475280E+02 -0.7885520E+01  0.0000000E+00  0.2505877E+00 -0.1467706E+01 -0.2578736E-01  0.2492573E+00
  0.1545470E+02 -0.6401530E+01  0.0000000E+00  0.2521611E+00 -0.1461645E+01 -0.2746920E-01  0.2506605E+00
  0.1600770E+02 -0.4855880E+01  0.0000000E+00  0.2510321E+00 -0.1456295E+01 -0.2868078E-01  0.2493883E+00
  0.1640660E+02 -0.3263470E+01  0.0000000E+00  0.2496545E+00 -0.1452220E+01 -0.2953381E-01  0.2479015E+00
  0.1664750E+02 -0.1639620E+01  0.0000000E+00  0.2485959E+00 -0.1449644E+01 -0.3004436E-01  0.2467737E+00
  0.1672800E+02  0.0000000E+00 -0.2568960E-01  0.2480266E+00 -0.1448771E+01 -0.3019036E-01  0.2461824E+00
  0.1664750E+02  0.1639630E+01 -0.2568960E-01  0.2484258E+00 -0.1449651E+01 -0.3002205E-01  0.2466051E+00
  0.1640660E+02  0.3263470E+01 -0.2568960E-01  0.2494773E+00 -0.1452222E+01 -0.2951233E-01  0.2477255E+00
  0.1600770E+02  0.4855880E+01 -0.2568960E-01  0.2508428E+00 -0.1456297E+01 -0.2865868E-01  0.2492002E+00
  0.1545470E+02  0.6401530E+01 -0.2568960E-01  0.2519607E+00 -0.1461651E+01 -0.2744583E-01  0.2504614E+00
  0.1475280E+02  0.7885530E+01 -0.2568960E-01  0.2503919E+00 -0.1467710E+01 -0.2576619E-01  0.2490627E+00
  0.1390880E+02  0.9293580E+01 -0.2568960E-01  0.2467199E+00 -0.1474713E+01 -0.2366929E-01  0.2455819E+00
  0.1293090E+02  0.1061210E+02 -0.2568960E-01  0.2431403E+00 -0.1483329E+01 -0.2123966E-01  0.2422108E+00
  0.1182850E+02  0.1182850E+02 -0.2568960E-01  0.2395928E+00 -0.1493566E+01 -0.1848542E-01  0.2388786E+00
  0.1061210E+02  0.1293090E+02 -0.2568960E-01  0.2347948E+00 -0.1505217E+01 -0.1538668E-01  0.2342901E+00
  0.9293580E+01  0.1390880E+02 -0.2568960E-01  0.2280324E+00 -0.1517934E+01 -0.1204876E-01  0.2277139E+00
  0.7885520E+01  0.1475280E+02 -0.2568960E-01  0.2204571E+00 -0.1532436E+01 -0.8454827E-02  0.2202949E+00
  0.6401530E+01  0.1545470E+02 -0.2568960E-01  0.2070545E+00 -0.1549431E+01 -0.4423396E-02  0.2070072E+00
  0.4855880E+01  0.1600770E+02 -0.2568960E-01  0.1861931E+00 -0.1570832E+01  0.6690690E-05  0.1861931E+00
  0.3263470E+01  0.1640660E+02 -0.2568960E-01  0.1503682E+00 -0.1603469E+01  0.4912138E-02  0.1502879E+00
  0.1639630E+01  0.1664750E+02 -0.2568960E-01  0.9336049E-01 -0.1685874E+01  0.1071996E-01  0.9274299E-01
 -0.7312040E-06  0.1672800E+02 -0.2568960E-01  0.3685680E-01 -0.2060142E+01  0.1732449E-01  0.3253130E-01
 -0.1639630E+01  0.1664750E+02 -0.2568960E-01  0.3719515E-01  0.2305586E+01  0.2493679E-01 -0.2759774E-01
 -0.3263470E+01  0.1640660E+02 -0.2568960E-01  0.9108838E-01  0.1940761E+01  0.3293593E-01 -0.8492536E-01
 -0.4855880E+01  0.1600770E+02 -0.2568960E-01  0.1267464E+00  0.1882815E+01  0.3890865E-01 -0.1206265E+00
 -0.6401530E+01  0.1545470E+02 -0.2568960E-01  0.1477576E+00  0.1867613E+01  0.4321586E-01 -0.1412965E+00
 -0.7885530E+01  0.1475280E+02 -0.2568960E-01  0.1613773E+00  0.1864365E+01  0.4669768E-01 -0.1544731E+00
 -0.9293580E+01  0.1390880E+02 -0.2568960E-01  0.1692235E+00  0.1867979E+01  0.4955326E-01 -0.1618056E+00
 -0.1061210E+02  0.1293090E+02 -0.2568960E-01  0.1762196E+00  0.1871569E+01  0.5220650E-01 -0.1683087E+00
 -0.1182850E+02  0.1182850E+02 -0.2568960E-01  0.1812077E+00  0.1875862E+01  0.5442687E-01 -0.1728409E+00
 -0.1293090E+02  0.1061210E+02 -0.2568960E-01  0.1849326E+00  0.1880652E+01  0.5638984E-01 -0.1761257E+00
 -0.1390880E+02  0.9293580E+01 -0.2568960E-01  0.1886566E+00  0.1884397E+01  0.5819791E-01 -0.1794556E+00
 -0.1475280E+02  0.7885520E+01 -0.2568960E-01  0.1924428E+00  0.1886968E+01  0.5983635E-01 -0.1829039E+00
 -0.1545470E+02  0.6401530E+01 -0.2568960E-01  0.1941398E+00  0.1890906E+01  0.6109012E-01 -0.1842777E+00
 -0.1600770E+02  0.4855880E+01 -0.2568960E-01  0.1931886E+00  0.1897018E+01  0.6191042E-01 -0.1829998E+00
 -0.1640660E+02  0.3263470E+01 -0.2568960E-01  0.1919601E+00  0.1902212E+01  0.6246038E-01 -0.1815142E+00
 -0.1664750E+02  0.1639630E+01 -0.2568960E-01  0.1909986E+00  0.1905679E+01  0.6277329E-01 -0.1803884E+00
 -0.1672800E+02 -0.1462410E-05 -0.2568960E-01  0.1906320E+00  0.1906920E+01  0.6287625E-01 -0.1799642E+00
 -0.1664750E+02 -0.1639630E+01 -0.2568960E-01  0.1909988E+00  0.1905679E+01  0.6277333E-01 -0.1803886E+00
 -0.1640660E+02 -0.3263470E+01 -0.2568960E-01  0.1919602E+00  0.1902212E+01  0.6246034E-01 -0.1815143E+00
 -0.1600770E+02 -0.4855890E+01 -0.2568960E-01  0.1931886E+00  0.1897018E+01  0.6191044E-01 -0.1829998E+00
 -0.1545470E+02 -0.6401530E+01 -0.2568960E-01  0.1941399E+00  0.1890906E+01  0.6109009E-01 -0.1842778E+00
 -0.1475280E+02 -0.7885530E+01 -0.2568960E-01  0.1924428E+00  0.1886970E+01  0.5983671E-01 -0.1829038E+00
 -0.1390880E+02 -0.9293580E+01 -0.2568960E-01  0.1886566E+00  0.1884398E+01  0.5819796E-01 -0.1794556E+00
 -0.1293090E+02 -0.1061210E+02 -0.2568960E-01  0.1849329E+00  0.1880650E+01  0.5638967E-01 -0.1761260E+00
 -0.1182850E+02 -0.1182850E+02 -0.2568960E-01  0.1812076E+00  0.1875861E+01  0.5442664E-01 -0.1728408E+00
 -0.1061210E+02 -0.1293090E+02 -0.2568960E-01  0.1762197E+00  0.1871570E+01  0.5220664E-01 -0.1683088E+00
 -0.9293580E+01 -0.1390880E+02 -0.2568960E-01  0.1692235E+00  0.1867980E+01  0.4955345E-01 -0.1618056E+00
 -0.7885520E+01 -0.1475280E+02 -0.2568960E-01  0.1613773E+00  0.1864363E+01  0.4669746E-01 -0.1544732E+00
 -0.6401520E+01 -0.1545470E+02 -0.2568960E-01  0.1477575E+00  0.1867613E+01  0.4321574E-01 -0.1412964E+00
 -0.4855880E+01 -0.1600770E+02 -0.2568960E-01  0.1267463E+00  0.1882815E+01  0.3890868E-01 -0.1206265E+00
 -0.3263470E+01 -0.1640660E+02 -0.2568960E-01  0.9108803E-01  0.1940762E+01  0.3293596E-01 -0.8492498E-01
 -0.1639630E+01 -0.1664750E+02 -0.2568960E-01  0.3719524E-01  0.2305598E+01  0.2493716E-01 -0.2759753E-01
  0.1994790E-06 -0.1672800E+02 -0.2568960E-01  0.3685671E-01 -0.2060145E+01  0.1732455E-01  0.3253117E-01
  0.1639640E+01 -0.1664750E+02 -0.2568960E-01  0.9336125E-01 -0.1685873E+01  0.1072001E-01  0.9274376E-01
  0.3263470E+01 -0.1640660E+02 -0.2568960E-01  0.1503680E+00 -0.1603472E+01  0.4912504E-02  0.1502877E+00
  0.4855890E+01 -0.1600770E+02 -0.2568960E-01  0.1861927E+00 -0.1570833E+01  0.6895900E-05  0.1861927E+00
  0.6401530E+01 -0.1545470E+02 -0.2568960E-01  0.2070543E+00 -0.1549431E+01 -0.4423442E-02  0.2070070E+00
  0.7885520E+01 -0.1475280E+02 -0.2568960E-01  0.2204569E+00 -0.1532435E+01 -0.8454853E-02  0.2202947E+00
  0.9293580E+01 -0.1390880E+02 -0.2568960E-01  0.2280317E+00 -0.1517935E+01 -0.1204836E-01  0.2277132E+00
  0.1061210E+02 -0.1293090E+02 -0.2568960E-01  0.2347946E+00 -0.1505219E+01 -0.1538625E-01  0.2342899E+00
  0.1182850E+02 -0.1182850E+02 -0.2568960E-01  0.2395929E+00 -0.1493565E+01 -0.1848576E-01  0.2388787E+00
  0.1293090E+02 -0.1061210E+02 -0.2568960E-01  0.2431405E+00 -0.1483331E+01 -0.2123927E-01  0.2422111E+00
  0.1390880E+02 -0.9293580E+01 -0.2568960E-01  0.2467194E+00 -0.1474715E+01 -0.2366878E-01  0.2455814E+00
  0.1475280E+02 -0.7885520E+01 -0.2568960E-01  0.2503920E+00 -0.1467710E+01 -0.2576623E-01  0.2490627E+00
  0.1545470E+02 -0.6401530E+01 -0.2568960E-01  0.2519611E+00 -0.1461648E+01 -0.2744650E-01  0.2504618E+00
  0.1600770E+02 -0.4855880E+01 -0.2568960E-01  0.2508424E+00 -0.1456297E+01 -0.2865863E-01  0.2491999E+00
  0.1640660E+02 -0.3263470E+01 -0.2568960E-01  0.2494774E+00 -0.1452221E+01 -0.2951260E-01  0.2477256E+00
  0.1664750E+02 -0.1639620E+01 -0.2568960E-01  0.2484260E+00 -0.1449650E+01 -0.3002226E-01  0.2466052E+00
  0.1672800E+02  0.0000000E+00 -0.1027320E+00  0.2475463E+00 -0.1448794E+01 -0.3012631E-01  0.2457063E+00
  0.1664750E+02  0.1639630E+01 -0.1027320E+00  0.2479360E+00 -0.1449667E+01 -0.2995907E-01  0.2461194E+00
  0.1640660E+02  0.3263470E+01 -0.1027320E+00  0.2489621E+00 -0.1452230E+01 -0.2944935E-01  0.2472142E+00
  0.1600770E+02  0.4855880E+01 -0.1027320E+00  0.2502925E+00 -0.1456298E+01 -0.2859547E-01  0.2486536E+00
  0.1545470E+02  0.6401530E+01 -0.1027320E+00  0.2513722E+00 -0.1461645E+01 -0.2738308E-01  0.2498763E+00
  0.1475280E+02  0.7885530E+01 -0.1027320E+00  0.2498199E+00 -0.1467707E+01 -0.2570821E-01  0.2484936E+00
  0.1390880E+02  0.9293580E+01 -0.1027320E+00  0.2461983E+00 -0.1474719E+01 -0.2361781E-01  0.2450629E+00
  0.1293090E+02  0.1061210E+02 -0.1027320E+00  0.2426469E+00 -0.1483341E+01 -0.2119361E-01  0.2417196E+00
  0.1182850E+02  0.1182850E+02 -0.1027320E+00  0.2391018E+00 -0.1493572E+01 -0.1844622E-01  0.2383892E+00
  0.1061210E+02  0.1293090E+02 -0.1027320E+00  0.2343070E+00 -0.1505222E+01 -0.1535361E-01  0.2338035E+00
  0.9293580E+01  0.1390880E+02 -0.1027320E+00  0.2275901E+00 -0.1517937E+01 -0.1202468E-01  0.2272722E+00
  0.7885520E+01  0.1475280E+02 -0.1027320E+00  0.2199942E+00 -0.1532447E+01 -0.8434558E-02  0.2198325E+00
  0.6401530E+01  0.1545470E+02 -0.1027320E+00  0.2066551E+00 -0.1549429E+01 -0.4415345E-02  0.2066079E+00
  0.4855880E+01  0.1600770E+02 -0.1027320E+00  0.1858483E+00 -0.1570814E+01  0.3279854E-05  0.1858483E+00
  0.3263470E+01  0.1640660E+02 -0.1027320E+00  0.1500433E+00 -0.1603460E+01  0.4900128E-02  0.1499633E+00
  0.1639630E+01  0.1664750E+02 -0.1027320E+00  0.9312863E-01 -0.1685902E+01  0.1069594E-01  0.9251237E-01
 -0.7312040E-06  0.1672800E+02 -0.1027320E+00  0.3677390E-01 -0.2060083E+01  0.1728361E-01  0.3245915E-01
 -0.1639630E+01  0.1664750E+02 -0.1027320E+00  0.3708936E-01  0.2306005E+01  0.2487740E-01 -0.2750883E-01
 -0.3263470E+01  0.1640660E+02 -0.1027320E+00  0.9089299E-01  0.1940745E+01  0.3286395E-01 -0.8474370E-01
 -0.4855880E+01  0.1600770E+02 -0.1027320E+00  0.1265296E+00  0.1882720E+01  0.3883070E-01 -0.1204239E+00
 -0.6401530E+01  0.1545470E+02 -0.1027320E+00  0.1474872E+00  0.1867550E+01  0.4312784E-01 -0.1410406E+00
 -0.7885530E+01  0.1475280E+02 -0.1027320E+00  0.1610440E+00  0.1864357E+01  0.4660006E-01 -0.1541545E+00
 -0.9293580E+01  0.1390880E+02 -0.1027320E+00  0.1689092E+00  0.1867927E+01  0.4945294E-01 -0.1615077E+00
 -0.1061210E+02  0.1293090E+02 -0.1027320E+00  0.1758608E+00  0.1871546E+01  0.5209636E-01 -0.1679672E+00
 -0.1182850E+02  0.1182850E+02 -0.1027320E+00  0.1808442E+00  0.1875830E+01  0.5431201E-01 -0.1724958E+00
 -0.1293090E+02  0.1061210E+02 -0.1027320E+00  0.1845669E+00  0.1880624E+01  0.5627346E-01 -0.1757790E+00
 -0.1390880E+02  0.9293580E+01 -0.1027320E+00  0.1882622E+00  0.1884392E+01  0.5807534E-01 -0.1790807E+00
 -0.1475280E+02  0.7885520E+01 -0.1027320E+00  0.1919989E+00  0.1887016E+01  0.5970696E-01 -0.1824792E+00
 -0.1545470E+02  0.6401530E+01 -0.1027320E+00  0.1936804E+00  0.1890969E+01  0.6095708E-01 -0.1838377E+00
 -0.1600770E+02  0.4855880E+01 -0.1027320E+00  0.1927648E+00  0.1897031E+01  0.6177701E-01 -0.1825976E+00
 -0.1640660E+02  0.3263470E+01 -0.1027320E+00  0.1915704E+00  0.1902178E+01  0.6232742E-01 -0.1811478E+00
 -0.1664750E+02  0.1639630E+01 -0.1027320E+00  0.1906334E+00  0.1905621E+01  0.6264285E-01 -0.1800472E+00
 -0.1672800E+02 -0.1462410E-05 -0.1027320E+00  0.1902762E+00  0.1906851E+01  0.6274650E-01 -0.1796327E+00
 -0.1664750E+02 -0.1639630E+01 -0.1027320E+00  0.1906336E+00  0.1905621E+01  0.6264284E-01 -0.1800474E+00
 -0.1640660E+02 -0.3263470E+01 -0.1027320E+00  0.1915708E+00  0.1902176E+01  0.6232727E-01 -0.1811482E+00
 -0.1600770E+02 -0.4855890E+01 -0.1027320E+00  0.1927648E+00  0.1897032E+01  0.6177710E-01 -0.1825975E+00
 -0.1545470E+02 -0.6401530E+01 -0.1027320E+00  0.1936804E+00  0.1890968E+01  0.6095691E-01 -0.1838378E+00
 -0.1475280E+02 -0.7885530E+01 -0.1027320E+00  0.1919990E+00  0.1887016E+01  0.5970709E-01 -0.1824792E+00
 -0.1390880E+02 -0.9293580E+01 -0.1027320E+00  0.1882626E+00  0.1884393E+01  0.5807558E-01 -0.1790811E+00
 -0.1293090E+02 -0.1061210E+02 -0.1027320E+00  0.1845670E+00  0.1880623E+01  0.5627328E-01 -0.1757791E+00
 -0.1182850E+02 -0.1182850E+02 -0.1027320E+00  0.1808444E+00  0.1875831E+01  0.5431230E-01 -0.1724960E+00
 -0.1061210E+02 -0.1293090E+02 -0.1027320E+00  0.1758611E+00  0.1871546E+01  0.5209650E-01 -0.1679675E+00
 -0.9293580E+01 -0.1390880E+02 -0.1027320E+00  0.1689097E+00  0.1867929E+01  0.4945328E-01 -0.1615081E+00
 -0.7885520E+01 -0.1475280E+02 -0.1027320E+00  0.1610444E+00  0.1864357E+01  0.4660021E-01 -0.1541548E+00
 -0.6401520E+01 -0.1545470E+02 -0.1027320E+00  0.1474872E+00  0.1867553E+01  0.4312825E-01 -0.1410405E+00
 -0.4855880E+01 -0.1600770E+02 -0.1027320E+00  0.1265301E+00  0.1882722E+01  0.3883104E-01 -0.1204243E+00
 -0.3263470E+01 -0.1640660E+02 -0.1027320E+00  0.9089316E-01  0.1940752E+01  0.3286459E-01 -0.8474365E-01
 -0.1639630E+01 -0.1664750E+02 -0.1027320E+00  0.3708971E-01  0.2306003E+01  0.2487758E-01 -0.2750914E-01
  0.1994790E-06 -0.1672800E+02 -0.1027320E+00  0.3677462E-01 -0.2060094E+01  0.1728429E-01  0.3245961E-01
  0.1639640E+01 -0.1664750E+02 -0.1027320E+00  0.9312846E-01 -0.1685893E+01  0.1069512E-01  0.9251229E-01
  0.3263470E+01 -0.1640660E+02 -0.1027320E+00  0.1500435E+00 -0.1603458E+01  0.4899839E-02  0.1499635E+00
  0.4855890E+01 -0.1600770E+02 -0.1027320E+00  0.1858479E+00 -0.1570814E+01  0.3292331E-05  0.1858479E+00
  0.6401530E+01 -0.1545470E+02 -0.1027320E+00  0.2066550E+00 -0.1549430E+01 -0.4415180E-02  0.2066078E+00
  0.7885520E+01 -0.1475280E+02 -0.1027320E+00  0.2199938E+00 -0.1532445E+01 -0.8434994E-02  0.2198320E+00
  0.9293580E+01 -0.1390880E+02 -0.1027320E+00  0.2275900E+00 -0.1517935E+01 -0.1202513E-01  0.2272721E+00
  0.1061210E+02 -0.1293090E+02 -0.1027320E+00  0.2343068E+00 -0.1505223E+01 -0.1535317E-01  0.2338033E+00
  0.1182850E+02 -0.1182850E+02 -0.1027320E+00  0.2391015E+00 -0.1493574E+01 -0.1844571E-01  0.2383890E+00
  0.1293090E+02 -0.1061210E+02 -0.1027320E+00  0.2426472E+00 -0.1483343E+01 -0.2119330E-01  0.2417199E+00
  0.1390880E+02 -0.9293580E+01 -0.1027320E+00  0.2461984E+00 -0.1474719E+01 -0.2361763E-01  0.2450630E+00
