 VARIABLES="X" "Y" "Z" "abs(eta) (m)" "angle(phi) (rad)" "PRE1" "PRE2"
ZONE N=   3200 ,E =    3136 ,F=FEPOINT,ET=QUADRILATERAL
  0.1672800E+02  0.0000000E+00  0.0000000E+00  0.6394594E+00 -0.8890550E+00 -0.4029528E+00  0.4965253E+00
  0.1664750E+02  0.1639630E+01  0.0000000E+00  0.6382295E+00 -0.8890432E+00 -0.4021837E+00  0.4955656E+00
  0.1640660E+02  0.3263470E+01  0.0000000E+00  0.6348512E+00 -0.8918486E+00 -0.3986703E+00  0.4940628E+00
  0.1600770E+02  0.4855880E+01  0.0000000E+00  0.6313314E+00 -0.8991615E+00 -0.3928564E+00  0.4942097E+00
  0.1545470E+02  0.6401530E+01  0.0000000E+00  0.6288460E+00 -0.9117785E+00 -0.3850680E+00  0.4971619E+00
  0.1475280E+02  0.7885530E+01  0.0000000E+00  0.6258657E+00 -0.9283712E+00 -0.3749804E+00  0.5010963E+00
  0.1390880E+02  0.9293580E+01  0.0000000E+00  0.6183093E+00 -0.9463763E+00 -0.3614802E+00  0.5016358E+00
  0.1293090E+02  0.1061210E+02  0.0000000E+00  0.6016874E+00 -0.9637449E+00 -0.3432315E+00  0.4941861E+00
  0.1182850E+02  0.1182850E+02  0.0000000E+00  0.5845761E+00 -0.9854426E+00 -0.3229750E+00  0.4872539E+00
  0.1061210E+02  0.1293090E+02  0.0000000E+00  0.5650409E+00 -0.1010592E+01 -0.3002396E+00  0.4786726E+00
  0.9293580E+01  0.1390880E+02  0.0000000E+00  0.5375990E+00 -0.1037399E+01 -0.2733483E+00  0.4629184E+00
  0.7885520E+01  0.1475280E+02  0.0000000E+00  0.5084544E+00 -0.1068455E+01 -0.2448100E+00  0.4456389E+00
  0.6401530E+01  0.1545470E+02  0.0000000E+00  0.4685499E+00 -0.1102108E+01 -0.2116516E+00  0.4180223E+00
  0.4855880E+01  0.1600770E+02  0.0000000E+00  0.4089643E+00 -0.1139048E+01 -0.1711347E+00  0.3714360E+00
  0.3263470E+01  0.1640660E+02  0.0000000E+00  0.3183766E+00 -0.1182115E+01 -0.1206547E+00  0.2946288E+00
  0.1639630E+01  0.1664750E+02  0.0000000E+00  0.1825632E+00 -0.1267536E+01 -0.5451948E-01  0.1742325E+00
 -0.7312040E-06  0.1672800E+02  0.0000000E+00  0.5648226E-01 -0.1830796E+01  0.1452050E-01  0.5458389E-01
 -0.1639630E+01  0.1664750E+02  0.0000000E+00  0.1050843E+00  0.2528775E+01  0.8596215E-01 -0.6044182E-01
 -0.3263470E+01  0.1640660E+02  0.0000000E+00  0.2310504E+00  0.2318265E+01  0.1570645E+00 -0.1694551E+00
 -0.4855880E+01  0.1600770E+02  0.0000000E+00  0.3156833E+00  0.2295552E+01  0.2092831E+00 -0.2363399E+00
 -0.6401530E+01  0.1545470E+02  0.0000000E+00  0.3716513E+00  0.2302136E+01  0.2482138E+00 -0.2766127E+00
 -0.7885530E+01  0.1475280E+02  0.0000000E+00  0.4091766E+00  0.2320328E+01  0.2787703E+00 -0.2995206E+00
 -0.9293580E+01  0.1390880E+02  0.0000000E+00  0.4366556E+00  0.2341574E+01  0.3042150E+00 -0.3132433E+00
 -0.1061210E+02  0.1293090E+02  0.0000000E+00  0.4622833E+00  0.2358377E+01  0.3275964E+00 -0.3261694E+00
 -0.1182850E+02  0.1182850E+02  0.0000000E+00  0.4803908E+00  0.2377154E+01  0.3467322E+00 -0.3324938E+00
 -0.1293090E+02  0.1061210E+02  0.0000000E+00  0.4961410E+00  0.2393812E+01  0.3637705E+00 -0.3373824E+00
 -0.1390880E+02  0.9293580E+01  0.0000000E+00  0.5113087E+00  0.2406766E+01  0.3793638E+00 -0.3428114E+00
 -0.1475280E+02  0.7885520E+01  0.0000000E+00  0.5179416E+00  0.2423718E+01  0.3901164E+00 -0.3406944E+00
 -0.1545470E+02  0.6401530E+01  0.0000000E+00  0.5201929E+00  0.2440727E+01  0.3975754E+00 -0.3354616E+00
 -0.1600770E+02  0.4855880E+01  0.0000000E+00  0.5217472E+00  0.2453461E+01  0.4030153E+00 -0.3313591E+00
 -0.1640660E+02  0.3263470E+01  0.0000000E+00  0.5239226E+00  0.2459940E+01  0.4068428E+00 -0.3301118E+00
 -0.1664750E+02  0.1639630E+01  0.0000000E+00  0.5257214E+00  0.2461809E+01  0.4088582E+00 -0.3304813E+00
 -0.1672800E+02 -0.1462410E-05  0.0000000E+00  0.5253583E+00  0.2461418E+01  0.4084465E+00 -0.3304130E+00
 -0.1664750E+02 -0.1639630E+01  0.0000000E+00  0.5226730E+00  0.2459096E+01  0.4055946E+00 -0.3296667E+00
 -0.1640660E+02 -0.3263470E+01  0.0000000E+00  0.5178217E+00  0.2454563E+01  0.4003454E+00 -0.3284249E+00
 -0.1600770E+02 -0.4855890E+01  0.0000000E+00  0.5125499E+00  0.2445002E+01  0.3931431E+00 -0.3288554E+00
 -0.1545470E+02 -0.6401530E+01  0.0000000E+00  0.5078137E+00  0.2428753E+01  0.3841651E+00 -0.3321022E+00
 -0.1475280E+02 -0.7885530E+01  0.0000000E+00  0.5022795E+00  0.2407870E+01  0.3730364E+00 -0.3363458E+00
 -0.1390880E+02 -0.9293580E+01  0.0000000E+00  0.4924313E+00  0.2387244E+01  0.3588433E+00 -0.3372240E+00
 -0.1293090E+02 -0.1061210E+02  0.0000000E+00  0.4743180E+00  0.2371615E+01  0.3405253E+00 -0.3301820E+00
 -0.1182850E+02 -0.1182850E+02  0.0000000E+00  0.4556251E+00  0.2351512E+01  0.3206635E+00 -0.3236807E+00
 -0.1061210E+02 -0.1293090E+02  0.0000000E+00  0.4345394E+00  0.2328758E+01  0.2987210E+00 -0.3155792E+00
 -0.9293580E+01 -0.1390880E+02  0.0000000E+00  0.4060225E+00  0.2308765E+01  0.2731663E+00 -0.3003905E+00
 -0.7885520E+01 -0.1475280E+02  0.0000000E+00  0.3751675E+00  0.2283873E+01  0.2454210E+00 -0.2837590E+00
 -0.6401520E+01 -0.1545470E+02  0.0000000E+00  0.3340391E+00  0.2263896E+01  0.2134257E+00 -0.2569661E+00
 -0.4855880E+01 -0.1600770E+02  0.0000000E+00  0.2743410E+00  0.2261666E+01  0.1748121E+00 -0.2114324E+00
 -0.3263470E+01 -0.1640660E+02  0.0000000E+00  0.1854445E+00  0.2317252E+01  0.1259244E+00 -0.1361348E+00
 -0.1639630E+01 -0.1664750E+02  0.0000000E+00  0.6614527E-01  0.2877167E+01  0.6384624E-01 -0.1728741E-01
  0.1994790E-06 -0.1672800E+02  0.0000000E+00  0.1019517E+00 -0.1599594E+01  0.2935534E-02  0.1019094E+00
  0.1639640E+01 -0.1664750E+02  0.0000000E+00  0.2247796E+00 -0.1322505E+01 -0.5523925E-01  0.2178864E+00
  0.3263470E+01 -0.1640660E+02  0.0000000E+00  0.3472914E+00 -0.1244021E+01 -0.1114773E+00  0.3289136E+00
  0.4855890E+01 -0.1600770E+02  0.0000000E+00  0.4277673E+00 -0.1193392E+01 -0.1576360E+00  0.3976629E+00
  0.6401530E+01 -0.1545470E+02  0.0000000E+00  0.4813482E+00 -0.1149533E+01 -0.1968298E+00  0.4392654E+00
  0.7885520E+01 -0.1475280E+02  0.0000000E+00  0.5173088E+00 -0.1109367E+01 -0.2303206E+00  0.4632071E+00
  0.9293580E+01 -0.1390880E+02  0.0000000E+00  0.5438610E+00 -0.1072474E+01 -0.2599397E+00  0.4777198E+00
  0.1061210E+02 -0.1293090E+02  0.0000000E+00  0.5692871E+00 -0.1041093E+01 -0.2876480E+00  0.4912702E+00
  0.1182850E+02 -0.1182850E+02  0.0000000E+00  0.5875737E+00 -0.1011571E+01 -0.3117252E+00  0.4980665E+00
  0.1293090E+02 -0.1061210E+02  0.0000000E+00  0.6036272E+00 -0.9859865E+00 -0.3332269E+00  0.5033147E+00
  0.1390880E+02 -0.9293580E+01  0.0000000E+00  0.6191661E+00 -0.9650908E+00 -0.3525174E+00  0.5090169E+00
  0.1475280E+02 -0.7885520E+01  0.0000000E+00  0.6263536E+00 -0.9434168E+00 -0.3676854E+00  0.5070761E+00
  0.1545470E+02 -0.6401530E+01  0.0000000E+00  0.6293017E+00 -0.9232951E+00 -0.3795918E+00  0.5019270E+00
  0.1600770E+02 -0.4855880E+01  0.0000000E+00  0.6317870E+00 -0.9074963E+00 -0.3890042E+00  0.4978258E+00
  0.1640660E+02 -0.3263470E+01  0.0000000E+00  0.6352263E+00 -0.8972819E+00 -0.3962141E+00  0.4965147E+00
  0.1664750E+02 -0.1639620E+01  0.0000000E+00  0.6383867E+00 -0.8917143E+00 -0.4009573E+00  0.4967603E+00
  0.1672800E+02  0.0000000E+00 -0.2568960E-01  0.6386445E+00 -0.8890877E+00 -0.4024231E+00  0.4959057E+00
  0.1664750E+02  0.1639630E+01 -0.2568960E-01  0.6374152E+00 -0.8890802E+00 -0.4016522E+00  0.4949481E+00
  0.1640660E+02  0.3263470E+01 -0.2568960E-01  0.6340438E+00 -0.8918869E+00 -0.3981443E+00  0.4934496E+00
  0.1600770E+02  0.4855880E+01 -0.2568960E-01  0.6305221E+00 -0.8991935E+00 -0.3923370E+00  0.4935886E+00
  0.1545470E+02  0.6401530E+01 -0.2568960E-01  0.6280150E+00 -0.9117972E+00 -0.3845498E+00  0.4965121E+00
  0.1475280E+02  0.7885530E+01 -0.2568960E-01  0.6250061E+00 -0.9283736E+00 -0.3744643E+00  0.5004090E+00
  0.1390880E+02  0.9293580E+01 -0.2568960E-01  0.6174472E+00 -0.9463652E+00 -0.3609817E+00  0.5009323E+00
  0.1293090E+02  0.1061210E+02 -0.2568960E-01  0.6008801E+00 -0.9637530E+00 -0.3427669E+00  0.4935258E+00
  0.1182850E+02  0.1182850E+02 -0.2568960E-01  0.5837992E+00 -0.9854555E+00 -0.3225395E+00  0.4866106E+00
  0.1061210E+02  0.1293090E+02 -0.2568960E-01  0.5642850E+00 -0.1010596E+01 -0.2998363E+00  0.4780332E+00
  0.9293580E+01  0.1390880E+02 -0.2568960E-01  0.5369121E+00 -0.1037416E+01 -0.2729914E+00  0.4623313E+00
  0.7885520E+01  0.1475280E+02 -0.2568960E-01  0.5077919E+00 -0.1068471E+01 -0.2444839E+00  0.4450621E+00
  0.6401530E+01  0.1545470E+02 -0.2568960E-01  0.4679428E+00 -0.1102129E+01 -0.2113685E+00  0.4174851E+00
  0.4855880E+01  0.1600770E+02 -0.2568960E-01  0.4084736E+00 -0.1139061E+01 -0.1709247E+00  0.3709925E+00
  0.3263470E+01  0.1640660E+02 -0.2568960E-01  0.3179599E+00 -0.1182117E+01 -0.1204961E+00  0.2942434E+00
  0.1639630E+01  0.1664750E+02 -0.2568960E-01  0.1823292E+00 -0.1267509E+01 -0.5445434E-01  0.1740077E+00
 -0.7312040E-06  0.1672800E+02 -0.2568960E-01  0.5639645E-01 -0.1830798E+01  0.1449852E-01  0.5450094E-01
 -0.1639630E+01  0.1664750E+02 -0.2568960E-01  0.1049654E+00  0.2528571E+01  0.8585262E-01 -0.6039099E-01
 -0.3263470E+01  0.1640660E+02 -0.2568960E-01  0.2307590E+00  0.2318222E+01  0.1568591E+00 -0.1692481E+00
 -0.4855880E+01  0.1600770E+02 -0.2568960E-01  0.3153221E+00  0.2295479E+01  0.2090264E+00 -0.2360847E+00
 -0.6401530E+01  0.1545470E+02 -0.2568960E-01  0.3711819E+00  0.2302105E+01  0.2478918E+00 -0.2762711E+00
 -0.7885530E+01  0.1475280E+02 -0.2568960E-01  0.4086541E+00  0.2320298E+01  0.2784055E+00 -0.2991463E+00
 -0.9293580E+01  0.1390880E+02 -0.2568960E-01  0.4361075E+00  0.2341532E+01  0.3038202E+00 -0.3128626E+00
 -0.1061210E+02  0.1293090E+02 -0.2568960E-01  0.4616699E+00  0.2358361E+01  0.3271565E+00 -0.3257417E+00
 -0.1182850E+02  0.1182850E+02 -0.2568960E-01  0.4797589E+00  0.2377134E+01  0.3462695E+00 -0.3320634E+00
 -0.1293090E+02  0.1061210E+02 -0.2568960E-01  0.4954802E+00  0.2393801E+01  0.3632824E+00 -0.3369369E+00
 -0.1390880E+02  0.9293580E+01 -0.2568960E-01  0.5105980E+00  0.2406783E+01  0.3788424E+00 -0.3423285E+00
 -0.1475280E+02  0.7885520E+01 -0.2568960E-01  0.5172343E+00  0.2423717E+01  0.3895834E+00 -0.3402294E+00
 -0.1545470E+02  0.6401530E+01 -0.2568960E-01  0.5195140E+00  0.2440697E+01  0.3970462E+00 -0.3350360E+00
 -0.1600770E+02  0.4855880E+01 -0.2568960E-01  0.5210873E+00  0.2453404E+01  0.4024867E+00 -0.3309630E+00
 -0.1640660E+02  0.3263470E+01 -0.2568960E-01  0.5232680E+00  0.2459873E+01  0.4063126E+00 -0.3297264E+00
 -0.1664750E+02  0.1639630E+01 -0.2568960E-01  0.5250604E+00  0.2461746E+01  0.4083235E+00 -0.3300915E+00
 -0.1672800E+02 -0.1462410E-05 -0.2568960E-01  0.5246973E+00  0.2461358E+01  0.4079128E+00 -0.3300218E+00
 -0.1664750E+02 -0.1639630E+01 -0.2568960E-01  0.5220159E+00  0.2459031E+01  0.4050631E+00 -0.3292787E+00
 -0.1640660E+02 -0.3263470E+01 -0.2568960E-01  0.5171727E+00  0.2454495E+01  0.3998211E+00 -0.3280407E+00
 -0.1600770E+02 -0.4855890E+01 -0.2568960E-01  0.5119018E+00  0.2444946E+01  0.3926276E+00 -0.3284615E+00
 -0.1545470E+02 -0.6401530E+01 -0.2568960E-01  0.5071505E+00  0.2428723E+01  0.3836535E+00 -0.3316801E+00
 -0.1475280E+02 -0.7885530E+01 -0.2568960E-01  0.5015932E+00  0.2407875E+01  0.3725283E+00 -0.3358845E+00
 -0.1390880E+02 -0.9293580E+01 -0.2568960E-01  0.4917477E+00  0.2387262E+01  0.3583515E+00 -0.3367492E+00
 -0.1293090E+02 -0.1061210E+02 -0.2568960E-01  0.4736876E+00  0.2371600E+01  0.3400679E+00 -0.3297481E+00
 -0.1182850E+02 -0.1182850E+02 -0.2568960E-01  0.4550287E+00  0.2351490E+01  0.3202366E+00 -0.3232640E+00
 -0.1061210E+02 -0.1293090E+02 -0.2568960E-01  0.4339629E+00  0.2328743E+01  0.2983200E+00 -0.3151650E+00
 -0.9293580E+01 -0.1390880E+02 -0.2568960E-01  0.4055149E+00  0.2308719E+01  0.2728110E+00 -0.3000275E+00
 -0.7885520E+01 -0.1475280E+02 -0.2568960E-01  0.3746881E+00  0.2283834E+01  0.2450964E+00 -0.2834059E+00
 -0.6401520E+01 -0.1545470E+02 -0.2568960E-01  0.3336203E+00  0.2263864E+01  0.2131500E+00 -0.2566507E+00
 -0.4855880E+01 -0.1600770E+02 -0.2568960E-01  0.2740306E+00  0.2261566E+01  0.1745933E+00 -0.2112107E+00
 -0.3263470E+01 -0.1640660E+02 -0.2568960E-01  0.1852103E+00  0.2317207E+01  0.1257593E+00 -0.1359686E+00
 -0.1639630E+01 -0.1664750E+02 -0.2568960E-01  0.6606340E-01  0.2876918E+01  0.6376292E-01 -0.1728187E-01
  0.1994790E-06 -0.1672800E+02 -0.2568960E-01  0.1018165E+00 -0.1599605E+01  0.2932769E-02  0.1017742E+00
  0.1639640E+01 -0.1664750E+02 -0.2568960E-01  0.2245001E+00 -0.1322510E+01 -0.5516937E-01  0.2176158E+00
  0.3263470E+01 -0.1640660E+02 -0.2568960E-01  0.3468398E+00 -0.1244025E+01 -0.1113312E+00  0.3284863E+00
  0.4855890E+01 -0.1600770E+02 -0.2568960E-01  0.4272506E+00 -0.1193412E+01 -0.1574375E+00  0.3971857E+00
  0.6401530E+01 -0.1545470E+02 -0.2568960E-01  0.4807251E+00 -0.1149547E+01 -0.1965691E+00  0.4386995E+00
  0.7885520E+01 -0.1475280E+02 -0.2568960E-01  0.5166355E+00 -0.1109383E+01 -0.2300137E+00  0.4626078E+00
  0.9293580E+01 -0.1390880E+02 -0.2568960E-01  0.5431630E+00 -0.1072497E+01 -0.2595952E+00  0.4771125E+00
  0.1061210E+02 -0.1293090E+02 -0.2568960E-01  0.5685247E+00 -0.1041099E+01 -0.2872598E+00  0.4906141E+00
  0.1182850E+02 -0.1182850E+02 -0.2568960E-01  0.5867933E+00 -0.1011580E+01 -0.3113067E+00  0.4974078E+00
  0.1293090E+02 -0.1061210E+02 -0.2568960E-01  0.6028140E+00 -0.9859998E+00 -0.3327712E+00  0.5026410E+00
  0.1390880E+02 -0.9293580E+01 -0.2568960E-01  0.6183025E+00 -0.9650831E+00 -0.3520296E+00  0.5083041E+00
  0.1475280E+02 -0.7885520E+01 -0.2568960E-01  0.6254947E+00 -0.9434192E+00 -0.3671800E+00  0.5063817E+00
  0.1545470E+02 -0.6401530E+01 -0.2568960E-01  0.6284695E+00 -0.9233162E+00 -0.3790792E+00  0.5012712E+00
  0.1600770E+02 -0.4855880E+01 -0.2568960E-01  0.6309754E+00 -0.9075313E+00 -0.3884871E+00  0.4971999E+00
  0.1640660E+02 -0.3263470E+01 -0.2568960E-01  0.6344166E+00 -0.8973219E+00 -0.3956892E+00  0.4958977E+00
  0.1664750E+02 -0.1639620E+01 -0.2568960E-01  0.6375713E+00 -0.8917534E+00 -0.4004258E+00  0.4961415E+00
  0.1672800E+02  0.0000000E+00 -0.1027320E+00  0.6362598E+00 -0.8892292E+00 -0.4008505E+00  0.4941107E+00
  0.1664750E+02  0.1639630E+01 -0.1027320E+00  0.6350428E+00 -0.8892143E+00 -0.4000911E+00  0.4931596E+00
  0.1640660E+02  0.3263470E+01 -0.1027320E+00  0.6316904E+00 -0.8920275E+00 -0.3965975E+00  0.4916739E+00
  0.1600770E+02  0.4855880E+01 -0.1027320E+00  0.6281577E+00 -0.8993185E+00 -0.3908044E+00  0.4917866E+00
  0.1545470E+02  0.6401530E+01 -0.1027320E+00  0.6255866E+00 -0.9118754E+00 -0.3830242E+00  0.4946221E+00
  0.1475280E+02  0.7885530E+01 -0.1027320E+00  0.6224853E+00 -0.9283962E+00 -0.3729427E+00  0.4983992E+00
  0.1390880E+02  0.9293580E+01 -0.1027320E+00  0.6149065E+00 -0.9463621E+00 -0.3594979E+00  0.4988700E+00
  0.1293090E+02  0.1061210E+02 -0.1027320E+00  0.5984997E+00 -0.9638019E+00 -0.3413851E+00  0.4915873E+00
  0.1182850E+02  0.1182850E+02 -0.1027320E+00  0.5815074E+00 -0.9855031E+00 -0.3212502E+00  0.4847156E+00
  0.1061210E+02  0.1293090E+02 -0.1027320E+00  0.5620455E+00 -0.1010629E+01 -0.2986305E+00  0.4761460E+00
  0.9293580E+01  0.1390880E+02 -0.1027320E+00  0.5348730E+00 -0.1037475E+01 -0.2719274E+00  0.4605916E+00
  0.7885520E+01  0.1475280E+02 -0.1027320E+00  0.5058258E+00 -0.1068506E+01 -0.2435220E+00  0.4433472E+00
  0.6401530E+01  0.1545470E+02 -0.1027320E+00  0.4661383E+00 -0.1102168E+01 -0.2105374E+00  0.4158833E+00
  0.4855880E+01  0.1600770E+02 -0.1027320E+00  0.4070003E+00 -0.1139105E+01 -0.1702919E+00  0.3696619E+00
  0.3263470E+01  0.1640660E+02 -0.1027320E+00  0.3167374E+00 -0.1182130E+01 -0.1200290E+00  0.2931136E+00
  0.1639630E+01  0.1664750E+02 -0.1027320E+00  0.1816356E+00 -0.1267408E+01 -0.5426462E-01  0.1733403E+00
 -0.7312040E-06  0.1672800E+02 -0.1027320E+00  0.5614383E-01 -0.1830873E+01  0.1443763E-01  0.5425573E-01
 -0.1639630E+01  0.1664750E+02 -0.1027320E+00  0.1046112E+00  0.2527964E+01  0.8552635E-01 -0.6023907E-01
 -0.3263470E+01  0.1640660E+02 -0.1027320E+00  0.2299093E+00  0.2318072E+01  0.1562562E+00 -0.1686483E+00
 -0.4855880E+01  0.1600770E+02 -0.1027320E+00  0.3142357E+00  0.2295257E+01  0.2082539E+00 -0.2353177E+00
 -0.6401530E+01  0.1545470E+02 -0.1027320E+00  0.3697826E+00  0.2302007E+01  0.2469302E+00 -0.2752538E+00
 -0.7885530E+01  0.1475280E+02 -0.1027320E+00  0.4071022E+00  0.2320196E+01  0.2773178E+00 -0.2980386E+00
 -0.9293580E+01  0.1390880E+02 -0.1027320E+00  0.4344825E+00  0.2341383E+01  0.3026416E+00 -0.3117421E+00
 -0.1061210E+02  0.1293090E+02 -0.1027320E+00  0.4598586E+00  0.2358296E+01  0.3258516E+00 -0.3244852E+00
 -0.1182850E+02  0.1182850E+02 -0.1027320E+00  0.4778999E+00  0.2377050E+01  0.3448999E+00 -0.3308057E+00
 -0.1293090E+02  0.1061210E+02 -0.1027320E+00  0.4935403E+00  0.2393734E+01  0.3618376E+00 -0.3356420E+00
 -0.1390880E+02  0.9293580E+01 -0.1027320E+00  0.5085068E+00  0.2406791E+01  0.3772937E+00 -0.3409231E+00
 -0.1475280E+02  0.7885520E+01 -0.1027320E+00  0.5151639E+00  0.2423677E+01  0.3880105E+00 -0.3388830E+00
 -0.1545470E+02  0.6401530E+01 -0.1027320E+00  0.5175275E+00  0.2440555E+01  0.3954805E+00 -0.3338111E+00
 -0.1600770E+02  0.4855880E+01 -0.1027320E+00  0.5191615E+00  0.2453178E+01  0.4009247E+00 -0.3298303E+00
 -0.1640660E+02  0.3263470E+01 -0.1027320E+00  0.5213537E+00  0.2459621E+01  0.4047433E+00 -0.3286222E+00
 -0.1664750E+02  0.1639630E+01 -0.1027320E+00  0.5231340E+00  0.2461497E+01  0.4067432E+00 -0.3289820E+00
 -0.1672800E+02 -0.1462410E-05 -0.1027320E+00  0.5227683E+00  0.2461107E+01  0.4063307E+00 -0.3289105E+00
 -0.1664750E+02 -0.1639630E+01 -0.1027320E+00  0.5200971E+00  0.2458776E+01  0.4034905E+00 -0.3281713E+00
 -0.1640660E+02 -0.3263470E+01 -0.1027320E+00  0.5152805E+00  0.2454227E+01  0.3982708E+00 -0.3269471E+00
 -0.1600770E+02 -0.4855890E+01 -0.1027320E+00  0.5100084E+00  0.2444708E+01  0.3910975E+00 -0.3273397E+00
 -0.1545470E+02 -0.6401530E+01 -0.1027320E+00  0.5052105E+00  0.2428571E+01  0.3821356E+00 -0.3304695E+00
 -0.1475280E+02 -0.7885530E+01 -0.1027320E+00  0.4995868E+00  0.2407842E+01  0.3710270E+00 -0.3345534E+00
 -0.1390880E+02 -0.9293580E+01 -0.1027320E+00  0.4897360E+00  0.2387285E+01  0.3568931E+00 -0.3353635E+00
 -0.1293090E+02 -0.1061210E+02 -0.1027320E+00  0.4718373E+00  0.2371524E+01  0.3387146E+00 -0.3284857E+00
 -0.1182850E+02 -0.1182850E+02 -0.1027320E+00  0.4532656E+00  0.2351391E+01  0.3189639E+00 -0.3220431E+00
 -0.1061210E+02 -0.1293090E+02 -0.1027320E+00  0.4322606E+00  0.2328673E+01  0.2971276E+00 -0.3139496E+00
 -0.9293580E+01 -0.1390880E+02 -0.1027320E+00  0.4040063E+00  0.2308546E+01  0.2717446E+00 -0.2989582E+00
 -0.7885520E+01 -0.1475280E+02 -0.1027320E+00  0.3732679E+00  0.2283721E+01  0.2441354E+00 -0.2823594E+00
 -0.6401520E+01 -0.1545470E+02 -0.1027320E+00  0.3323673E+00  0.2263736E+01  0.2123167E+00 -0.2557139E+00
 -0.4855880E+01 -0.1600770E+02 -0.1027320E+00  0.2730976E+00  0.2261290E+01  0.1739408E+00 -0.2105395E+00
 -0.3263470E+01 -0.1640660E+02 -0.1027320E+00  0.1845333E+00  0.2317028E+01  0.1252753E+00 -0.1354940E+00
 -0.1639630E+01 -0.1664750E+02 -0.1027320E+00  0.6581882E-01  0.2876123E+01  0.6351314E-01 -0.1726838E-01
  0.1994790E-06 -0.1672800E+02 -0.1027320E+00  0.1014103E+00 -0.1599565E+01  0.2917072E-02  0.1013683E+00
  0.1639640E+01 -0.1664750E+02 -0.1027320E+00  0.2236677E+00 -0.1322498E+01 -0.5496743E-01  0.2168083E+00
  0.3263470E+01 -0.1640660E+02 -0.1027320E+00  0.3455066E+00 -0.1244058E+01 -0.1108923E+00  0.3272274E+00
  0.4855890E+01 -0.1600770E+02 -0.1027320E+00  0.4256997E+00 -0.1193472E+01 -0.1568422E+00  0.3957533E+00
  0.6401530E+01 -0.1545470E+02 -0.1027320E+00  0.4788651E+00 -0.1149600E+01 -0.1957851E+00  0.4370126E+00
  0.7885520E+01 -0.1475280E+02 -0.1027320E+00  0.5146298E+00 -0.1109437E+01 -0.2290956E+00  0.4608244E+00
  0.9293580E+01 -0.1390880E+02 -0.1027320E+00  0.5410947E+00 -0.1072568E+01 -0.2585728E+00  0.4753142E+00
  0.1061210E+02 -0.1293090E+02 -0.1027320E+00  0.5662665E+00 -0.1041142E+01 -0.2860976E+00  0.4886778E+00
  0.1182850E+02 -0.1182850E+02 -0.1027320E+00  0.5844833E+00 -0.1011639E+01 -0.3100518E+00  0.4954681E+00
  0.1293090E+02 -0.1061210E+02 -0.1027320E+00  0.6004236E+00 -0.9860439E+00 -0.3314296E+00  0.5006625E+00
  0.1390880E+02 -0.9293580E+01 -0.1027320E+00  0.6157631E+00 -0.9650774E+00 -0.3505867E+00  0.5062145E+00
