 VARIABLES="X" "Y" "Z" "abs(eta) (m)" "angle(phi) (rad)" "PRE1" "PRE2"
ZONE N=   3200 ,E =    3136 ,F=FEPOINT,ET=QUADRILATERAL
  0.1672800E+02  0.0000000E+00  0.0000000E+00  0.5893809E-01 -0.2738700E+01  0.5421895E-01  0.2310851E-01
  0.1664750E+02  0.1639630E+01  0.0000000E+00  0.6303675E-01 -0.2806875E+01  0.5953840E-01  0.2070776E-01
  0.1640660E+02  0.3263470E+01  0.0000000E+00  0.6748384E-01 -0.2866199E+01  0.6494094E-01  0.1835058E-01
  0.1600770E+02  0.4855880E+01  0.0000000E+00  0.7220658E-01 -0.2919878E+01  0.7043910E-01  0.1587840E-01
  0.1545470E+02  0.6401530E+01  0.0000000E+00  0.7724068E-01 -0.2972011E+01  0.7613270E-01  0.1303594E-01
  0.1475280E+02  0.7885530E+01  0.0000000E+00  0.8232448E-01 -0.3020173E+01  0.8171838E-01  0.9971248E-02
  0.1390880E+02  0.9293580E+01  0.0000000E+00  0.8740270E-01 -0.3065083E+01  0.8714701E-01  0.6680597E-02
  0.1293090E+02  0.1061210E+02  0.0000000E+00  0.9278279E-01 -0.3110198E+01  0.9273706E-01  0.2912422E-02
  0.1182850E+02  0.1182850E+02  0.0000000E+00  0.9899754E-01  0.3122845E+01  0.9898014E-01 -0.1855886E-02
  0.1061210E+02  0.1293090E+02  0.0000000E+00  0.1051085E+00  0.3078305E+01  0.1048981E+00 -0.6647616E-02
  0.9293580E+01  0.1390880E+02  0.0000000E+00  0.1113827E+00  0.3036360E+01  0.1107665E+00 -0.1169950E-01
  0.7885520E+01  0.1475280E+02  0.0000000E+00  0.1179517E+00  0.2997475E+01  0.1167289E+00 -0.1694009E-01
  0.6401530E+01  0.1545470E+02  0.0000000E+00  0.1260174E+00  0.2956423E+01  0.1238631E+00 -0.2320155E-01
  0.4855880E+01  0.1600770E+02  0.0000000E+00  0.1365769E+00  0.2912686E+01  0.1330143E+00 -0.3099108E-01
  0.3263470E+01  0.1640660E+02  0.0000000E+00  0.1494804E+00  0.2871669E+01  0.1440679E+00 -0.3986006E-01
  0.1639630E+01  0.1664750E+02  0.0000000E+00  0.1595443E+00  0.2843533E+01  0.1525097E+00 -0.4685274E-01
 -0.7312040E-06  0.1672800E+02  0.0000000E+00  0.1463826E+00  0.2866898E+01  0.1408944E+00 -0.3970672E-01
 -0.1639630E+01  0.1664750E+02  0.0000000E+00  0.1071720E+00  0.2997934E+01  0.1060680E+00 -0.1534326E-01
 -0.3263470E+01  0.1640660E+02  0.0000000E+00  0.5847687E-01 -0.2748199E+01  0.5401002E-01  0.2241566E-01
 -0.4855880E+01  0.1600770E+02  0.0000000E+00  0.5308617E-01 -0.1806526E+01  0.1239842E-01  0.5161802E-01
 -0.6401530E+01  0.1545470E+02  0.0000000E+00  0.7203950E-01 -0.1338662E+01 -0.1657304E-01  0.7010723E-01
 -0.7885530E+01  0.1475280E+02  0.0000000E+00  0.9073476E-01 -0.1136113E+01 -0.3821054E-01  0.8229672E-01
 -0.9293580E+01  0.1390880E+02  0.0000000E+00  0.1073984E+00 -0.1017925E+01 -0.5639842E-01  0.9139820E-01
 -0.1061210E+02  0.1293090E+02  0.0000000E+00  0.1206892E+00 -0.9409167E+00 -0.7109167E-01  0.9752874E-01
 -0.1182850E+02  0.1182850E+02  0.0000000E+00  0.1331734E+00 -0.8820460E+00 -0.8464138E-01  0.1028153E+00
 -0.1293090E+02  0.1061210E+02  0.0000000E+00  0.1436834E+00 -0.8370003E+00 -0.9622383E-01  0.1067047E+00
 -0.1390880E+02  0.9293580E+01  0.0000000E+00  0.1518700E+00 -0.8026835E+00 -0.1055161E+00  0.1092284E+00
 -0.1475280E+02  0.7885520E+01  0.0000000E+00  0.1593385E+00 -0.7757905E+00 -0.1137466E+00  0.1115817E+00
 -0.1545470E+02  0.6401530E+01  0.0000000E+00  0.1664619E+00 -0.7553456E+00 -0.1211900E+00  0.1141164E+00
 -0.1600770E+02  0.4855880E+01  0.0000000E+00  0.1733613E+00 -0.7409781E+00 -0.1279074E+00  0.1170206E+00
 -0.1640660E+02  0.3263470E+01  0.0000000E+00  0.1789210E+00 -0.7320710E+00 -0.1330799E+00  0.1195928E+00
 -0.1664750E+02  0.1639630E+01  0.0000000E+00  0.1834428E+00 -0.7286928E+00 -0.1368567E+00  0.1221536E+00
 -0.1672800E+02 -0.1462410E-05  0.0000000E+00  0.1870830E+00 -0.7309707E+00 -0.1392883E+00  0.1248952E+00
 -0.1664750E+02 -0.1639630E+01  0.0000000E+00  0.1901622E+00 -0.7385342E+00 -0.1406166E+00  0.1280181E+00
 -0.1640660E+02 -0.3263470E+01  0.0000000E+00  0.1923806E+00 -0.7508848E+00 -0.1406466E+00  0.1312585E+00
 -0.1600770E+02 -0.4855890E+01  0.0000000E+00  0.1937765E+00 -0.7686644E+00 -0.1392943E+00  0.1347088E+00
 -0.1545470E+02 -0.6401530E+01  0.0000000E+00  0.1943654E+00 -0.7934996E+00 -0.1363192E+00  0.1385460E+00
 -0.1475280E+02 -0.7885530E+01  0.0000000E+00  0.1946215E+00 -0.8236973E+00 -0.1322479E+00  0.1427866E+00
 -0.1390880E+02 -0.9293580E+01  0.0000000E+00  0.1945897E+00 -0.8596781E+00 -0.1270051E+00  0.1474275E+00
 -0.1293090E+02 -0.1061210E+02  0.0000000E+00  0.1942373E+00 -0.9027195E+00 -0.1203256E+00  0.1524791E+00
 -0.1182850E+02 -0.1182850E+02  0.0000000E+00  0.1934104E+00 -0.9579555E+00 -0.1112484E+00  0.1582130E+00
 -0.1061210E+02 -0.1293090E+02  0.0000000E+00  0.1920770E+00 -0.1020797E+01 -0.1003961E+00  0.1637504E+00
 -0.9293580E+01 -0.1390880E+02  0.0000000E+00  0.1908160E+00 -0.1091444E+01 -0.8800525E-01  0.1693098E+00
 -0.7885520E+01 -0.1475280E+02  0.0000000E+00  0.1892686E+00 -0.1175805E+01 -0.7283060E-01  0.1746949E+00
 -0.6401520E+01 -0.1545470E+02  0.0000000E+00  0.1886341E+00 -0.1278835E+01 -0.5429484E-01  0.1806513E+00
 -0.4855880E+01 -0.1600770E+02  0.0000000E+00  0.1899136E+00 -0.1411061E+01 -0.3020706E-01  0.1874959E+00
 -0.3263470E+01 -0.1640660E+02  0.0000000E+00  0.1946336E+00 -0.1580122E+01  0.1815071E-02  0.1946252E+00
 -0.1639630E+01 -0.1664750E+02  0.0000000E+00  0.2029872E+00 -0.1759793E+01  0.3813593E-01  0.1993727E+00
  0.1994790E-06 -0.1672800E+02  0.0000000E+00  0.1993574E+00 -0.1862503E+01  0.5733271E-01  0.1909354E+00
  0.1639640E+01 -0.1664750E+02  0.0000000E+00  0.1755445E+00 -0.1893198E+01  0.5562041E-01  0.1665000E+00
  0.3263470E+01 -0.1640660E+02  0.0000000E+00  0.1350864E+00 -0.1853672E+01  0.3770512E-01  0.1297176E+00
  0.4855890E+01 -0.1600770E+02  0.0000000E+00  0.1040851E+00 -0.1804314E+01  0.2408543E-01  0.1012601E+00
  0.6401530E+01 -0.1545470E+02  0.0000000E+00  0.8476393E-01 -0.1777031E+01  0.1735763E-01  0.8296768E-01
  0.7885520E+01 -0.1475280E+02  0.0000000E+00  0.7213455E-01 -0.1781208E+01  0.1506617E-01  0.7054362E-01
  0.9293580E+01 -0.1390880E+02  0.0000000E+00  0.6272765E-01 -0.1810912E+01  0.1491761E-01  0.6092801E-01
  0.1061210E+02 -0.1293090E+02  0.0000000E+00  0.5653844E-01 -0.1865481E+01  0.1642090E-01  0.5410129E-01
  0.1182850E+02 -0.1182850E+02  0.0000000E+00  0.5145048E-01 -0.1936543E+01  0.1840110E-01  0.4804739E-01
  0.1293090E+02 -0.1061210E+02  0.0000000E+00  0.4817899E-01 -0.2023931E+01  0.2109207E-01  0.4331674E-01
  0.1390880E+02 -0.9293580E+01  0.0000000E+00  0.4711375E-01 -0.2131516E+01  0.2505488E-01  0.3989935E-01
  0.1475280E+02 -0.7885520E+01  0.0000000E+00  0.4707761E-01 -0.2244918E+01  0.2938637E-01  0.3677965E-01
  0.1545470E+02 -0.6401530E+01  0.0000000E+00  0.4780196E-01 -0.2357122E+01  0.3383244E-01  0.3376971E-01
  0.1600770E+02 -0.4855880E+01  0.0000000E+00  0.4910651E-01 -0.2466722E+01  0.3834175E-01  0.3068157E-01
  0.1640660E+02 -0.3263470E+01  0.0000000E+00  0.5168346E-01 -0.2568903E+01  0.4343719E-01  0.2800697E-01
  0.1664750E+02 -0.1639620E+01  0.0000000E+00  0.5506896E-01 -0.2659561E+01  0.4879412E-01  0.2552889E-01
  0.1672800E+02  0.0000000E+00 -0.2568960E-01  0.5884570E-01 -0.2738775E+01  0.5413569E-01  0.2306824E-01
  0.1664750E+02  0.1639630E+01 -0.2568960E-01  0.6293906E-01 -0.2806942E+01  0.5944752E-01  0.2067168E-01
  0.1640660E+02  0.3263470E+01 -0.2568960E-01  0.6738055E-01 -0.2866274E+01  0.6484291E-01  0.1831763E-01
  0.1600770E+02  0.4855880E+01 -0.2568960E-01  0.7209657E-01 -0.2919960E+01  0.7033308E-01  0.1584844E-01
  0.1545470E+02  0.6401530E+01 -0.2568960E-01  0.7712296E-01 -0.2972090E+01  0.7601770E-01  0.1300999E-01
  0.1475280E+02  0.7885530E+01 -0.2568960E-01  0.8219929E-01 -0.3020248E+01  0.8159486E-01  0.9949975E-02
  0.1390880E+02  0.9293580E+01 -0.2568960E-01  0.8727144E-01 -0.3065154E+01  0.8701660E-01  0.6664405E-02
  0.1293090E+02  0.1061210E+02 -0.2568960E-01  0.9264370E-01 -0.3110252E+01  0.9259821E-01  0.2903066E-02
  0.1182850E+02  0.1182850E+02 -0.2568960E-01  0.9884474E-01  0.3122835E+01  0.9882735E-01 -0.1853986E-02
  0.1061210E+02  0.1293090E+02 -0.2568960E-01  0.1049463E+00  0.3078302E+01  0.1047361E+00 -0.6637723E-02
  0.9293580E+01  0.1390880E+02 -0.2568960E-01  0.1112108E+00  0.3036352E+01  0.1105955E+00 -0.1168227E-01
  0.7885520E+01  0.1475280E+02 -0.2568960E-01  0.1177746E+00  0.2997450E+01  0.1165532E+00 -0.1691760E-01
  0.6401530E+01  0.1545470E+02 -0.2568960E-01  0.1258289E+00  0.2956397E+01  0.1236773E+00 -0.2316997E-01
  0.4855880E+01  0.1600770E+02 -0.2568960E-01  0.1363708E+00  0.2912672E+01  0.1328132E+00 -0.3094613E-01
  0.3263470E+01  0.1640660E+02 -0.2568960E-01  0.1492705E+00  0.2871621E+01  0.1438637E+00 -0.3981110E-01
  0.1639630E+01  0.1664750E+02 -0.2568960E-01  0.1593114E+00  0.2843507E+01  0.1522859E+00 -0.4678839E-01
 -0.7312040E-06  0.1672800E+02 -0.2568960E-01  0.1461775E+00  0.2866849E+01  0.1406951E+00 -0.3965799E-01
 -0.1639630E+01  0.1664750E+02 -0.2568960E-01  0.1070129E+00  0.2997916E+01  0.1059102E+00 -0.1532238E-01
 -0.3263470E+01  0.1640660E+02 -0.2568960E-01  0.5839472E-01 -0.2748367E+01  0.5393792E-01  0.2237509E-01
 -0.4855880E+01  0.1600770E+02 -0.2568960E-01  0.5300396E-01 -0.1806633E+01  0.1238471E-01  0.5153677E-01
 -0.6401530E+01  0.1545470E+02 -0.2568960E-01  0.7192118E-01 -0.1338781E+01 -0.1653753E-01  0.6999405E-01
 -0.7885530E+01  0.1475280E+02 -0.2568960E-01  0.9059206E-01 -0.1136152E+01 -0.3814725E-01  0.8216877E-01
 -0.9293580E+01  0.1390880E+02 -0.2568960E-01  0.1072222E+00 -0.1017984E+01 -0.5630052E-01  0.9125153E-01
 -0.1061210E+02  0.1293090E+02 -0.2568960E-01  0.1204994E+00 -0.9409477E+00 -0.7097683E-01  0.9737755E-01
 -0.1182850E+02  0.1182850E+02 -0.2568960E-01  0.1329583E+00 -0.8820795E+00 -0.8450126E-01  0.1026521E+00
 -0.1293090E+02  0.1061210E+02 -0.2568960E-01  0.1434487E+00 -0.8370380E+00 -0.9606266E-01  0.1065340E+00
 -0.1390880E+02  0.9293580E+01 -0.2568960E-01  0.1516294E+00 -0.8027152E+00 -0.1053455E+00  0.1090587E+00
 -0.1475280E+02  0.7885520E+01 -0.2568960E-01  0.1590904E+00 -0.7758151E+00 -0.1135668E+00  0.1114107E+00
 -0.1545470E+02  0.6401530E+01 -0.2568960E-01  0.1662022E+00 -0.7553718E+00 -0.1209980E+00  0.1139415E+00
 -0.1600770E+02  0.4855880E+01 -0.2568960E-01  0.1730862E+00 -0.7410074E+00 -0.1277011E+00  0.1168387E+00
 -0.1640660E+02  0.3263470E+01 -0.2568960E-01  0.1786343E+00 -0.7320963E+00 -0.1328637E+00  0.1194046E+00
 -0.1664750E+02  0.1639630E+01 -0.2568960E-01  0.1831475E+00 -0.7287150E+00 -0.1366337E+00  0.1219600E+00
 -0.1672800E+02 -0.1462410E-05 -0.2568960E-01  0.1867821E+00 -0.7309901E+00 -0.1390618E+00  0.1246970E+00
 -0.1664750E+02 -0.1639630E+01 -0.2568960E-01  0.1898553E+00 -0.7385573E+00 -0.1403867E+00  0.1278148E+00
 -0.1640660E+02 -0.3263470E+01 -0.2568960E-01  0.1920701E+00 -0.7509089E+00 -0.1404165E+00  0.1310501E+00
 -0.1600770E+02 -0.4855890E+01 -0.2568960E-01  0.1934648E+00 -0.7686925E+00 -0.1390664E+00  0.1344959E+00
 -0.1545470E+02 -0.6401530E+01 -0.2568960E-01  0.1940537E+00 -0.7935245E+00 -0.1360971E+00  0.1383272E+00
 -0.1475280E+02 -0.7885530E+01 -0.2568960E-01  0.1943094E+00 -0.8237243E+00 -0.1320320E+00  0.1425612E+00
 -0.1390880E+02 -0.9293580E+01 -0.2568960E-01  0.1942766E+00 -0.8597157E+00 -0.1267952E+00  0.1471950E+00
 -0.1293090E+02 -0.1061210E+02 -0.2568960E-01  0.1939224E+00 -0.9027665E+00 -0.1201234E+00  0.1522375E+00
 -0.1182850E+02 -0.1182850E+02 -0.2568960E-01  0.1930959E+00 -0.9579828E+00 -0.1110632E+00  0.1579589E+00
 -0.1061210E+02 -0.1293090E+02 -0.2568960E-01  0.1917655E+00 -0.1020820E+01 -0.1002296E+00  0.1634872E+00
 -0.9293580E+01 -0.1390880E+02 -0.2568960E-01  0.1905050E+00 -0.1091486E+01 -0.8785461E-01  0.1690376E+00
 -0.7885520E+01 -0.1475280E+02 -0.2568960E-01  0.1889640E+00 -0.1175853E+01 -0.7270503E-01  0.1744172E+00
 -0.6401520E+01 -0.1545470E+02 -0.2568960E-01  0.1883310E+00 -0.1278903E+01 -0.5419526E-01  0.1803647E+00
 -0.4855880E+01 -0.1600770E+02 -0.2568960E-01  0.1896093E+00 -0.1411119E+01 -0.3014791E-01  0.1871973E+00
 -0.3263470E+01 -0.1640660E+02 -0.2568960E-01  0.1943334E+00 -0.1580232E+01  0.1833641E-02  0.1943247E+00
 -0.1639630E+01 -0.1664750E+02 -0.2568960E-01  0.2026723E+00 -0.1759874E+01  0.3809284E-01  0.1990603E+00
  0.1994790E-06 -0.1672800E+02 -0.2568960E-01  0.1990562E+00 -0.1862620E+01  0.5726823E-01  0.1906403E+00
  0.1639640E+01 -0.1664750E+02 -0.2568960E-01  0.1752689E+00 -0.1893293E+01  0.5554887E-01  0.1662333E+00
  0.3263470E+01 -0.1640660E+02 -0.2568960E-01  0.1348769E+00 -0.1853816E+01  0.3766530E-01  0.1295110E+00
  0.4855890E+01 -0.1600770E+02 -0.2568960E-01  0.1039166E+00 -0.1804424E+01  0.2405756E-01  0.1010935E+00
  0.6401530E+01 -0.1545470E+02 -0.2568960E-01  0.8462859E-01 -0.1777175E+01  0.1734186E-01  0.8283271E-01
  0.7885520E+01 -0.1475280E+02 -0.2568960E-01  0.7201415E-01 -0.1781330E+01  0.1504964E-01  0.7042404E-01
  0.9293580E+01 -0.1390880E+02 -0.2568960E-01  0.6262728E-01 -0.1811053E+01  0.1490226E-01  0.6082843E-01
  0.1061210E+02 -0.1293090E+02 -0.2568960E-01  0.5644279E-01 -0.1865596E+01  0.1639936E-01  0.5400787E-01
  0.1182850E+02 -0.1182850E+02 -0.2568960E-01  0.5136660E-01 -0.1936674E+01  0.1837740E-01  0.4796664E-01
  0.1293090E+02 -0.1061210E+02 -0.2568960E-01  0.4810333E-01 -0.2024116E+01  0.2106697E-01  0.4324480E-01
  0.1390880E+02 -0.9293580E+01 -0.2568960E-01  0.4703512E-01 -0.2131708E+01  0.2502074E-01  0.3982795E-01
  0.1475280E+02 -0.7885520E+01 -0.2568960E-01  0.4699699E-01 -0.2245115E+01  0.2934330E-01  0.3671087E-01
  0.1545470E+02 -0.6401530E+01 -0.2568960E-01  0.4772109E-01 -0.2357324E+01  0.3378199E-01  0.3370578E-01
  0.1600770E+02 -0.4855880E+01 -0.2568960E-01  0.4902736E-01 -0.2466888E+01  0.3828505E-01  0.3062576E-01
  0.1640660E+02 -0.3263470E+01 -0.2568960E-01  0.5160197E-01 -0.2569037E+01  0.4337244E-01  0.2795702E-01
  0.1664750E+02 -0.1639620E+01 -0.2568960E-01  0.5498195E-01 -0.2659652E+01  0.4871935E-01  0.2548411E-01
  0.1672800E+02  0.0000000E+00 -0.1027320E+00  0.5856609E-01 -0.2739083E+01  0.5388553E-01  0.2294203E-01
  0.1664750E+02  0.1639630E+01 -0.1027320E+00  0.6264365E-01 -0.2807227E+01  0.5917437E-01  0.2055774E-01
  0.1640660E+02  0.3263470E+01 -0.1027320E+00  0.6706847E-01 -0.2866583E+01  0.6454822E-01  0.1821283E-01
  0.1600770E+02  0.4855880E+01 -0.1027320E+00  0.7176565E-01 -0.2920298E+01  0.7001557E-01  0.1575208E-01
  0.1545470E+02  0.6401530E+01 -0.1027320E+00  0.7676964E-01 -0.2972404E+01  0.7567351E-01  0.1292667E-01
  0.1475280E+02  0.7885530E+01 -0.1027320E+00  0.8182502E-01 -0.3020543E+01  0.8122626E-01  0.9880695E-02
  0.1390880E+02  0.9293580E+01 -0.1027320E+00  0.8687751E-01 -0.3065428E+01  0.8662564E-01  0.6610563E-02
  0.1293090E+02  0.1061210E+02 -0.1027320E+00  0.9222519E-01 -0.3110467E+01  0.9218052E-01  0.2870107E-02
  0.1182850E+02  0.1182850E+02 -0.1027320E+00  0.9838631E-01  0.3122754E+01  0.9836885E-01 -0.1853349E-02
  0.1061210E+02  0.1293090E+02 -0.1027320E+00  0.1044583E+00  0.3078237E+01  0.1042488E+00 -0.6613580E-02
  0.9293580E+01  0.1390880E+02 -0.1027320E+00  0.1106985E+00  0.3036300E+01  0.1100855E+00 -0.1163422E-01
  0.7885520E+01  0.1475280E+02 -0.1027320E+00  0.1172437E+00  0.2997347E+01  0.1160261E+00 -0.1685330E-01
  0.6401530E+01  0.1545470E+02 -0.1027320E+00  0.1252630E+00  0.2956301E+01  0.1231188E+00 -0.2307764E-01
  0.4855880E+01  0.1600770E+02 -0.1027320E+00  0.1357530E+00  0.2912616E+01  0.1322097E+00 -0.3081337E-01
  0.3263470E+01  0.1640660E+02 -0.1027320E+00  0.1486396E+00  0.2871455E+01  0.1432491E+00 -0.3966651E-01
  0.1639630E+01  0.1664750E+02 -0.1027320E+00  0.1586166E+00  0.2843413E+01  0.1516173E+00 -0.4659843E-01
 -0.7312040E-06  0.1672800E+02 -0.1027320E+00  0.1455628E+00  0.2866693E+01  0.1400973E+00 -0.3951302E-01
 -0.1639630E+01  0.1664750E+02 -0.1027320E+00  0.1065414E+00  0.2997821E+01  0.1054422E+00 -0.1526495E-01
 -0.3263470E+01  0.1640660E+02 -0.1027320E+00  0.5814001E-01 -0.2748715E+01  0.5371039E-01  0.2225882E-01
 -0.4855880E+01  0.1600770E+02 -0.1027320E+00  0.5275613E-01 -0.1806923E+01  0.1234170E-01  0.5129221E-01
 -0.6401530E+01  0.1545470E+02 -0.1027320E+00  0.7156875E-01 -0.1339096E+01 -0.1643450E-01  0.6965625E-01
 -0.7885530E+01  0.1475280E+02 -0.1027320E+00  0.9016730E-01 -0.1136247E+01 -0.3796062E-01  0.8178712E-01
 -0.9293580E+01  0.1390880E+02 -0.1027320E+00  0.1066965E+00 -0.1018137E+01 -0.5601054E-01  0.9081274E-01
 -0.1061210E+02  0.1293090E+02 -0.1027320E+00  0.1199332E+00 -0.9410228E+00 -0.7063606E-01  0.9692533E-01
 -0.1182850E+02  0.1182850E+02 -0.1027320E+00  0.1323192E+00 -0.8821748E+00 -0.8408535E-01  0.1021667E+00
 -0.1293090E+02  0.1061210E+02 -0.1027320E+00  0.1427518E+00 -0.8371385E+00 -0.9558528E-01  0.1060260E+00
 -0.1390880E+02  0.9293580E+01 -0.1027320E+00  0.1509159E+00 -0.8027954E+00 -0.1048411E+00  0.1085539E+00
 -0.1475280E+02  0.7885520E+01 -0.1027320E+00  0.1583550E+00 -0.7758849E+00 -0.1130341E+00  0.1109036E+00
 -0.1545470E+02  0.6401530E+01 -0.1027320E+00  0.1654335E+00 -0.7554415E+00 -0.1204304E+00  0.1134229E+00
 -0.1600770E+02  0.4855880E+01 -0.1027320E+00  0.1722702E+00 -0.7410778E+00 -0.1270909E+00  0.1162968E+00
 -0.1640660E+02  0.3263470E+01 -0.1027320E+00  0.1777865E+00 -0.7321678E+00 -0.1322246E+00  0.1188473E+00
 -0.1664750E+02  0.1639630E+01 -0.1027320E+00  0.1822754E+00 -0.7287790E+00 -0.1359753E+00  0.1213880E+00
 -0.1672800E+02 -0.1462410E-05 -0.1027320E+00  0.1858910E+00 -0.7310467E+00 -0.1383914E+00  0.1241100E+00
 -0.1664750E+02 -0.1639630E+01 -0.1027320E+00  0.1889471E+00 -0.7386183E+00 -0.1397074E+00  0.1272119E+00
 -0.1640660E+02 -0.3263470E+01 -0.1027320E+00  0.1911516E+00 -0.7509848E+00 -0.1397351E+00  0.1304340E+00
 -0.1600770E+02 -0.4855890E+01 -0.1027320E+00  0.1925423E+00 -0.7687809E+00 -0.1383915E+00  0.1338669E+00
 -0.1545470E+02 -0.6401530E+01 -0.1027320E+00  0.1931327E+00 -0.7935985E+00 -0.1354410E+00  0.1376807E+00
 -0.1475280E+02 -0.7885530E+01 -0.1027320E+00  0.1933860E+00 -0.8238057E+00 -0.1313930E+00  0.1418945E+00
 -0.1390880E+02 -0.9293580E+01 -0.1027320E+00  0.1933488E+00 -0.8598263E+00 -0.1261735E+00  0.1465060E+00
 -0.1293090E+02 -0.1061210E+02 -0.1027320E+00  0.1929882E+00 -0.9029047E+00 -0.1195237E+00  0.1515207E+00
 -0.1182850E+02 -0.1182850E+02 -0.1027320E+00  0.1921622E+00 -0.9580624E+00 -0.1105137E+00  0.1572038E+00
 -0.1061210E+02 -0.1293090E+02 -0.1027320E+00  0.1908407E+00 -0.1020881E+01 -0.9973621E-01  0.1627048E+00
 -0.9293580E+01 -0.1390880E+02 -0.1027320E+00  0.1895815E+00 -0.1091604E+01 -0.8740886E-01  0.1682285E+00
 -0.7885520E+01 -0.1475280E+02 -0.1027320E+00  0.1880582E+00 -0.1175985E+01 -0.7233365E-01  0.1735907E+00
 -0.6401520E+01 -0.1545470E+02 -0.1027320E+00  0.1874289E+00 -0.1279088E+01 -0.5390237E-01  0.1795108E+00
 -0.4855880E+01 -0.1600770E+02 -0.1027320E+00  0.1887031E+00 -0.1411282E+01 -0.2997344E-01  0.1863074E+00
 -0.3263470E+01 -0.1640660E+02 -0.1027320E+00  0.1934387E+00 -0.1580527E+01  0.1882251E-02  0.1934295E+00
 -0.1639630E+01 -0.1664750E+02 -0.1027320E+00  0.2017348E+00 -0.1760114E+01  0.3796425E-01  0.1981304E+00
  0.1994790E-06 -0.1672800E+02 -0.1027320E+00  0.1981561E+00 -0.1862949E+01  0.5707183E-01  0.1897595E+00
  0.1639640E+01 -0.1664750E+02 -0.1027320E+00  0.1744506E+00 -0.1893571E+01  0.5533555E-01  0.1654418E+00
  0.3263470E+01 -0.1640660E+02 -0.1027320E+00  0.1342443E+00 -0.1854213E+01  0.3753980E-01  0.1288887E+00
  0.4855890E+01 -0.1600770E+02 -0.1027320E+00  0.1034148E+00 -0.1804718E+01  0.2397094E-01  0.1005982E+00
  0.6401530E+01 -0.1545470E+02 -0.1027320E+00  0.8422465E-01 -0.1777581E+01  0.1729254E-01  0.8243033E-01
  0.7885520E+01 -0.1475280E+02 -0.1027320E+00  0.7165446E-01 -0.1781678E+01  0.1499885E-01  0.7006709E-01
  0.9293580E+01 -0.1390880E+02 -0.1027320E+00  0.6232736E-01 -0.1811431E+01  0.1485379E-01  0.6053151E-01
  0.1061210E+02 -0.1293090E+02 -0.1027320E+00  0.5615588E-01 -0.1865910E+01  0.1633284E-01  0.5372821E-01
  0.1182850E+02 -0.1182850E+02 -0.1027320E+00  0.5111478E-01 -0.1937065E+01  0.1830594E-01  0.4772435E-01
  0.1293090E+02 -0.1061210E+02 -0.1027320E+00  0.4787583E-01 -0.2024668E+01  0.2099107E-01  0.4302872E-01
  0.1390880E+02 -0.9293580E+01 -0.1027320E+00  0.4679866E-01 -0.2132284E+01  0.2491776E-01  0.3961338E-01
