 VARIABLES="X" "Y" "Z" "abs(eta) (m)" "angle(phi) (rad)" "PRE1" "PRE2"
ZONE N=   3200 ,E =    3136 ,F=FEPOINT,ET=QUADRILATERAL
  0.1672800E+02  0.0000000E+00  0.0000000E+00  0.1454696E+02 -0.8009571E+00 -0.1012497E+02  0.1044505E+02
  0.1664750E+02  0.1639630E+01  0.0000000E+00  0.1451817E+02 -0.8021479E+00 -0.1009251E+02  0.1043640E+02
  0.1640660E+02  0.3263470E+01  0.0000000E+00  0.1443650E+02 -0.8060074E+00 -0.9995610E+01  0.1041634E+02
  0.1600770E+02  0.4855880E+01  0.0000000E+00  0.1435171E+02 -0.8147919E+00 -0.9845555E+01  0.1044206E+02
  0.1545470E+02  0.6401530E+01  0.0000000E+00  0.1429364E+02 -0.8298268E+00 -0.9648257E+01  0.1054605E+02
  0.1475280E+02  0.7885530E+01  0.0000000E+00  0.1422549E+02 -0.8493889E+00 -0.9395110E+01  0.1068159E+02
  0.1390880E+02  0.9293580E+01  0.0000000E+00  0.1404615E+02 -0.8696916E+00 -0.9060640E+01  0.1073308E+02
  0.1293090E+02  0.1061210E+02  0.0000000E+00  0.1364321E+02 -0.8873976E+00 -0.8614761E+01  0.1057937E+02
  0.1182850E+02  0.1182850E+02  0.0000000E+00  0.1323281E+02 -0.9097608E+00 -0.8124082E+01  0.1044541E+02
  0.1061210E+02  0.1293090E+02  0.0000000E+00  0.1276743E+02 -0.9355608E+00 -0.7575773E+01  0.1027691E+02
  0.9293580E+01  0.1390880E+02  0.0000000E+00  0.1210992E+02 -0.9615662E+00 -0.6929738E+01  0.9931212E+01
  0.7885520E+01  0.1475280E+02  0.0000000E+00  0.1141796E+02 -0.9931380E+00 -0.6234934E+01  0.9565324E+01
  0.6401530E+01  0.1545470E+02  0.0000000E+00  0.1046730E+02 -0.1025516E+01 -0.5428952E+01  0.8949353E+01
  0.4855880E+01  0.1600770E+02  0.0000000E+00  0.9031129E+01 -0.1055840E+01 -0.4447799E+01  0.7859921E+01
  0.3263470E+01  0.1640660E+02  0.0000000E+00  0.6827840E+01 -0.1080698E+01 -0.3213948E+01  0.6024114E+01
  0.1639630E+01  0.1664750E+02  0.0000000E+00  0.3451442E+01 -0.1082380E+01 -0.1619513E+01  0.3047889E+01
 -0.7312040E-06  0.1672800E+02  0.0000000E+00  0.1761381E-04  0.3045240E+01  0.1753212E-04 -0.1694513E-05
 -0.1639630E+01  0.1664750E+02  0.0000000E+00  0.3451415E+01  0.2059202E+01  0.1619469E+01 -0.3047883E+01
 -0.3263470E+01  0.1640660E+02  0.0000000E+00  0.6827868E+01  0.2060902E+01  0.3214009E+01 -0.6024112E+01
 -0.4855880E+01  0.1600770E+02  0.0000000E+00  0.9031097E+01  0.2085747E+01  0.4447740E+01 -0.7859919E+01
 -0.6401530E+01  0.1545470E+02  0.0000000E+00  0.1046730E+02  0.2116074E+01  0.5428922E+01 -0.8949364E+01
 -0.7885530E+01  0.1475280E+02  0.0000000E+00  0.1141801E+02  0.2148462E+01  0.6235030E+01 -0.9565318E+01
 -0.9293580E+01  0.1390880E+02  0.0000000E+00  0.1210993E+02  0.2180027E+01  0.6929751E+01 -0.9931212E+01
 -0.1061210E+02  0.1293090E+02  0.0000000E+00  0.1276738E+02  0.2206026E+01  0.7575682E+01 -0.1027692E+02
 -0.1182850E+02  0.1182850E+02  0.0000000E+00  0.1323282E+02  0.2231828E+01  0.8124050E+01 -0.1044545E+02
 -0.1293090E+02  0.1061210E+02  0.0000000E+00  0.1364325E+02  0.2254199E+01  0.8614823E+01 -0.1057937E+02
 -0.1390880E+02  0.9293580E+01  0.0000000E+00  0.1404611E+02  0.2271895E+01  0.9060553E+01 -0.1073311E+02
 -0.1475280E+02  0.7885520E+01  0.0000000E+00  0.1422544E+02  0.2292201E+01  0.9395049E+01 -0.1068158E+02
 -0.1545470E+02  0.6401530E+01  0.0000000E+00  0.1429367E+02  0.2311767E+01  0.9648283E+01 -0.1054607E+02
 -0.1600770E+02  0.4855880E+01  0.0000000E+00  0.1435171E+02  0.2326801E+01  0.9845565E+01 -0.1044205E+02
 -0.1640660E+02  0.3263470E+01  0.0000000E+00  0.1443651E+02  0.2335586E+01  0.9995622E+01 -0.1041635E+02
 -0.1664750E+02  0.1639630E+01  0.0000000E+00  0.1451820E+02  0.2339443E+01  0.1009252E+02 -0.1043644E+02
 -0.1672800E+02 -0.1462410E-05  0.0000000E+00  0.1454696E+02  0.2340638E+01  0.1012500E+02 -0.1044503E+02
 -0.1664750E+02 -0.1639630E+01  0.0000000E+00  0.1451818E+02  0.2339443E+01  0.1009250E+02 -0.1043642E+02
 -0.1640660E+02 -0.3263470E+01  0.0000000E+00  0.1443652E+02  0.2335586E+01  0.9995639E+01 -0.1041635E+02
 -0.1600770E+02 -0.4855890E+01  0.0000000E+00  0.1435170E+02  0.2326800E+01  0.9845543E+01 -0.1044206E+02
 -0.1545470E+02 -0.6401530E+01  0.0000000E+00  0.1429365E+02  0.2311768E+01  0.9648283E+01 -0.1054605E+02
 -0.1475280E+02 -0.7885530E+01  0.0000000E+00  0.1422543E+02  0.2292201E+01  0.9395041E+01 -0.1068157E+02
 -0.1390880E+02 -0.9293580E+01  0.0000000E+00  0.1404609E+02  0.2271896E+01  0.9060545E+01 -0.1073309E+02
 -0.1293090E+02 -0.1061210E+02  0.0000000E+00  0.1364324E+02  0.2254198E+01  0.8614815E+01 -0.1057937E+02
 -0.1182850E+02 -0.1182850E+02  0.0000000E+00  0.1323282E+02  0.2231828E+01  0.8124052E+01 -0.1044545E+02
 -0.1061210E+02 -0.1293090E+02  0.0000000E+00  0.1276737E+02  0.2206025E+01  0.7575671E+01 -0.1027691E+02
 -0.9293580E+01 -0.1390880E+02  0.0000000E+00  0.1210992E+02  0.2180026E+01  0.6929732E+01 -0.9931215E+01
 -0.7885520E+01 -0.1475280E+02  0.0000000E+00  0.1141798E+02  0.2148458E+01  0.6234979E+01 -0.9565319E+01
 -0.6401520E+01 -0.1545470E+02  0.0000000E+00  0.1046727E+02  0.2116071E+01  0.5428883E+01 -0.8949360E+01
 -0.4855880E+01 -0.1600770E+02  0.0000000E+00  0.9031116E+01  0.2085750E+01  0.4447772E+01 -0.7859922E+01
 -0.3263470E+01 -0.1640660E+02  0.0000000E+00  0.6827871E+01  0.2060902E+01  0.3214007E+01 -0.6024116E+01
 -0.1639630E+01 -0.1664750E+02  0.0000000E+00  0.3451420E+01  0.2059201E+01  0.1619466E+01 -0.3047889E+01
  0.1994790E-06 -0.1672800E+02  0.0000000E+00  0.1026852E-04 -0.3140501E+01  0.1026851E-04  0.1120927E-07
  0.1639640E+01 -0.1664750E+02  0.0000000E+00  0.3451456E+01 -0.1082383E+01 -0.1619511E+01  0.3047907E+01
  0.3263470E+01 -0.1640660E+02  0.0000000E+00  0.6827848E+01 -0.1080696E+01 -0.3213966E+01  0.6024113E+01
  0.4855890E+01 -0.1600770E+02  0.0000000E+00  0.9031155E+01 -0.1055836E+01 -0.4447843E+01  0.7859927E+01
  0.6401530E+01 -0.1545470E+02  0.0000000E+00  0.1046729E+02 -0.1025518E+01 -0.5428919E+01  0.8949351E+01
  0.7885520E+01 -0.1475280E+02  0.0000000E+00  0.1141794E+02 -0.9931394E+00 -0.6234911E+01  0.9565319E+01
  0.9293580E+01 -0.1390880E+02  0.0000000E+00  0.1210992E+02 -0.9615658E+00 -0.6929738E+01  0.9931205E+01
  0.1061210E+02 -0.1293090E+02  0.0000000E+00  0.1276742E+02 -0.9355620E+00 -0.7575755E+01  0.1027691E+02
  0.1182850E+02 -0.1182850E+02  0.0000000E+00  0.1323282E+02 -0.9097607E+00 -0.8124086E+01  0.1044542E+02
  0.1293090E+02 -0.1061210E+02  0.0000000E+00  0.1364320E+02 -0.8873978E+00 -0.8614755E+01  0.1057937E+02
  0.1390880E+02 -0.9293580E+01  0.0000000E+00  0.1404613E+02 -0.8696934E+00 -0.9060608E+01  0.1073308E+02
  0.1475280E+02 -0.7885520E+01  0.0000000E+00  0.1422550E+02 -0.8493887E+00 -0.9395121E+01  0.1068160E+02
  0.1545470E+02 -0.6401530E+01  0.0000000E+00  0.1429364E+02 -0.8298275E+00 -0.9648251E+01  0.1054606E+02
  0.1600770E+02 -0.4855880E+01  0.0000000E+00  0.1435168E+02 -0.8147933E+00 -0.9845524E+01  0.1044205E+02
  0.1640660E+02 -0.3263470E+01  0.0000000E+00  0.1443651E+02 -0.8060067E+00 -0.9995625E+01  0.1041634E+02
  0.1664750E+02 -0.1639620E+01  0.0000000E+00  0.1451819E+02 -0.8021466E+00 -0.1009254E+02  0.1043640E+02
  0.1672800E+02  0.0000000E+00 -0.2568960E-01  0.1452854E+02 -0.8010042E+00 -0.1011166E+02  0.1043230E+02
  0.1664750E+02  0.1639630E+01 -0.2568960E-01  0.1449982E+02 -0.8021985E+00 -0.1007923E+02  0.1042372E+02
  0.1640660E+02  0.3263470E+01 -0.2568960E-01  0.1441832E+02 -0.8060575E+00 -0.9982503E+01  0.1040373E+02
  0.1600770E+02  0.4855880E+01 -0.2568960E-01  0.1433343E+02 -0.8148381E+00 -0.9832535E+01  0.1042921E+02
  0.1545470E+02  0.6401530E+01 -0.2568960E-01  0.1427490E+02 -0.8298499E+00 -0.9635367E+01  0.1053245E+02
  0.1475280E+02  0.7885530E+01 -0.2568960E-01  0.1420599E+02 -0.8493887E+00 -0.9382237E+01  0.1066695E+02
  0.1390880E+02  0.9293580E+01 -0.2568960E-01  0.1402651E+02 -0.8696826E+00 -0.9048070E+01  0.1071800E+02
  0.1293090E+02  0.1061210E+02 -0.2568960E-01  0.1362498E+02 -0.8874096E+00 -0.8603125E+01  0.1056534E+02
  0.1182850E+02  0.1182850E+02 -0.2568960E-01  0.1321533E+02 -0.9097782E+00 -0.8113169E+01  0.1043176E+02
  0.1061210E+02  0.1293090E+02 -0.2568960E-01  0.1275036E+02 -0.9355775E+00 -0.7565472E+01  0.1026330E+02
  0.9293580E+01  0.1390880E+02 -0.2568960E-01  0.1209457E+02 -0.9616013E+00 -0.6920603E+01  0.9918863E+01
  0.7885520E+01  0.1475280E+02 -0.2568960E-01  0.1140333E+02 -0.9931489E+00 -0.6226841E+01  0.9553136E+01
  0.6401530E+01  0.1545470E+02 -0.2568960E-01  0.1045393E+02 -0.1025542E+01 -0.5421779E+01  0.8938060E+01
  0.4855880E+01  0.1600770E+02 -0.2568960E-01  0.9020556E+01 -0.1055887E+01 -0.4442225E+01  0.7850928E+01
  0.3263470E+01  0.1640660E+02 -0.2568960E-01  0.6819090E+01 -0.1080712E+01 -0.3209747E+01  0.6016437E+01
  0.1639630E+01  0.1664750E+02 -0.2568960E-01  0.3447336E+01 -0.1082421E+01 -0.1617463E+01  0.3044329E+01
 -0.7312040E-06  0.1672800E+02 -0.2568960E-01  0.2593574E-04 -0.3129586E+01  0.2593387E-04  0.3113990E-06
 -0.1639630E+01  0.1664750E+02 -0.2568960E-01  0.3447322E+01  0.2059167E+01  0.1617442E+01 -0.3044324E+01
 -0.3263470E+01  0.1640660E+02 -0.2568960E-01  0.6819103E+01  0.2060886E+01  0.3209788E+01 -0.6016429E+01
 -0.4855880E+01  0.1600770E+02 -0.2568960E-01  0.9020533E+01  0.2085701E+01  0.4442178E+01 -0.7850928E+01
 -0.6401530E+01  0.1545470E+02 -0.2568960E-01  0.1045391E+02  0.2116050E+01  0.5421759E+01 -0.8938052E+01
 -0.7885530E+01  0.1475280E+02 -0.2568960E-01  0.1140332E+02  0.2148440E+01  0.6226806E+01 -0.9553151E+01
 -0.9293580E+01  0.1390880E+02 -0.2568960E-01  0.1209457E+02  0.2179990E+01  0.6920593E+01 -0.9918877E+01
 -0.1061210E+02  0.1293090E+02 -0.2568960E-01  0.1275037E+02  0.2206014E+01  0.7565471E+01 -0.1026332E+02
 -0.1182850E+02  0.1182850E+02 -0.2568960E-01  0.1321533E+02  0.2231811E+01  0.8113134E+01 -0.1043178E+02
 -0.1293090E+02  0.1061210E+02 -0.2568960E-01  0.1362499E+02  0.2254183E+01  0.8603125E+01 -0.1056534E+02
 -0.1390880E+02  0.9293580E+01 -0.2568960E-01  0.1402650E+02  0.2271913E+01  0.9048091E+01 -0.1071797E+02
 -0.1475280E+02  0.7885520E+01 -0.2568960E-01  0.1420602E+02  0.2292204E+01  0.9382261E+01 -0.1066697E+02
 -0.1545470E+02  0.6401530E+01 -0.2568960E-01  0.1427490E+02  0.2311743E+01  0.9635370E+01 -0.1053245E+02
 -0.1600770E+02  0.4855880E+01 -0.2568960E-01  0.1433342E+02  0.2326756E+01  0.9832541E+01 -0.1042920E+02
 -0.1640660E+02  0.3263470E+01 -0.2568960E-01  0.1441829E+02  0.2335533E+01  0.9982461E+01 -0.1040373E+02
 -0.1664750E+02  0.1639630E+01 -0.2568960E-01  0.1449985E+02  0.2339392E+01  0.1007923E+02 -0.1042376E+02
 -0.1672800E+02 -0.1462410E-05 -0.2568960E-01  0.1452856E+02  0.2340587E+01  0.1011165E+02 -0.1043233E+02
 -0.1664750E+02 -0.1639630E+01 -0.2568960E-01  0.1449985E+02  0.2339394E+01  0.1007925E+02 -0.1042374E+02
 -0.1640660E+02 -0.3263470E+01 -0.2568960E-01  0.1441828E+02  0.2335532E+01  0.9982442E+01 -0.1040373E+02
 -0.1600770E+02 -0.4855890E+01 -0.2568960E-01  0.1433341E+02  0.2326753E+01  0.9832505E+01 -0.1042921E+02
 -0.1545470E+02 -0.6401530E+01 -0.2568960E-01  0.1427491E+02  0.2311743E+01  0.9635370E+01 -0.1053246E+02
 -0.1475280E+02 -0.7885530E+01 -0.2568960E-01  0.1420602E+02  0.2292207E+01  0.9382297E+01 -0.1066694E+02
 -0.1390880E+02 -0.9293580E+01 -0.2568960E-01  0.1402652E+02  0.2271912E+01  0.9048093E+01 -0.1071799E+02
 -0.1293090E+02 -0.1061210E+02 -0.2568960E-01  0.1362497E+02  0.2254182E+01  0.8603104E+01 -0.1056534E+02
 -0.1182850E+02 -0.1182850E+02 -0.2568960E-01  0.1321535E+02  0.2231813E+01  0.8113162E+01 -0.1043178E+02
 -0.1061210E+02 -0.1293090E+02 -0.2568960E-01  0.1275038E+02  0.2206015E+01  0.7565481E+01 -0.1026332E+02
 -0.9293580E+01 -0.1390880E+02 -0.2568960E-01  0.1209457E+02  0.2179990E+01  0.6920590E+01 -0.9918877E+01
 -0.7885520E+01 -0.1475280E+02 -0.2568960E-01  0.1140332E+02  0.2148441E+01  0.6226806E+01 -0.9553146E+01
 -0.6401520E+01 -0.1545470E+02 -0.2568960E-01  0.1045391E+02  0.2116047E+01  0.5421733E+01 -0.8938067E+01
 -0.4855880E+01 -0.1600770E+02 -0.2568960E-01  0.9020555E+01  0.2085704E+01  0.4442213E+01 -0.7850934E+01
 -0.3263470E+01 -0.1640660E+02 -0.2568960E-01  0.6819102E+01  0.2060885E+01  0.3209778E+01 -0.6016434E+01
 -0.1639630E+01 -0.1664750E+02 -0.2568960E-01  0.3447356E+01  0.2059180E+01  0.1617497E+01 -0.3044333E+01
  0.1994790E-06 -0.1672800E+02 -0.2568960E-01  0.4130723E-04 -0.3094795E+01  0.4126200E-04  0.1932369E-05
  0.1639640E+01 -0.1664750E+02 -0.2568960E-01  0.3447374E+01 -0.1082413E+01 -0.1617505E+01  0.3044350E+01
  0.3263470E+01 -0.1640660E+02 -0.2568960E-01  0.6819097E+01 -0.1080711E+01 -0.3209759E+01  0.6016438E+01
  0.4855890E+01 -0.1600770E+02 -0.2568960E-01  0.9020588E+01 -0.1055883E+01 -0.4442275E+01  0.7850936E+01
  0.6401530E+01 -0.1545470E+02 -0.2568960E-01  0.1045393E+02 -0.1025541E+01 -0.5421791E+01  0.8938060E+01
  0.7885520E+01 -0.1475280E+02 -0.2568960E-01  0.1140332E+02 -0.9931504E+00 -0.6226820E+01  0.9553135E+01
  0.9293580E+01 -0.1390880E+02 -0.2568960E-01  0.1209456E+02 -0.9616026E+00 -0.6920586E+01  0.9918867E+01
  0.1061210E+02 -0.1293090E+02 -0.2568960E-01  0.1275037E+02 -0.9355763E+00 -0.7565491E+01  0.1026330E+02
  0.1182850E+02 -0.1182850E+02 -0.2568960E-01  0.1321535E+02 -0.9097766E+00 -0.8113198E+01  0.1043176E+02
  0.1293090E+02 -0.1061210E+02 -0.2568960E-01  0.1362497E+02 -0.8874118E+00 -0.8603096E+01  0.1056535E+02
  0.1390880E+02 -0.9293580E+01 -0.2568960E-01  0.1402653E+02 -0.8696817E+00 -0.9048093E+01  0.1071800E+02
  0.1475280E+02 -0.7885520E+01 -0.2568960E-01  0.1420599E+02 -0.8493888E+00 -0.9382236E+01  0.1066695E+02
  0.1545470E+02 -0.6401530E+01 -0.2568960E-01  0.1427489E+02 -0.8298509E+00 -0.9635345E+01  0.1053245E+02
  0.1600770E+02 -0.4855880E+01 -0.2568960E-01  0.1433342E+02 -0.8148383E+00 -0.9832528E+01  0.1042921E+02
  0.1640660E+02 -0.3263470E+01 -0.2568960E-01  0.1441831E+02 -0.8060573E+00 -0.9982502E+01  0.1040372E+02
  0.1664750E+02 -0.1639620E+01 -0.2568960E-01  0.1449982E+02 -0.8021978E+00 -0.1007924E+02  0.1042371E+02
  0.1672800E+02  0.0000000E+00 -0.1027320E+00  0.1447495E+02 -0.8011986E+00 -0.1007234E+02  0.1039577E+02
  0.1664750E+02  0.1639630E+01 -0.1027320E+00  0.1444638E+02 -0.8023949E+00 -0.1004004E+02  0.1038727E+02
  0.1640660E+02  0.3263470E+01 -0.1027320E+00  0.1436536E+02 -0.8062584E+00 -0.9943757E+01  0.1036752E+02
  0.1600770E+02  0.4855880E+01 -0.1027320E+00  0.1428022E+02 -0.8150168E+00 -0.9794180E+01  0.1039225E+02
  0.1545470E+02  0.6401530E+01 -0.1027320E+00  0.1422010E+02 -0.8299616E+00 -0.9597207E+01  0.1049309E+02
  0.1475280E+02  0.7885530E+01 -0.1027320E+00  0.1414899E+02 -0.8494121E+00 -0.9344345E+01  0.1062437E+02
  0.1390880E+02  0.9293580E+01 -0.1027320E+00  0.1396894E+02 -0.8696706E+00 -0.9011063E+01  0.1067390E+02
  0.1293090E+02  0.1061210E+02 -0.1027320E+00  0.1357140E+02 -0.8874673E+00 -0.8568686E+01  0.1052428E+02
  0.1182850E+02  0.1182850E+02 -0.1027320E+00  0.1316387E+02 -0.9098497E+00 -0.8080830E+01  0.1039171E+02
  0.1061210E+02  0.1293090E+02 -0.1027320E+00  0.1270010E+02 -0.9356261E+00 -0.7535153E+01  0.1022321E+02
  0.9293580E+01  0.1390880E+02 -0.1027320E+00  0.1204925E+02 -0.9617041E+00 -0.6893655E+01  0.9882406E+01
  0.7885520E+01  0.1475280E+02 -0.1027320E+00  0.1135962E+02 -0.9932228E+00 -0.6202267E+01  0.9516973E+01
  0.6401530E+01  0.1545470E+02 -0.1027320E+00  0.1041411E+02 -0.1025610E+01 -0.5400517E+01  0.8904385E+01
  0.4855880E+01  0.1600770E+02 -0.1027320E+00  0.8988902E+01 -0.1056009E+01 -0.4425681E+01  0.7823919E+01
  0.3263470E+01  0.1640660E+02 -0.1027320E+00  0.6793467E+01 -0.1080768E+01 -0.3197351E+01  0.5994009E+01
  0.1639630E+01  0.1664750E+02 -0.1027320E+00  0.3435147E+01 -0.1082524E+01 -0.1611430E+01  0.3033732E+01
 -0.7312040E-06  0.1672800E+02 -0.1027320E+00  0.1258812E-04 -0.2224173E-01 -0.1258500E-04  0.2799583E-06
 -0.1639630E+01  0.1664750E+02 -0.1027320E+00  0.3435152E+01  0.2059072E+01  0.1611444E+01 -0.3033730E+01
 -0.3263470E+01  0.1640660E+02 -0.1027320E+00  0.6793457E+01  0.2060823E+01  0.3197337E+01 -0.5994004E+01
 -0.4855880E+01  0.1600770E+02 -0.1027320E+00  0.8988913E+01  0.2085582E+01  0.4425672E+01 -0.7823936E+01
 -0.6401530E+01  0.1545470E+02 -0.1027320E+00  0.1041410E+02  0.2115981E+01  0.5400502E+01 -0.8904383E+01
 -0.7885530E+01  0.1475280E+02 -0.1027320E+00  0.1135959E+02  0.2148364E+01  0.6202194E+01 -0.9516990E+01
 -0.9293580E+01  0.1390880E+02 -0.1027320E+00  0.1204920E+02  0.2179885E+01  0.6893590E+01 -0.9882390E+01
 -0.1061210E+02  0.1293090E+02 -0.1027320E+00  0.1270010E+02  0.2205965E+01  0.7535137E+01 -0.1022322E+02
 -0.1182850E+02  0.1182850E+02 -0.1027320E+00  0.1316388E+02  0.2231741E+01  0.8080812E+01 -0.1039173E+02
 -0.1293090E+02  0.1061210E+02 -0.1027320E+00  0.1357140E+02  0.2254125E+01  0.8568683E+01 -0.1052428E+02
 -0.1390880E+02  0.9293580E+01 -0.1027320E+00  0.1396894E+02  0.2271919E+01  0.9011026E+01 -0.1067392E+02
 -0.1475280E+02  0.7885520E+01 -0.1027320E+00  0.1414894E+02  0.2292173E+01  0.9344228E+01 -0.1062440E+02
 -0.1545470E+02  0.6401530E+01 -0.1027320E+00  0.1422011E+02  0.2311628E+01  0.9597182E+01 -0.1049312E+02
 -0.1600770E+02  0.4855880E+01 -0.1027320E+00  0.1428022E+02  0.2326577E+01  0.9794185E+01 -0.1039223E+02
 -0.1640660E+02  0.3263470E+01 -0.1027320E+00  0.1436537E+02  0.2335331E+01  0.9943727E+01 -0.1036755E+02
 -0.1664750E+02  0.1639630E+01 -0.1027320E+00  0.1444635E+02  0.2339193E+01  0.1003997E+02 -0.1038730E+02
 -0.1672800E+02 -0.1462410E-05 -0.1027320E+00  0.1447495E+02  0.2340394E+01  0.1007233E+02 -0.1039578E+02
 -0.1664750E+02 -0.1639630E+01 -0.1027320E+00  0.1444632E+02  0.2339193E+01  0.1003995E+02 -0.1038728E+02
 -0.1640660E+02 -0.3263470E+01 -0.1027320E+00  0.1436536E+02  0.2335332E+01  0.9943734E+01 -0.1036753E+02
 -0.1600770E+02 -0.4855890E+01 -0.1027320E+00  0.1428023E+02  0.2326578E+01  0.9794208E+01 -0.1039223E+02
 -0.1545470E+02 -0.6401530E+01 -0.1027320E+00  0.1422011E+02  0.2311628E+01  0.9597176E+01 -0.1049313E+02
 -0.1475280E+02 -0.7885530E+01 -0.1027320E+00  0.1414894E+02  0.2292175E+01  0.9344247E+01 -0.1062438E+02
 -0.1390880E+02 -0.9293580E+01 -0.1027320E+00  0.1396894E+02  0.2271919E+01  0.9011023E+01 -0.1067393E+02
 -0.1293090E+02 -0.1061210E+02 -0.1027320E+00  0.1357138E+02  0.2254123E+01  0.8568648E+01 -0.1052429E+02
 -0.1182850E+02 -0.1182850E+02 -0.1027320E+00  0.1316388E+02  0.2231741E+01  0.8080817E+01 -0.1039173E+02
 -0.1061210E+02 -0.1293090E+02 -0.1027320E+00  0.1270011E+02  0.2205967E+01  0.7535172E+01 -0.1022321E+02
 -0.9293580E+01 -0.1390880E+02 -0.1027320E+00  0.1204919E+02  0.2179884E+01  0.6893577E+01 -0.9882388E+01
 -0.7885520E+01 -0.1475280E+02 -0.1027320E+00  0.1135960E+02  0.2148366E+01  0.6202221E+01 -0.9516988E+01
 -0.6401520E+01 -0.1545470E+02 -0.1027320E+00  0.1041408E+02  0.2115979E+01  0.5400478E+01 -0.8904379E+01
 -0.4855880E+01 -0.1600770E+02 -0.1027320E+00  0.8988915E+01  0.2085585E+01  0.4425700E+01 -0.7823924E+01
 -0.3263470E+01 -0.1640660E+02 -0.1027320E+00  0.6793451E+01  0.2060824E+01  0.3197338E+01 -0.5993998E+01
 -0.1639630E+01 -0.1664750E+02 -0.1027320E+00  0.3435154E+01  0.2059074E+01  0.1611449E+01 -0.3033729E+01
  0.1994790E-06 -0.1672800E+02 -0.1027320E+00  0.8708023E-05 -0.3007666E+01  0.8630043E-05  0.1162757E-05
  0.1639640E+01 -0.1664750E+02 -0.1027320E+00  0.3435161E+01 -0.1082527E+01 -0.1611427E+01  0.3033749E+01
  0.3263470E+01 -0.1640660E+02 -0.1027320E+00  0.6793469E+01 -0.1080769E+01 -0.3197344E+01  0.5994015E+01
  0.4855890E+01 -0.1600770E+02 -0.1027320E+00  0.8988908E+01 -0.1056009E+01 -0.4425684E+01  0.7823924E+01
  0.6401530E+01 -0.1545470E+02 -0.1027320E+00  0.1041410E+02 -0.1025611E+01 -0.5400504E+01  0.8904383E+01
  0.7885520E+01 -0.1475280E+02 -0.1027320E+00  0.1135961E+02 -0.9932221E+00 -0.6202272E+01  0.9516965E+01
  0.9293580E+01 -0.1390880E+02 -0.1027320E+00  0.1204924E+02 -0.9617053E+00 -0.6893638E+01  0.9882406E+01
  0.1061210E+02 -0.1293090E+02 -0.1027320E+00  0.1270011E+02 -0.9356248E+00 -0.7535176E+01  0.1022321E+02
  0.1182850E+02 -0.1182850E+02 -0.1027320E+00  0.1316387E+02 -0.9098499E+00 -0.8080832E+01  0.1039172E+02
  0.1293090E+02 -0.1061210E+02 -0.1027320E+00  0.1357139E+02 -0.8874681E+00 -0.8568671E+01  0.1052428E+02
  0.1390880E+02 -0.9293580E+01 -0.1027320E+00  0.1396894E+02 -0.8696702E+00 -0.9011065E+01  0.1067390E+02
