 VARIABLES="X" "Y" "Z" "abs(eta) (m)" "angle(phi) (rad)" "PRE1" "PRE2"
ZONE N=   3200 ,E =    3136 ,F=FEPOINT,ET=QUADRILATERAL
  0.1672800E+02  0.0000000E+00  0.0000000E+00  0.5733930E-01  0.2251331E+01  0.3607839E-01 -0.4456618E-01
  0.1664750E+02  0.1639630E+01  0.0000000E+00  0.6041786E-01  0.2251407E+01  0.3801899E-01 -0.4695608E-01
  0.1640660E+02  0.3263470E+01  0.0000000E+00  0.6324842E-01  0.2254433E+01  0.3994876E-01 -0.4903528E-01
  0.1600770E+02  0.4855880E+01  0.0000000E+00  0.6594839E-01  0.2259056E+01  0.4189001E-01 -0.5093542E-01
  0.1545470E+02  0.6401530E+01  0.0000000E+00  0.6861784E-01  0.2262854E+01  0.4378659E-01 -0.5283125E-01
  0.1475280E+02  0.7885530E+01  0.0000000E+00  0.7123278E-01  0.2264930E+01  0.4556904E-01 -0.5475009E-01
  0.1390880E+02  0.9293580E+01  0.0000000E+00  0.7435331E-01  0.2261994E+01  0.4739729E-01 -0.5728797E-01
  0.1293090E+02  0.1061210E+02  0.0000000E+00  0.7808518E-01  0.2255508E+01  0.4938497E-01 -0.6048488E-01
  0.1182850E+02  0.1182850E+02  0.0000000E+00  0.8104977E-01  0.2254534E+01  0.5119872E-01 -0.6283117E-01
  0.1061210E+02  0.1293090E+02  0.0000000E+00  0.8400334E-01  0.2254357E+01  0.5305294E-01 -0.6513023E-01
  0.9293580E+01  0.1390880E+02  0.0000000E+00  0.8696155E-01  0.2255431E+01  0.5499365E-01 -0.6736475E-01
  0.7885520E+01  0.1475280E+02  0.0000000E+00  0.8947057E-01  0.2260882E+01  0.5695723E-01 -0.6899896E-01
  0.6401530E+01  0.1545470E+02  0.0000000E+00  0.9323947E-01  0.2265606E+01  0.5969557E-01 -0.7162429E-01
  0.4855880E+01  0.1600770E+02  0.0000000E+00  0.9672412E-01  0.2276265E+01  0.6271503E-01 -0.7363681E-01
  0.3263470E+01  0.1640660E+02  0.0000000E+00  0.9967342E-01  0.2297453E+01  0.6622048E-01 -0.7449590E-01
  0.1639630E+01  0.1664750E+02  0.0000000E+00  0.9750366E-01  0.2338870E+01  0.6774078E-01 -0.7012952E-01
 -0.7312040E-06  0.1672800E+02  0.0000000E+00  0.8296245E-01  0.2425851E+01  0.6260403E-01 -0.5443808E-01
 -0.1639630E+01  0.1664750E+02  0.0000000E+00  0.5537259E-01  0.2680577E+01  0.4959175E-01 -0.2463296E-01
 -0.3263470E+01  0.1640660E+02  0.0000000E+00  0.3477946E-01 -0.2693447E+01  0.3134507E-01  0.1506977E-01
 -0.4855880E+01  0.1600770E+02  0.0000000E+00  0.4838003E-01 -0.1937318E+01  0.1733796E-01  0.4516661E-01
 -0.6401530E+01  0.1545470E+02  0.0000000E+00  0.6430230E-01 -0.1702827E+01  0.8465260E-02  0.6374265E-01
 -0.7885530E+01  0.1475280E+02  0.0000000E+00  0.7658334E-01 -0.1598086E+01  0.2089699E-02  0.7655483E-01
 -0.9293580E+01  0.1390880E+02  0.0000000E+00  0.8695778E-01 -0.1534067E+01 -0.3193173E-02  0.8689912E-01
 -0.1061210E+02  0.1293090E+02  0.0000000E+00  0.9452628E-01 -0.1494678E+01 -0.7188194E-02  0.9425257E-01
 -0.1182850E+02  0.1182850E+02  0.0000000E+00  0.1011259E+00 -0.1464930E+01 -0.1068585E-01  0.1005598E+00
 -0.1293090E+02  0.1061210E+02  0.0000000E+00  0.1075184E+00 -0.1440132E+01 -0.1400887E-01  0.1066019E+00
 -0.1390880E+02  0.9293580E+01  0.0000000E+00  0.1115940E+00 -0.1424604E+01 -0.1625619E-01  0.1104036E+00
 -0.1475280E+02  0.7885520E+01  0.0000000E+00  0.1152297E+00 -0.1412594E+01 -0.1815370E-01  0.1137907E+00
 -0.1545470E+02  0.6401530E+01  0.0000000E+00  0.1190696E+00 -0.1402649E+01 -0.1992700E-01  0.1173903E+00
 -0.1600770E+02  0.4855880E+01  0.0000000E+00  0.1230394E+00 -0.1394508E+01 -0.2157827E-01  0.1211325E+00
 -0.1640660E+02  0.3263470E+01  0.0000000E+00  0.1270003E+00 -0.1388850E+01 -0.2297998E-01  0.1249039E+00
 -0.1664750E+02  0.1639630E+01  0.0000000E+00  0.1303734E+00 -0.1386705E+01 -0.2386534E-01  0.1281704E+00
 -0.1672800E+02 -0.1462410E-05  0.0000000E+00  0.1332355E+00 -0.1387634E+01 -0.2426754E-01  0.1310068E+00
 -0.1664750E+02 -0.1639630E+01  0.0000000E+00  0.1355994E+00 -0.1391368E+01 -0.2420004E-01  0.1334225E+00
 -0.1640660E+02 -0.3263470E+01  0.0000000E+00  0.1375706E+00 -0.1397848E+01 -0.2367416E-01  0.1355182E+00
 -0.1600770E+02 -0.4855890E+01  0.0000000E+00  0.1392776E+00 -0.1407366E+01 -0.2266096E-01  0.1374217E+00
 -0.1545470E+02 -0.6401530E+01  0.0000000E+00  0.1409347E+00 -0.1419312E+01 -0.2126780E-01  0.1393207E+00
 -0.1475280E+02 -0.7885530E+01  0.0000000E+00  0.1425998E+00 -0.1433161E+01 -0.1956491E-01  0.1412513E+00
 -0.1390880E+02 -0.9293580E+01  0.0000000E+00  0.1448578E+00 -0.1450070E+01 -0.1744565E-01  0.1438035E+00
 -0.1293090E+02 -0.1061210E+02  0.0000000E+00  0.1477368E+00 -0.1470867E+01 -0.1473862E-01  0.1469997E+00
 -0.1182850E+02 -0.1182850E+02  0.0000000E+00  0.1497520E+00 -0.1494167E+01 -0.1146417E-01  0.1493126E+00
 -0.1061210E+02 -0.1293090E+02  0.0000000E+00  0.1517511E+00 -0.1519907E+01 -0.7719219E-02  0.1515547E+00
 -0.9293580E+01 -0.1390880E+02  0.0000000E+00  0.1537405E+00 -0.1548743E+01 -0.3390145E-02  0.1537031E+00
 -0.7885520E+01 -0.1475280E+02  0.0000000E+00  0.1552157E+00 -0.1581784E+01  0.1705356E-02  0.1552063E+00
 -0.6401520E+01 -0.1545470E+02  0.0000000E+00  0.1578462E+00 -0.1621715E+01  0.8033887E-02  0.1576416E+00
 -0.4855880E+01 -0.1600770E+02  0.0000000E+00  0.1601500E+00 -0.1668437E+01  0.1561240E-01  0.1593872E+00
 -0.3263470E+01 -0.1640660E+02  0.0000000E+00  0.1618362E+00 -0.1727477E+01  0.2525303E-01  0.1598538E+00
 -0.1639630E+01 -0.1664750E+02  0.0000000E+00  0.1589155E+00 -0.1791792E+01  0.3483447E-01  0.1550506E+00
  0.1994790E-06 -0.1672800E+02  0.0000000E+00  0.1444085E+00 -0.1841238E+01  0.3857972E-01  0.1391597E+00
  0.1639640E+01 -0.1664750E+02  0.0000000E+00  0.1149766E+00 -0.1881669E+01  0.3517017E-01  0.1094654E+00
  0.3263470E+01 -0.1640660E+02  0.0000000E+00  0.7509306E-01 -0.1936922E+01  0.2688338E-01  0.7011599E-01
  0.4855890E+01 -0.1600770E+02  0.0000000E+00  0.4554614E-01 -0.2053276E+01  0.2113237E-01  0.4034692E-01
  0.6401530E+01 -0.1545470E+02  0.0000000E+00  0.2901454E-01 -0.2281588E+01  0.1893006E-01  0.2198855E-01
  0.7885520E+01 -0.1475280E+02  0.0000000E+00  0.2065580E-01 -0.2672914E+01  0.1842840E-01  0.9330393E-02
  0.9293580E+01 -0.1390880E+02  0.0000000E+00  0.1880289E-01  0.3093380E+01  0.1878105E-01 -0.9061889E-03
  0.1061210E+02 -0.1293090E+02  0.0000000E+00  0.2152865E-01  0.2751663E+01  0.1991262E-01 -0.8183540E-02
  0.1182850E+02 -0.1182850E+02  0.0000000E+00  0.2573121E-01  0.2546036E+01  0.2130123E-01 -0.1443443E-01
  0.1293090E+02 -0.1061210E+02  0.0000000E+00  0.3053382E-01  0.2408635E+01  0.2269269E-01 -0.2042929E-01
  0.1390880E+02 -0.9293580E+01  0.0000000E+00  0.3451963E-01  0.2364374E+01  0.2460790E-01 -0.2420859E-01
  0.1475280E+02 -0.7885520E+01  0.0000000E+00  0.3834766E-01  0.2339227E+01  0.2665191E-01 -0.2757207E-01
  0.1545470E+02 -0.6401530E+01  0.0000000E+00  0.4230466E-01  0.2314476E+01  0.2864028E-01 -0.3113548E-01
  0.1600770E+02 -0.4855880E+01  0.0000000E+00  0.4628190E-01  0.2289771E+01  0.3048187E-01 -0.3482628E-01
  0.1640660E+02 -0.3263470E+01  0.0000000E+00  0.5026139E-01  0.2267711E+01  0.3226051E-01 -0.3854176E-01
  0.1664750E+02 -0.1639620E+01  0.0000000E+00  0.5394584E-01  0.2256163E+01  0.3414539E-01 -0.4176417E-01
  0.1672800E+02  0.0000000E+00 -0.2568960E-01  0.5728864E-01  0.2251366E+01  0.3604808E-01 -0.4452554E-01
  0.1664750E+02  0.1639630E+01 -0.2568960E-01  0.6036479E-01  0.2251437E+01  0.3798702E-01 -0.4691369E-01
  0.1640660E+02  0.3263470E+01 -0.2568960E-01  0.6319469E-01  0.2254451E+01  0.3991571E-01 -0.4899291E-01
  0.1600770E+02  0.4855880E+01 -0.2568960E-01  0.6589301E-01  0.2259050E+01  0.4185456E-01 -0.5089287E-01
  0.1545470E+02  0.6401530E+01 -0.2568960E-01  0.6856160E-01  0.2262842E+01  0.4375008E-01 -0.5278848E-01
  0.1475280E+02  0.7885530E+01 -0.2568960E-01  0.7117462E-01  0.2264909E+01  0.4553065E-01 -0.5470636E-01
  0.1390880E+02  0.9293580E+01 -0.2568960E-01  0.7428923E-01  0.2261979E+01  0.4735557E-01 -0.5723931E-01
  0.1293090E+02  0.1061210E+02 -0.2568960E-01  0.7801364E-01  0.2255534E+01  0.4934129E-01 -0.6042818E-01
  0.1182850E+02  0.1182850E+02 -0.2568960E-01  0.8097756E-01  0.2254550E+01  0.5115413E-01 -0.6277436E-01
  0.1061210E+02  0.1293090E+02 -0.2568960E-01  0.8392939E-01  0.2254380E+01  0.5300775E-01 -0.6507166E-01
  0.9293580E+01  0.1390880E+02 -0.2568960E-01  0.8688454E-01  0.2255450E+01  0.5494623E-01 -0.6730405E-01
  0.7885520E+01  0.1475280E+02 -0.2568960E-01  0.8939808E-01  0.2260884E+01  0.5691121E-01 -0.6894295E-01
  0.6401530E+01  0.1545470E+02 -0.2568960E-01  0.9315848E-01  0.2265625E+01  0.5964506E-01 -0.7156094E-01
  0.4855880E+01  0.1600770E+02 -0.2568960E-01  0.9664160E-01  0.2276284E+01  0.6266288E-01 -0.7357283E-01
  0.3263470E+01  0.1640660E+02 -0.2568960E-01  0.9959173E-01  0.2297458E+01  0.6616659E-01 -0.7443451E-01
  0.1639630E+01  0.1664750E+02 -0.2568960E-01  0.9742835E-01  0.2338863E+01  0.6768796E-01 -0.7007585E-01
 -0.7312040E-06  0.1672800E+02 -0.2568960E-01  0.8289409E-01  0.2425859E+01  0.6255289E-01 -0.5439270E-01
 -0.1639630E+01  0.1664750E+02 -0.2568960E-01  0.5532402E-01  0.2680666E+01  0.4955046E-01 -0.2460690E-01
 -0.3263470E+01  0.1640660E+02 -0.2568960E-01  0.3475161E-01 -0.2693399E+01  0.3131925E-01  0.1505919E-01
 -0.4855880E+01  0.1600770E+02 -0.2568960E-01  0.4833658E-01 -0.1937422E+01  0.1732710E-01  0.4512424E-01
 -0.6401530E+01  0.1545470E+02 -0.2568960E-01  0.6424765E-01 -0.1702854E+01  0.8459741E-02  0.6368825E-01
 -0.7885530E+01  0.1475280E+02 -0.2568960E-01  0.7651998E-01 -0.1598100E+01  0.2089010E-02  0.7649146E-01
 -0.9293580E+01  0.1390880E+02 -0.2568960E-01  0.8687685E-01 -0.1534112E+01 -0.3186335E-02  0.8681840E-01
 -0.1061210E+02  0.1293090E+02 -0.2568960E-01  0.9444331E-01 -0.1494694E+01 -0.7180431E-02  0.9416995E-01
 -0.1182850E+02  0.1182850E+02 -0.2568960E-01  0.1010379E+00 -0.1464938E+01 -0.1067572E-01  0.1004724E+00
 -0.1293090E+02  0.1061210E+02 -0.2568960E-01  0.1074163E+00 -0.1440164E+01 -0.1399215E-01  0.1065011E+00
 -0.1390880E+02  0.9293580E+01 -0.2568960E-01  0.1114937E+00 -0.1424620E+01 -0.1623980E-01  0.1103047E+00
 -0.1475280E+02  0.7885520E+01 -0.2568960E-01  0.1151313E+00 -0.1412595E+01 -0.1813807E-01  0.1136935E+00
 -0.1545470E+02  0.6401530E+01 -0.2568960E-01  0.1189692E+00 -0.1402648E+01 -0.1991032E-01  0.1172914E+00
 -0.1600770E+02  0.4855880E+01 -0.2568960E-01  0.1229338E+00 -0.1394510E+01 -0.2155947E-01  0.1210285E+00
 -0.1640660E+02  0.3263470E+01 -0.2568960E-01  0.1268875E+00 -0.1388859E+01 -0.2295849E-01  0.1247932E+00
 -0.1664750E+02  0.1639630E+01 -0.2568960E-01  0.1302554E+00 -0.1386720E+01 -0.2384172E-01  0.1280548E+00
 -0.1672800E+02 -0.1462410E-05 -0.2568960E-01  0.1331139E+00 -0.1387655E+01 -0.2424267E-01  0.1308878E+00
 -0.1664750E+02 -0.1639630E+01 -0.2568960E-01  0.1354763E+00 -0.1391386E+01 -0.2417565E-01  0.1333018E+00
 -0.1640660E+02 -0.3263470E+01 -0.2568960E-01  0.1374470E+00 -0.1397867E+01 -0.2365030E-01  0.1353970E+00
 -0.1600770E+02 -0.4855890E+01 -0.2568960E-01  0.1391545E+00 -0.1407383E+01 -0.2263869E-01  0.1373006E+00
 -0.1545470E+02 -0.6401530E+01 -0.2568960E-01  0.1408114E+00 -0.1419333E+01 -0.2124628E-01  0.1391993E+00
 -0.1475280E+02 -0.7885530E+01 -0.2568960E-01  0.1424760E+00 -0.1433183E+01 -0.1954472E-01  0.1411290E+00
 -0.1390880E+02 -0.9293580E+01 -0.2568960E-01  0.1447296E+00 -0.1450091E+01 -0.1742717E-01  0.1436765E+00
 -0.1293090E+02 -0.1061210E+02 -0.2568960E-01  0.1476004E+00 -0.1470882E+01 -0.1472282E-01  0.1468643E+00
 -0.1182850E+02 -0.1182850E+02 -0.2568960E-01  0.1496161E+00 -0.1494180E+01 -0.1145183E-01  0.1491772E+00
 -0.1061210E+02 -0.1293090E+02 -0.2568960E-01  0.1516141E+00 -0.1519924E+01 -0.7709634E-02  0.1514179E+00
 -0.9293580E+01 -0.1390880E+02 -0.2568960E-01  0.1536011E+00 -0.1548768E+01 -0.3383300E-02  0.1535638E+00
 -0.7885520E+01 -0.1475280E+02 -0.2568960E-01  0.1550812E+00 -0.1581814E+01  0.1708555E-02  0.1550718E+00
 -0.6401520E+01 -0.1545470E+02 -0.2568960E-01  0.1577042E+00 -0.1621738E+01  0.8030218E-02  0.1574997E+00
 -0.4855880E+01 -0.1600770E+02 -0.2568960E-01  0.1600078E+00 -0.1668468E+01  0.1560345E-01  0.1592452E+00
 -0.3263470E+01 -0.1640660E+02 -0.2568960E-01  0.1616963E+00 -0.1727508E+01  0.2523616E-01  0.1597148E+00
 -0.1639630E+01 -0.1664750E+02 -0.2568960E-01  0.1587823E+00 -0.1791823E+01  0.3481006E-01  0.1549196E+00
  0.1994790E-06 -0.1672800E+02 -0.2568960E-01  0.1442824E+00 -0.1841271E+01  0.3855063E-01  0.1390370E+00
  0.1639640E+01 -0.1664750E+02 -0.2568960E-01  0.1148692E+00 -0.1881716E+01  0.3514241E-01  0.1093616E+00
  0.3263470E+01 -0.1640660E+02 -0.2568960E-01  0.7502314E-01 -0.1936989E+01  0.2686300E-01  0.7004892E-01
  0.4855890E+01 -0.1600770E+02 -0.2568960E-01  0.4550814E-01 -0.2053356E+01  0.2111798E-01  0.4031156E-01
  0.6401530E+01 -0.1545470E+02 -0.2568960E-01  0.2898727E-01 -0.2281744E+01  0.1891569E-01  0.2196494E-01
  0.7885520E+01 -0.1475280E+02 -0.2568960E-01  0.2063615E-01 -0.2673247E+01  0.1841397E-01  0.9315382E-02
  0.9293580E+01 -0.1390880E+02 -0.2568960E-01  0.1878952E-01  0.3093476E+01  0.1876777E-01 -0.9037333E-03
  0.1061210E+02 -0.1293090E+02 -0.2568960E-01  0.2151198E-01  0.2751548E+01  0.1989627E-01 -0.8179490E-02
  0.1182850E+02 -0.1182850E+02 -0.2568960E-01  0.2571011E-01  0.2545923E+01  0.2128213E-01 -0.1442501E-01
  0.1293090E+02 -0.1061210E+02 -0.2568960E-01  0.3050565E-01  0.2408798E+01  0.2267508E-01 -0.2040675E-01
  0.1390880E+02 -0.9293580E+01 -0.2568960E-01  0.3449041E-01  0.2364394E+01  0.2458755E-01 -0.2418762E-01
  0.1475280E+02 -0.7885520E+01 -0.2568960E-01  0.3831784E-01  0.2339126E+01  0.2662842E-01 -0.2755331E-01
  0.1545470E+02 -0.6401530E+01 -0.2568960E-01  0.4227192E-01  0.2314356E+01  0.2861438E-01 -0.3111482E-01
  0.1600770E+02 -0.4855880E+01 -0.2568960E-01  0.4624475E-01  0.2289692E+01  0.3045467E-01 -0.3480071E-01
  0.1640660E+02 -0.3263470E+01 -0.2568960E-01  0.5021875E-01  0.2267695E+01  0.3223253E-01 -0.3850957E-01
  0.1664750E+02 -0.1639620E+01 -0.2568960E-01  0.5389887E-01  0.2256184E+01  0.3411656E-01 -0.4172708E-01
  0.1672800E+02  0.0000000E+00 -0.1027320E+00  0.5714164E-01  0.2251364E+01  0.3595549E-01 -0.4441138E-01
  0.1664750E+02  0.1639630E+01 -0.1027320E+00  0.6021160E-01  0.2251426E+01  0.3789011E-01 -0.4679505E-01
  0.1640660E+02  0.3263470E+01 -0.1027320E+00  0.6303756E-01  0.2254399E+01  0.3981393E-01 -0.4887315E-01
  0.1600770E+02  0.4855880E+01 -0.1027320E+00  0.6573271E-01  0.2258945E+01  0.4174737E-01 -0.5077348E-01
  0.1545470E+02  0.6401530E+01 -0.1027320E+00  0.6839744E-01  0.2262705E+01  0.4363813E-01 -0.5266806E-01
  0.1475280E+02  0.7885530E+01 -0.1027320E+00  0.7100603E-01  0.2264760E+01  0.4541468E-01 -0.5458355E-01
  0.1390880E+02  0.9293580E+01 -0.1027320E+00  0.7410623E-01  0.2261894E+01  0.4723410E-01 -0.5710230E-01
  0.1293090E+02  0.1061210E+02 -0.1027320E+00  0.7780451E-01  0.2255548E+01  0.4920984E-01 -0.6026551E-01
  0.1182850E+02  0.1182850E+02 -0.1027320E+00  0.8076559E-01  0.2254550E+01  0.5102019E-01 -0.6261007E-01
  0.1061210E+02  0.1293090E+02 -0.1027320E+00  0.8371170E-01  0.2254382E+01  0.5287041E-01 -0.6490276E-01
  0.9293580E+01  0.1390880E+02 -0.1027320E+00  0.8665819E-01  0.2255484E+01  0.5480536E-01 -0.6712686E-01
  0.7885520E+01  0.1475280E+02 -0.1027320E+00  0.8918434E-01  0.2260850E+01  0.5677285E-01 -0.6878000E-01
  0.6401530E+01  0.1545470E+02 -0.1027320E+00  0.9291686E-01  0.2265657E+01  0.5949270E-01 -0.7137340E-01
  0.4855880E+01  0.1600770E+02 -0.1027320E+00  0.9639499E-01  0.2276333E+01  0.6250658E-01 -0.7338202E-01
  0.3263470E+01  0.1640660E+02 -0.1027320E+00  0.9935045E-01  0.2297458E+01  0.6600630E-01 -0.7425416E-01
  0.1639630E+01  0.1664750E+02 -0.1027320E+00  0.9720550E-01  0.2338817E+01  0.6752992E-01 -0.6991867E-01
 -0.7312040E-06  0.1672800E+02 -0.1027320E+00  0.8269411E-01  0.2425879E+01  0.6240307E-01 -0.5426022E-01
 -0.1639630E+01  0.1664750E+02 -0.1027320E+00  0.5518064E-01  0.2680839E+01  0.4942627E-01 -0.2453462E-01
 -0.3263470E+01  0.1640660E+02 -0.1027320E+00  0.3466854E-01 -0.2693032E+01  0.3123886E-01  0.1503467E-01
 -0.4855880E+01  0.1600770E+02 -0.1027320E+00  0.4820431E-01 -0.1937727E+01  0.1729341E-01  0.4499548E-01
 -0.6401530E+01  0.1545470E+02 -0.1027320E+00  0.6408384E-01 -0.1702920E+01  0.8442390E-02  0.6352530E-01
 -0.7885530E+01  0.1475280E+02 -0.1027320E+00  0.7633038E-01 -0.1598119E+01  0.2085255E-02  0.7630189E-01
 -0.9293580E+01  0.1390880E+02 -0.1027320E+00  0.8663591E-01 -0.1534227E+01 -0.3167490E-02  0.8657799E-01
 -0.1061210E+02  0.1293090E+02 -0.1027320E+00  0.9419756E-01 -0.1494728E+01 -0.7158524E-02  0.9392516E-01
 -0.1182850E+02  0.1182850E+02 -0.1027320E+00  0.1007774E+00 -0.1464957E+01 -0.1064633E-01  0.1002135E+00
 -0.1293090E+02  0.1061210E+02 -0.1027320E+00  0.1071152E+00 -0.1440237E+01 -0.1394520E-01  0.1062035E+00
 -0.1390880E+02  0.9293580E+01 -0.1027320E+00  0.1111981E+00 -0.1424654E+01 -0.1619302E-01  0.1100128E+00
 -0.1475280E+02  0.7885520E+01 -0.1027320E+00  0.1148429E+00 -0.1412591E+01 -0.1809309E-01  0.1134087E+00
 -0.1545470E+02  0.6401530E+01 -0.1027320E+00  0.1186756E+00 -0.1402640E+01 -0.1986211E-01  0.1170017E+00
 -0.1600770E+02  0.4855880E+01 -0.1027320E+00  0.1226247E+00 -0.1394521E+01 -0.2150392E-01  0.1207245E+00
 -0.1640660E+02  0.3263470E+01 -0.1027320E+00  0.1265569E+00 -0.1388893E+01 -0.2289434E-01  0.1244689E+00
 -0.1664750E+02  0.1639630E+01 -0.1027320E+00  0.1299094E+00 -0.1386764E+01 -0.2377282E-01  0.1277157E+00
 -0.1672800E+02 -0.1462410E-05 -0.1027320E+00  0.1327578E+00 -0.1387704E+01 -0.2417141E-01  0.1305388E+00
 -0.1664750E+02 -0.1639630E+01 -0.1027320E+00  0.1351154E+00 -0.1391443E+01 -0.2410369E-01  0.1329480E+00
 -0.1640660E+02 -0.3263470E+01 -0.1027320E+00  0.1370856E+00 -0.1397927E+01 -0.2358011E-01  0.1350424E+00
 -0.1600770E+02 -0.4855890E+01 -0.1027320E+00  0.1387944E+00 -0.1407433E+01 -0.2257322E-01  0.1369465E+00
 -0.1545470E+02 -0.6401530E+01 -0.1027320E+00  0.1404514E+00 -0.1419373E+01 -0.2118637E-01  0.1388442E+00
 -0.1475280E+02 -0.7885530E+01 -0.1027320E+00  0.1421142E+00 -0.1433240E+01 -0.1948718E-01  0.1407717E+00
 -0.1390880E+02 -0.9293580E+01 -0.1027320E+00  0.1443537E+00 -0.1450143E+01 -0.1737452E-01  0.1433043E+00
 -0.1293090E+02 -0.1061210E+02 -0.1027320E+00  0.1472000E+00 -0.1470919E+01 -0.1467755E-01  0.1464665E+00
 -0.1182850E+02 -0.1182850E+02 -0.1027320E+00  0.1492155E+00 -0.1494209E+01 -0.1141678E-01  0.1487781E+00
 -0.1061210E+02 -0.1293090E+02 -0.1027320E+00  0.1512094E+00 -0.1519967E+01 -0.7682546E-02  0.1510141E+00
 -0.9293580E+01 -0.1390880E+02 -0.1027320E+00  0.1531887E+00 -0.1548832E+01 -0.3364444E-02  0.1531517E+00
 -0.7885520E+01 -0.1475280E+02 -0.1027320E+00  0.1546839E+00 -0.1581894E+01  0.1716543E-02  0.1546744E+00
 -0.6401520E+01 -0.1545470E+02 -0.1027320E+00  0.1572828E+00 -0.1621792E+01  0.8017232E-02  0.1570783E+00
 -0.4855880E+01 -0.1600770E+02 -0.1027320E+00  0.1595825E+00 -0.1668552E+01  0.1557527E-01  0.1588206E+00
 -0.3263470E+01 -0.1640660E+02 -0.1027320E+00  0.1612803E+00 -0.1727586E+01  0.2518356E-01  0.1593020E+00
 -0.1639630E+01 -0.1664750E+02 -0.1027320E+00  0.1583869E+00 -0.1791914E+01  0.3473741E-01  0.1545307E+00
  0.1994790E-06 -0.1672800E+02 -0.1027320E+00  0.1439093E+00 -0.1841377E+01  0.3846573E-01  0.1386732E+00
  0.1639640E+01 -0.1664750E+02 -0.1027320E+00  0.1145555E+00 -0.1881863E+01  0.3506253E-01  0.1090577E+00
  0.3263470E+01 -0.1640660E+02 -0.1027320E+00  0.7480646E-01 -0.1937188E+01  0.2679931E-01  0.6984127E-01
  0.4855890E+01 -0.1600770E+02 -0.1027320E+00  0.4539605E-01 -0.2053571E+01  0.2107459E-01  0.4020775E-01
  0.6401530E+01 -0.1545470E+02 -0.1027320E+00  0.2890553E-01 -0.2282192E+01  0.1887216E-01  0.2189454E-01
  0.7885520E+01 -0.1475280E+02 -0.1027320E+00  0.2057778E-01 -0.2674218E+01  0.1837090E-01  0.9271196E-02
  0.9293580E+01 -0.1390880E+02 -0.1027320E+00  0.1874840E-01  0.3093713E+01  0.1872692E-01 -0.8973268E-03
  0.1061210E+02 -0.1293090E+02 -0.1027320E+00  0.2146156E-01  0.2751134E+01  0.1984625E-01 -0.8168531E-02
  0.1182850E+02 -0.1182850E+02 -0.1027320E+00  0.2565047E-01  0.2545520E+01  0.2122696E-01 -0.1440009E-01
  0.1293090E+02 -0.1061210E+02 -0.1027320E+00  0.3042294E-01  0.2409150E+01  0.2262077E-01 -0.2034344E-01
  0.1390880E+02 -0.9293580E+01 -0.1027320E+00  0.3440495E-01  0.2364310E+01  0.2452459E-01 -0.2412975E-01
