 VARIABLES="X" "Y" "Z" "abs(eta) (m)" "angle(phi) (rad)" "PRE1" "PRE2"
ZONE N=   3200 ,E =    3136 ,F=FEPOINT,ET=QUADRILATERAL
  0.1672800E+02  0.0000000E+00  0.0000000E+00  0.1002333E+00  0.2112110E+01  0.5164639E-01 -0.8590319E-01
  0.1664750E+02  0.1639630E+01  0.0000000E+00  0.1031650E+00  0.2119392E+01  0.5379944E-01 -0.8802632E-01
  0.1640660E+02  0.3263470E+01  0.0000000E+00  0.1056105E+00  0.2127525E+01  0.5580581E-01 -0.8966205E-01
  0.1600770E+02  0.4855880E+01  0.0000000E+00  0.1076975E+00  0.2135989E+01  0.5768054E-01 -0.9094898E-01
  0.1545470E+02  0.6401530E+01  0.0000000E+00  0.1097318E+00  0.2143208E+01  0.5943742E-01 -0.9224027E-01
  0.1475280E+02  0.7885530E+01  0.0000000E+00  0.1117374E+00  0.2148596E+01  0.6102902E-01 -0.9359868E-01
  0.1390880E+02  0.9293580E+01  0.0000000E+00  0.1144320E+00  0.2149993E+01  0.6263457E-01 -0.9576846E-01
  0.1293090E+02  0.1061210E+02  0.0000000E+00  0.1177538E+00  0.2148612E+01  0.6431653E-01 -0.9863740E-01
  0.1182850E+02  0.1182850E+02  0.0000000E+00  0.1194444E+00  0.2151141E+01  0.6549281E-01 -0.9988818E-01
  0.1061210E+02  0.1293090E+02  0.0000000E+00  0.1210291E+00  0.2154188E+01  0.6666979E-01 -0.1010108E+00
  0.9293580E+01  0.1390880E+02  0.0000000E+00  0.1223019E+00  0.2158464E+01  0.6780684E-01 -0.1017840E+00
  0.7885520E+01  0.1475280E+02  0.0000000E+00  0.1221369E+00  0.2167233E+01  0.6860410E-01 -0.1010490E+00
  0.6401530E+01  0.1545470E+02  0.0000000E+00  0.1227741E+00  0.2177163E+01  0.6996719E-01 -0.1008864E+00
  0.4855880E+01  0.1600770E+02  0.0000000E+00  0.1213708E+00  0.2195101E+01  0.7094525E-01 -0.9847664E-01
  0.3263470E+01  0.1640660E+02  0.0000000E+00  0.1159604E+00  0.2229959E+01  0.7102056E-01 -0.9166736E-01
  0.1639630E+01  0.1664750E+02  0.0000000E+00  0.1017085E+00  0.2297864E+01  0.6760379E-01 -0.7598910E-01
 -0.7312040E-06  0.1672800E+02  0.0000000E+00  0.7600190E-01  0.2439540E+01  0.5802885E-01 -0.4908097E-01
 -0.1639630E+01  0.1664750E+02  0.0000000E+00  0.4254568E-01  0.2936503E+01  0.4165404E-01 -0.8664627E-02
 -0.3263470E+01  0.1640660E+02  0.0000000E+00  0.4594887E-01 -0.2048313E+01  0.2111696E-01  0.4080898E-01
 -0.4855880E+01  0.1600770E+02  0.0000000E+00  0.7737542E-01 -0.1646649E+01  0.5863528E-02  0.7715293E-01
 -0.6401530E+01  0.1545470E+02  0.0000000E+00  0.9921338E-01 -0.1533236E+01 -0.3725630E-02  0.9914340E-01
 -0.7885530E+01  0.1475280E+02  0.0000000E+00  0.1144439E+00 -0.1478427E+01 -0.1055609E-01  0.1139560E+00
 -0.9293580E+01  0.1390880E+02  0.0000000E+00  0.1270880E+00 -0.1441780E+01 -0.1635103E-01  0.1260317E+00
 -0.1061210E+02  0.1293090E+02  0.0000000E+00  0.1358950E+00 -0.1418014E+01 -0.2068162E-01  0.1343120E+00
 -0.1182850E+02  0.1182850E+02  0.0000000E+00  0.1434114E+00 -0.1399472E+01 -0.2444983E-01  0.1413118E+00
 -0.1293090E+02  0.1061210E+02  0.0000000E+00  0.1506131E+00 -0.1383777E+01 -0.2800360E-01  0.1479869E+00
 -0.1390880E+02  0.9293580E+01  0.0000000E+00  0.1547055E+00 -0.1373827E+01 -0.3027556E-01  0.1517142E+00
 -0.1475280E+02  0.7885520E+01  0.0000000E+00  0.1584142E+00 -0.1366229E+01 -0.3218087E-01  0.1551111E+00
 -0.1545470E+02  0.6401530E+01  0.0000000E+00  0.1625149E+00 -0.1360422E+01 -0.3393736E-01  0.1589319E+00
 -0.1600770E+02  0.4855880E+01  0.0000000E+00  0.1667583E+00 -0.1356286E+01 -0.3549765E-01  0.1629364E+00
 -0.1640660E+02  0.3263470E+01  0.0000000E+00  0.1709719E+00 -0.1354239E+01 -0.3673650E-01  0.1669785E+00
 -0.1664750E+02  0.1639630E+01  0.0000000E+00  0.1744099E+00 -0.1354874E+01 -0.3736709E-01  0.1703599E+00
 -0.1672800E+02 -0.1462410E-05  0.0000000E+00  0.1771354E+00 -0.1357951E+01 -0.3741844E-01  0.1731381E+00
 -0.1664750E+02 -0.1639630E+01  0.0000000E+00  0.1791423E+00 -0.1363263E+01 -0.3691168E-01  0.1752983E+00
 -0.1640660E+02 -0.3263470E+01  0.0000000E+00  0.1805590E+00 -0.1370817E+01 -0.3586779E-01  0.1769606E+00
 -0.1600770E+02 -0.4855890E+01  0.0000000E+00  0.1815253E+00 -0.1380875E+01 -0.3426869E-01  0.1782613E+00
 -0.1545470E+02 -0.6401530E+01  0.0000000E+00  0.1824266E+00 -0.1393397E+01 -0.3219293E-01  0.1795636E+00
 -0.1475280E+02 -0.7885530E+01  0.0000000E+00  0.1833585E+00 -0.1408122E+01 -0.2969639E-01  0.1809377E+00
 -0.1390880E+02 -0.9293580E+01  0.0000000E+00  0.1850565E+00 -0.1426067E+01 -0.2668972E-01  0.1831217E+00
 -0.1293090E+02 -0.1061210E+02  0.0000000E+00  0.1874060E+00 -0.1447589E+01 -0.2303143E-01  0.1859854E+00
 -0.1182850E+02 -0.1182850E+02  0.0000000E+00  0.1881420E+00 -0.1470527E+01 -0.1883325E-01  0.1871970E+00
 -0.1061210E+02 -0.1293090E+02  0.0000000E+00  0.1887806E+00 -0.1496196E+01 -0.1407002E-01  0.1882555E+00
 -0.9293580E+01 -0.1390880E+02  0.0000000E+00  0.1891307E+00 -0.1524891E+01 -0.8679009E-02  0.1889314E+00
 -0.7885520E+01 -0.1475280E+02  0.0000000E+00  0.1880716E+00 -0.1557005E+01 -0.2593614E-02  0.1880537E+00
 -0.6401520E+01 -0.1545470E+02  0.0000000E+00  0.1877445E+00 -0.1595700E+01  0.4675083E-02  0.1876863E+00
 -0.4855880E+01 -0.1600770E+02  0.0000000E+00  0.1854454E+00 -0.1640650E+01  0.1294353E-01  0.1849931E+00
 -0.3263470E+01 -0.1640660E+02  0.0000000E+00  0.1792071E+00 -0.1697458E+01  0.2263810E-01  0.1777715E+00
 -0.1639630E+01 -0.1664750E+02  0.0000000E+00  0.1646968E+00 -0.1764006E+01  0.3162334E-01  0.1616323E+00
  0.1994790E-06 -0.1672800E+02  0.0000000E+00  0.1390723E+00 -0.1827793E+01  0.3534897E-01  0.1345048E+00
  0.1639640E+01 -0.1664750E+02  0.0000000E+00  0.9978342E-01 -0.1907379E+01  0.3295483E-01  0.9418444E-01
  0.3263470E+01 -0.1640660E+02  0.0000000E+00  0.5233017E-01 -0.2104323E+01  0.2661371E-01  0.4505726E-01
  0.4855890E+01 -0.1600770E+02  0.0000000E+00  0.2469376E-01 -0.2766945E+01  0.2298091E-01  0.9036554E-02
  0.6401530E+01 -0.1545470E+02  0.0000000E+00  0.2600865E-01  0.2629771E+01  0.2267574E-01 -0.1273816E-01
  0.7885520E+01 -0.1475280E+02  0.0000000E+00  0.3636086E-01  0.2288293E+01  0.2390728E-01 -0.2739625E-01
  0.9293580E+01 -0.1390880E+02  0.0000000E+00  0.4704279E-01  0.2150369E+01  0.2576375E-01 -0.3936056E-01
  0.1061210E+02 -0.1293090E+02  0.0000000E+00  0.5532731E-01  0.2107130E+01  0.2827159E-01 -0.4755868E-01
  0.1182850E+02 -0.1182850E+02  0.0000000E+00  0.6265458E-01  0.2086887E+01  0.3091900E-01 -0.5449415E-01
  0.1293090E+02 -0.1061210E+02  0.0000000E+00  0.6967066E-01  0.2071693E+01  0.3345668E-01 -0.6111179E-01
  0.1390880E+02 -0.9293580E+01  0.0000000E+00  0.7433188E-01  0.2082716E+01  0.3641162E-01 -0.6480295E-01
  0.1475280E+02 -0.7885520E+01  0.0000000E+00  0.7870762E-01  0.2094403E+01  0.3935437E-01 -0.6816248E-01
  0.1545470E+02 -0.6401530E+01  0.0000000E+00  0.8336128E-01  0.2100616E+01  0.4212897E-01 -0.7193227E-01
  0.1600770E+02 -0.4855880E+01  0.0000000E+00  0.8804007E-01  0.2102798E+01  0.4465912E-01 -0.7587238E-01
  0.1640660E+02 -0.3263470E+01  0.0000000E+00  0.9266336E-01  0.2103026E+01  0.4702257E-01 -0.7984596E-01
  0.1664750E+02 -0.1639620E+01  0.0000000E+00  0.9672095E-01  0.2106503E+01  0.4937106E-01 -0.8317115E-01
  0.1672800E+02  0.0000000E+00 -0.2568960E-01  0.1001430E+00  0.2112129E+01  0.5160159E-01 -0.8582485E-01
  0.1664750E+02  0.1639630E+01 -0.2568960E-01  0.1030732E+00  0.2119405E+01  0.5375275E-01 -0.8794730E-01
  0.1640660E+02  0.3263470E+01 -0.2568960E-01  0.1055185E+00  0.2127535E+01  0.5575814E-01 -0.8958343E-01
  0.1600770E+02  0.4855880E+01 -0.2568960E-01  0.1076065E+00  0.2135984E+01  0.5763126E-01 -0.9087243E-01
  0.1545470E+02  0.6401530E+01 -0.2568960E-01  0.1096411E+00  0.2143194E+01  0.5938707E-01 -0.9216484E-01
  0.1475280E+02  0.7885530E+01 -0.2568960E-01  0.1116453E+00  0.2148581E+01  0.6097722E-01 -0.9352248E-01
  0.1390880E+02  0.9293580E+01 -0.2568960E-01  0.1143342E+00  0.2149991E+01  0.6258080E-01 -0.9568669E-01
  0.1293090E+02  0.1061210E+02 -0.2568960E-01  0.1176441E+00  0.2148626E+01  0.6425808E-01 -0.9854458E-01
  0.1182850E+02  0.1182850E+02 -0.2568960E-01  0.1193377E+00  0.2151150E+01  0.6543523E-01 -0.9979843E-01
  0.1061210E+02  0.1293090E+02 -0.2568960E-01  0.1209218E+00  0.2154194E+01  0.6661132E-01 -0.1009209E+00
  0.9293580E+01  0.1390880E+02 -0.2568960E-01  0.1221921E+00  0.2158482E+01  0.6774776E-01 -0.1016915E+00
  0.7885520E+01  0.1475280E+02 -0.2568960E-01  0.1220380E+00  0.2167228E+01  0.6854805E-01 -0.1009675E+00
  0.6401530E+01  0.1545470E+02 -0.2568960E-01  0.1226666E+00  0.2177174E+01  0.6990709E-01 -0.1007973E+00
  0.4855880E+01  0.1600770E+02 -0.2568960E-01  0.1212662E+00  0.2195121E+01  0.7088607E-01 -0.9839035E-01
  0.3263470E+01  0.1640660E+02 -0.2568960E-01  0.1158665E+00  0.2229962E+01  0.7096330E-01 -0.9159286E-01
  0.1639630E+01  0.1664750E+02 -0.2568960E-01  0.1016329E+00  0.2297851E+01  0.6755254E-01 -0.7593349E-01
 -0.7312040E-06  0.1672800E+02 -0.2568960E-01  0.7594025E-01  0.2439559E+01  0.5798272E-01 -0.4904005E-01
 -0.1639630E+01  0.1664750E+02 -0.2568960E-01  0.4250666E-01  0.2936678E+01  0.4161735E-01 -0.8649392E-02
 -0.3263470E+01  0.1640660E+02 -0.2568960E-01  0.4591363E-01 -0.2048313E+01  0.2110075E-01  0.4077768E-01
 -0.4855880E+01  0.1600770E+02 -0.2568960E-01  0.7730453E-01 -0.1646709E+01  0.5862731E-02  0.7708190E-01
 -0.6401530E+01  0.1545470E+02 -0.2568960E-01  0.9912783E-01 -0.1533268E+01 -0.3719227E-02  0.9905803E-01
 -0.7885530E+01  0.1475280E+02 -0.2568960E-01  0.1143493E+00 -0.1478435E+01 -0.1054649E-01  0.1138619E+00
 -0.9293580E+01  0.1390880E+02 -0.2568960E-01  0.1269699E+00 -0.1441810E+01 -0.1633194E-01  0.1259152E+00
 -0.1061210E+02  0.1293090E+02 -0.2568960E-01  0.1357751E+00 -0.1418029E+01 -0.2066140E-01  0.1341938E+00
 -0.1182850E+02  0.1182850E+02 -0.2568960E-01  0.1432858E+00 -0.1399483E+01 -0.2442691E-01  0.1411883E+00
 -0.1293090E+02  0.1061210E+02 -0.2568960E-01  0.1504704E+00 -0.1383799E+01 -0.2797384E-01  0.1478472E+00
 -0.1390880E+02  0.9293580E+01 -0.2568960E-01  0.1545668E+00 -0.1373841E+01 -0.3024638E-01  0.1515786E+00
 -0.1475280E+02  0.7885520E+01 -0.2568960E-01  0.1582797E+00 -0.1366233E+01 -0.3215293E-01  0.1549795E+00
 -0.1545470E+02  0.6401530E+01 -0.2568960E-01  0.1623780E+00 -0.1360426E+01 -0.3390815E-01  0.1587981E+00
 -0.1600770E+02  0.4855880E+01 -0.2568960E-01  0.1666152E+00 -0.1356289E+01 -0.3546668E-01  0.1627966E+00
 -0.1640660E+02  0.3263470E+01 -0.2568960E-01  0.1708202E+00 -0.1354248E+01 -0.3670237E-01  0.1668307E+00
 -0.1664750E+02  0.1639630E+01 -0.2568960E-01  0.1742519E+00 -0.1354887E+01 -0.3733107E-01  0.1702061E+00
 -0.1672800E+02 -0.1462410E-05 -0.2568960E-01  0.1769737E+00 -0.1357967E+01 -0.3738143E-01  0.1729807E+00
 -0.1664750E+02 -0.1639630E+01 -0.2568960E-01  0.1789797E+00 -0.1363281E+01 -0.3687508E-01  0.1751398E+00
 -0.1640660E+02 -0.3263470E+01 -0.2568960E-01  0.1803973E+00 -0.1370838E+01 -0.3583200E-01  0.1768029E+00
 -0.1600770E+02 -0.4855890E+01 -0.2568960E-01  0.1813661E+00 -0.1380895E+01 -0.3423508E-01  0.1781056E+00
 -0.1545470E+02 -0.6401530E+01 -0.2568960E-01  0.1822687E+00 -0.1393414E+01 -0.3216204E-01  0.1794087E+00
 -0.1475280E+02 -0.7885530E+01 -0.2568960E-01  0.1832006E+00 -0.1408140E+01 -0.2966751E-01  0.1807825E+00
 -0.1390880E+02 -0.9293580E+01 -0.2568960E-01  0.1848930E+00 -0.1426084E+01 -0.2666308E-01  0.1829604E+00
 -0.1293090E+02 -0.1061210E+02 -0.2568960E-01  0.1872323E+00 -0.1447596E+01 -0.2300871E-01  0.1858132E+00
 -0.1182850E+02 -0.1182850E+02 -0.2568960E-01  0.1879719E+00 -0.1470540E+01 -0.1881377E-01  0.1870281E+00
 -0.1061210E+02 -0.1293090E+02 -0.2568960E-01  0.1886104E+00 -0.1496212E+01 -0.1405438E-01  0.1880860E+00
 -0.9293580E+01 -0.1390880E+02 -0.2568960E-01  0.1889589E+00 -0.1524909E+01 -0.8667839E-02  0.1887600E+00
 -0.7885520E+01 -0.1475280E+02 -0.2568960E-01  0.1879110E+00 -0.1557030E+01 -0.2586690E-02  0.1878932E+00
 -0.6401520E+01 -0.1545470E+02 -0.2568960E-01  0.1875768E+00 -0.1595719E+01  0.4674445E-02  0.1875185E+00
 -0.4855880E+01 -0.1600770E+02 -0.2568960E-01  0.1852803E+00 -0.1640676E+01  0.1293672E-01  0.1848281E+00
 -0.3263470E+01 -0.1640660E+02 -0.2568960E-01  0.1790536E+00 -0.1697486E+01  0.2262363E-01  0.1776186E+00
 -0.1639630E+01 -0.1664750E+02 -0.2568960E-01  0.1645618E+00 -0.1764035E+01  0.3160215E-01  0.1614989E+00
  0.1994790E-06 -0.1672800E+02 -0.2568960E-01  0.1389508E+00 -0.1827830E+01  0.3532305E-01  0.1343860E+00
  0.1639640E+01 -0.1664750E+02 -0.2568960E-01  0.9968717E-01 -0.1907442E+01  0.3292898E-01  0.9409152E-01
  0.3263470E+01 -0.1640660E+02 -0.2568960E-01  0.5227944E-01 -0.2104453E+01  0.2659377E-01  0.4501012E-01
  0.4855890E+01 -0.1600770E+02 -0.2568960E-01  0.2467591E-01 -0.2766980E+01  0.2296462E-01  0.9029214E-02
  0.6401530E+01 -0.1545470E+02 -0.2568960E-01  0.2598919E-01  0.2629653E+01  0.2265728E-01 -0.1273129E-01
  0.7885520E+01 -0.1475280E+02 -0.2568960E-01  0.3633587E-01  0.2288149E+01  0.2388690E-01 -0.2738086E-01
  0.9293580E+01 -0.1390880E+02 -0.2568960E-01  0.4700015E-01  0.2150453E+01  0.2574369E-01 -0.3932272E-01
  0.1061210E+02 -0.1293090E+02 -0.2568960E-01  0.5528105E-01  0.2107117E+01  0.2824734E-01 -0.4751929E-01
  0.1182850E+02 -0.1182850E+02 -0.2568960E-01  0.6260166E-01  0.2086855E+01  0.3089117E-01 -0.5444910E-01
  0.1293090E+02 -0.1061210E+02 -0.2568960E-01  0.6960412E-01  0.2071767E+01  0.3342929E-01 -0.6105093E-01
  0.1390880E+02 -0.9293580E+01 -0.2568960E-01  0.7426750E-01  0.2082727E+01  0.3638075E-01 -0.6474645E-01
  0.1475280E+02 -0.7885520E+01 -0.2568960E-01  0.7864418E-01  0.2094358E+01  0.3931959E-01 -0.6810930E-01
  0.1545470E+02 -0.6401530E+01 -0.2568960E-01  0.8329448E-01  0.2100543E+01  0.4208992E-01 -0.7187773E-01
  0.1600770E+02 -0.4855880E+01 -0.2568960E-01  0.8796765E-01  0.2102757E+01  0.4461930E-01 -0.7581177E-01
  0.1640660E+02 -0.3263470E+01 -0.2568960E-01  0.9258299E-01  0.2103008E+01  0.4698037E-01 -0.7977754E-01
  0.1664750E+02 -0.1639620E+01 -0.2568960E-01  0.9663492E-01  0.2106508E+01  0.4932764E-01 -0.8309688E-01
  0.1672800E+02  0.0000000E+00 -0.1027320E+00  0.9988259E-01  0.2112126E+01  0.5146713E-01 -0.8560179E-01
  0.1664750E+02  0.1639630E+01 -0.1027320E+00  0.1028076E+00  0.2119396E+01  0.5361345E-01 -0.8772111E-01
  0.1640660E+02  0.3263470E+01 -0.1027320E+00  0.1052525E+00  0.2127493E+01  0.5561378E-01 -0.8935998E-01
  0.1600770E+02  0.4855880E+01 -0.1027320E+00  0.1073442E+00  0.2135917E+01  0.5748471E-01 -0.9065472E-01
  0.1545470E+02  0.6401530E+01 -0.1027320E+00  0.1093781E+00  0.2143095E+01  0.5923541E-01 -0.9194967E-01
  0.1475280E+02  0.7885530E+01 -0.1027320E+00  0.1113798E+00  0.2148477E+01  0.6082249E-01 -0.9330637E-01
  0.1390880E+02  0.9293580E+01 -0.1027320E+00  0.1140473E+00  0.2149924E+01  0.6241737E-01 -0.9545080E-01
  0.1293090E+02  0.1061210E+02 -0.1027320E+00  0.1173249E+00  0.2148638E+01  0.6408490E-01 -0.9827641E-01
  0.1182850E+02  0.1182850E+02 -0.1027320E+00  0.1190268E+00  0.2151144E+01  0.6526413E-01 -0.9953885E-01
  0.1061210E+02  0.1293090E+02 -0.1027320E+00  0.1206087E+00  0.2154203E+01  0.6643981E-01 -0.1006589E+00
  0.9293580E+01  0.1390880E+02 -0.1027320E+00  0.1218687E+00  0.2158505E+01  0.6757076E-01 -0.1014208E+00
  0.7885520E+01  0.1475280E+02 -0.1027320E+00  0.1217450E+00  0.2167201E+01  0.6838067E-01 -0.1007270E+00
  0.6401530E+01  0.1545470E+02 -0.1027320E+00  0.1223478E+00  0.2177198E+01  0.6972776E-01 -0.1005337E+00
  0.4855880E+01  0.1600770E+02 -0.1027320E+00  0.1209522E+00  0.2195159E+01  0.7070628E-01 -0.9813289E-01
  0.3263470E+01  0.1640660E+02 -0.1027320E+00  0.1155898E+00  0.2229953E+01  0.7079302E-01 -0.9137475E-01
  0.1639630E+01  0.1664750E+02 -0.1027320E+00  0.1014063E+00  0.2297782E+01  0.6739674E-01 -0.7576889E-01
 -0.7312040E-06  0.1672800E+02 -0.1027320E+00  0.7575779E-01  0.2439568E+01  0.5784381E-01 -0.4892175E-01
 -0.1639630E+01  0.1664750E+02 -0.1027320E+00  0.4239522E-01  0.2937074E+01  0.4151166E-01 -0.8610284E-02
 -0.3263470E+01  0.1640660E+02 -0.1027320E+00  0.4581211E-01 -0.2048079E+01  0.2104457E-01  0.4069245E-01
 -0.4855880E+01  0.1600770E+02 -0.1027320E+00  0.7709064E-01 -0.1646880E+01  0.5859652E-02  0.7686762E-01
 -0.6401530E+01  0.1545470E+02 -0.1027320E+00  0.9887273E-01 -0.1533309E+01 -0.3705562E-02  0.9880327E-01
 -0.7885530E+01  0.1475280E+02 -0.1027320E+00  0.1140671E+00 -0.1478445E+01 -0.1051926E-01  0.1135810E+00
 -0.9293580E+01  0.1390880E+02 -0.1027320E+00  0.1266196E+00 -0.1441881E+01 -0.1627800E-01  0.1255689E+00
 -0.1061210E+02  0.1293090E+02 -0.1027320E+00  0.1354212E+00 -0.1418060E+01 -0.2060336E-01  0.1338447E+00
 -0.1182850E+02  0.1182850E+02 -0.1027320E+00  0.1429152E+00 -0.1399507E+01 -0.2436035E-01  0.1408238E+00
 -0.1293090E+02  0.1061210E+02 -0.1027320E+00  0.1500500E+00 -0.1383854E+01 -0.2788764E-01  0.1474357E+00
 -0.1390880E+02  0.9293580E+01 -0.1027320E+00  0.1541606E+00 -0.1373865E+01 -0.3016316E-01  0.1511809E+00
 -0.1475280E+02  0.7885520E+01 -0.1027320E+00  0.1578861E+00 -0.1366242E+01 -0.3207160E-01  0.1545945E+00
 -0.1545470E+02  0.6401530E+01 -0.1027320E+00  0.1619788E+00 -0.1360428E+01 -0.3382447E-01  0.1584078E+00
 -0.1600770E+02  0.4855880E+01 -0.1027320E+00  0.1661979E+00 -0.1356305E+01 -0.3537531E-01  0.1623894E+00
 -0.1640660E+02  0.3263470E+01 -0.1027320E+00  0.1703766E+00 -0.1354278E+01 -0.3660204E-01  0.1663986E+00
 -0.1664750E+02  0.1639630E+01 -0.1027320E+00  0.1737903E+00 -0.1354926E+01 -0.3722551E-01  0.1697567E+00
 -0.1672800E+02 -0.1462410E-05 -0.1027320E+00  0.1765013E+00 -0.1358007E+01 -0.3727482E-01  0.1725204E+00
 -0.1664750E+02 -0.1639630E+01 -0.1027320E+00  0.1785043E+00 -0.1363328E+01 -0.3676882E-01  0.1746764E+00
 -0.1640660E+02 -0.3263470E+01 -0.1027320E+00  0.1799254E+00 -0.1370892E+01 -0.3572873E-01  0.1763423E+00
 -0.1600770E+02 -0.4855890E+01 -0.1027320E+00  0.1809015E+00 -0.1380945E+01 -0.3413852E-01  0.1776512E+00
 -0.1545470E+02 -0.6401530E+01 -0.1027320E+00  0.1818078E+00 -0.1393466E+01 -0.3207125E-01  0.1789567E+00
 -0.1475280E+02 -0.7885530E+01 -0.1027320E+00  0.1827395E+00 -0.1408195E+01 -0.2958294E-01  0.1803291E+00
 -0.1390880E+02 -0.9293580E+01 -0.1027320E+00  0.1844136E+00 -0.1426130E+01 -0.2658544E-01  0.1824873E+00
 -0.1293090E+02 -0.1061210E+02 -0.1027320E+00  0.1867223E+00 -0.1447616E+01 -0.2294243E-01  0.1853075E+00
 -0.1182850E+02 -0.1182850E+02 -0.1027320E+00  0.1874721E+00 -0.1470568E+01 -0.1875857E-01  0.1865313E+00
 -0.1061210E+02 -0.1293090E+02 -0.1027320E+00  0.1881094E+00 -0.1496252E+01 -0.1400950E-01  0.1875870E+00
 -0.9293580E+01 -0.1390880E+02 -0.1027320E+00  0.1884506E+00 -0.1524958E+01 -0.8635283E-02  0.1882526E+00
 -0.7885520E+01 -0.1475280E+02 -0.1027320E+00  0.1874336E+00 -0.1557103E+01 -0.2566520E-02  0.1874160E+00
 -0.6401520E+01 -0.1545470E+02 -0.1027320E+00  0.1870773E+00 -0.1595766E+01  0.4670782E-02  0.1870190E+00
 -0.4855880E+01 -0.1600770E+02 -0.1027320E+00  0.1847864E+00 -0.1640745E+01  0.1291499E-01  0.1843345E+00
 -0.3263470E+01 -0.1640660E+02 -0.1027320E+00  0.1785988E+00 -0.1697557E+01  0.2257879E-01  0.1771659E+00
 -0.1639630E+01 -0.1664750E+02 -0.1027320E+00  0.1641587E+00 -0.1764117E+01  0.3153800E-01  0.1611007E+00
  0.1994790E-06 -0.1672800E+02 -0.1027320E+00  0.1385908E+00 -0.1827933E+01  0.3524540E-01  0.1340342E+00
  0.1639640E+01 -0.1664750E+02 -0.1027320E+00  0.9940539E-01 -0.1907628E+01  0.3285329E-01  0.9381947E-01
  0.3263470E+01 -0.1640660E+02 -0.1027320E+00  0.5211850E-01 -0.2104844E+01  0.2652943E-01  0.4486120E-01
  0.4855890E+01 -0.1600770E+02 -0.1027320E+00  0.2462261E-01 -0.2767022E+01  0.2291540E-01  0.9008755E-02
  0.6401530E+01 -0.1545470E+02 -0.1027320E+00  0.2593303E-01  0.2629329E+01  0.2260419E-01 -0.1271112E-01
  0.7885520E+01 -0.1475280E+02 -0.1027320E+00  0.3626288E-01  0.2287726E+01  0.2382738E-01 -0.2733592E-01
  0.9293580E+01 -0.1390880E+02 -0.1027320E+00  0.4687477E-01  0.2150672E+01  0.2568362E-01 -0.3921219E-01
  0.1061210E+02 -0.1293090E+02 -0.1027320E+00  0.5514655E-01  0.2107039E+01  0.2817491E-01 -0.4740586E-01
  0.1182850E+02 -0.1182850E+02 -0.1027320E+00  0.6245002E-01  0.2086731E+01  0.3080960E-01 -0.5432102E-01
  0.1293090E+02 -0.1061210E+02 -0.1027320E+00  0.6940985E-01  0.2071934E+01  0.3334616E-01 -0.6087497E-01
  0.1390880E+02 -0.9293580E+01 -0.1027320E+00  0.7408050E-01  0.2082681E+01  0.3628622E-01 -0.6458507E-01
