 VARIABLES="X" "Y" "Z" "abs(eta) (m)" "angle(phi) (rad)" "PRE1" "PRE2"
ZONE N=   3200 ,E =    3136 ,F=FEPOINT,ET=QUADRILATERAL
  0.1672800E+02  0.0000000E+00  0.0000000E+00  0.1560808E+00 -0.1473986E+01 -0.1508669E-01  0.1553500E+00
  0.1664750E+02  0.1639630E+01  0.0000000E+00  0.1542885E+00 -0.1471305E+01 -0.1532501E-01  0.1535255E+00
  0.1640660E+02  0.3263470E+01  0.0000000E+00  0.1530812E+00 -0.1469752E+01 -0.1544163E-01  0.1523004E+00
  0.1600770E+02  0.4855880E+01  0.0000000E+00  0.1520882E+00 -0.1469398E+01 -0.1539500E-01  0.1513070E+00
  0.1545470E+02  0.6401530E+01  0.0000000E+00  0.1508583E+00 -0.1470373E+01 -0.1512429E-01  0.1500983E+00
  0.1475280E+02  0.7885530E+01  0.0000000E+00  0.1478256E+00 -0.1473683E+01 -0.1433333E-01  0.1471291E+00
  0.1390880E+02  0.9293580E+01  0.0000000E+00  0.1432228E+00 -0.1479898E+01 -0.1300084E-01  0.1426315E+00
  0.1293090E+02  0.1061210E+02  0.0000000E+00  0.1386130E+00 -0.1487653E+01 -0.1151147E-01  0.1381342E+00
  0.1182850E+02  0.1182850E+02  0.0000000E+00  0.1339465E+00 -0.1496854E+01 -0.9895275E-02  0.1335805E+00
  0.1061210E+02  0.1293090E+02  0.0000000E+00  0.1282237E+00 -0.1508718E+01 -0.7954741E-02  0.1279767E+00
  0.9293580E+01  0.1390880E+02  0.0000000E+00  0.1204703E+00 -0.1525681E+01 -0.5433156E-02  0.1203478E+00
  0.7885520E+01  0.1475280E+02  0.0000000E+00  0.1117184E+00 -0.1547161E+01 -0.2640217E-02  0.1116872E+00
  0.6401530E+01  0.1545470E+02  0.0000000E+00  0.9837613E-01 -0.1584622E+01  0.1360055E-02  0.9836673E-01
  0.4855880E+01  0.1600770E+02  0.0000000E+00  0.7901771E-01 -0.1659019E+01  0.6962080E-02  0.7871041E-01
  0.3263470E+01  0.1640660E+02  0.0000000E+00  0.4916275E-01 -0.1900757E+01  0.1592904E-01  0.4651067E-01
  0.1639630E+01  0.1664750E+02  0.0000000E+00  0.2874799E-01 -0.3126825E+01  0.2874486E-01  0.4245170E-03
 -0.7312040E-06  0.1672800E+02  0.0000000E+00  0.5569271E-01  0.2361526E+01  0.3959011E-01 -0.3917016E-01
 -0.1639630E+01  0.1664750E+02  0.0000000E+00  0.8282717E-01  0.2171673E+01  0.4682767E-01 -0.6831916E-01
 -0.3263470E+01  0.1640660E+02  0.0000000E+00  0.1015018E+00  0.2090673E+01  0.5042334E-01 -0.8809141E-01
 -0.4855880E+01  0.1600770E+02  0.0000000E+00  0.1097786E+00  0.2053537E+01  0.5096014E-01 -0.9723377E-01
 -0.6401530E+01  0.1545470E+02  0.0000000E+00  0.1136437E+00  0.2032693E+01  0.5064492E-01 -0.1017348E+00
 -0.7885530E+01  0.1475280E+02  0.0000000E+00  0.1153466E+00  0.2019650E+01  0.5005266E-01 -0.1039210E+00
 -0.9293580E+01  0.1390880E+02  0.0000000E+00  0.1150066E+00  0.2012001E+01  0.4911115E-01 -0.1039933E+00
 -0.1061210E+02  0.1293090E+02  0.0000000E+00  0.1147716E+00  0.2005182E+01  0.4830202E-01 -0.1041126E+00
 -0.1182850E+02  0.1182850E+02  0.0000000E+00  0.1142732E+00  0.1999335E+01  0.4748530E-01 -0.1039400E+00
 -0.1293090E+02  0.1061210E+02  0.0000000E+00  0.1133764E+00  0.1994646E+01  0.4662861E-01 -0.1033440E+00
 -0.1390880E+02  0.9293580E+01  0.0000000E+00  0.1125650E+00  0.1989748E+01  0.4579177E-01 -0.1028299E+00
 -0.1475280E+02  0.7885520E+01  0.0000000E+00  0.1118695E+00  0.1984363E+01  0.4495787E-01 -0.1024382E+00
 -0.1545470E+02  0.6401530E+01  0.0000000E+00  0.1102857E+00  0.1980292E+01  0.4390984E-01 -0.1011675E+00
 -0.1600770E+02  0.4855880E+01  0.0000000E+00  0.1073709E+00  0.1978791E+01  0.4260146E-01 -0.9855768E-01
 -0.1640660E+02  0.3263470E+01  0.0000000E+00  0.1044061E+00  0.1977293E+01  0.4128155E-01 -0.9589823E-01
 -0.1664750E+02  0.1639630E+01  0.0000000E+00  0.1015975E+00  0.1975104E+01  0.3996664E-01 -0.9340616E-01
 -0.1672800E+02 -0.1462410E-05  0.0000000E+00  0.9897626E-01  0.1972005E+01  0.3865334E-01 -0.9111652E-01
 -0.1664750E+02 -0.1639630E+01  0.0000000E+00  0.9677842E-01  0.1966124E+01  0.3727038E-01 -0.8931395E-01
 -0.1640660E+02 -0.3263470E+01  0.0000000E+00  0.9506378E-01  0.1955715E+01  0.3569495E-01 -0.8810785E-01
 -0.1600770E+02 -0.4855890E+01  0.0000000E+00  0.9351669E-01  0.1942459E+01  0.3396203E-01 -0.8713181E-01
 -0.1545470E+02 -0.6401530E+01  0.0000000E+00  0.9174605E-01  0.1928419E+01  0.3211550E-01 -0.8594145E-01
 -0.1475280E+02 -0.7885530E+01  0.0000000E+00  0.8835279E-01  0.1920808E+01  0.3029699E-01 -0.8299583E-01
 -0.1390880E+02 -0.9293580E+01  0.0000000E+00  0.8357278E-01  0.1919987E+01  0.2859340E-01 -0.7852915E-01
 -0.1293090E+02 -0.1061210E+02  0.0000000E+00  0.7876880E-01  0.1918050E+01  0.2680636E-01 -0.7406715E-01
 -0.1182850E+02 -0.1182850E+02  0.0000000E+00  0.7388339E-01  0.1914918E+01  0.2492605E-01 -0.6955176E-01
 -0.1061210E+02 -0.1293090E+02  0.0000000E+00  0.6802731E-01  0.1916911E+01  0.2307793E-01 -0.6399316E-01
 -0.9293580E+01 -0.1390880E+02  0.0000000E+00  0.6037075E-01  0.1934516E+01  0.2147707E-01 -0.5642130E-01
 -0.7885520E+01 -0.1475280E+02  0.0000000E+00  0.5182199E-01  0.1965912E+01  0.1994706E-01 -0.4782921E-01
 -0.6401520E+01 -0.1545470E+02  0.0000000E+00  0.3950274E-01  0.2074375E+01  0.1906257E-01 -0.3459891E-01
 -0.4855880E+01 -0.1600770E+02  0.0000000E+00  0.2433590E-01  0.2474150E+01  0.1911358E-01 -0.1506343E-01
 -0.3263470E+01 -0.1640660E+02  0.0000000E+00  0.2722141E-01 -0.2468914E+01  0.2129137E-01  0.1696120E-01
 -0.1639630E+01 -0.1664750E+02  0.0000000E+00  0.6790505E-01 -0.1958610E+01  0.2567934E-01  0.6286228E-01
  0.1994790E-06 -0.1672800E+02  0.0000000E+00  0.1061949E+00 -0.1839011E+01  0.2814272E-01  0.1023979E+00
  0.1639640E+01 -0.1664750E+02  0.0000000E+00  0.1344564E+00 -0.1775577E+01  0.2734200E-01  0.1316470E+00
  0.3263470E+01 -0.1640660E+02  0.0000000E+00  0.1534399E+00 -0.1724029E+01  0.2342007E-01  0.1516420E+00
  0.4855890E+01 -0.1600770E+02  0.0000000E+00  0.1620141E+00 -0.1683290E+01  0.1818715E-01  0.1609901E+00
  0.6401530E+01 -0.1545470E+02  0.0000000E+00  0.1661716E+00 -0.1651120E+01  0.1333315E-01  0.1656358E+00
  0.7885520E+01 -0.1475280E+02  0.0000000E+00  0.1681681E+00 -0.1624027E+01  0.8947439E-02  0.1679299E+00
  0.9293580E+01 -0.1390880E+02  0.0000000E+00  0.1681559E+00 -0.1599819E+01  0.4879588E-02  0.1680851E+00
  0.1061210E+02 -0.1293090E+02  0.0000000E+00  0.1682735E+00 -0.1578376E+01  0.1275449E-02  0.1682686E+00
  0.1182850E+02 -0.1182850E+02  0.0000000E+00  0.1681537E+00 -0.1559514E+01 -0.1897080E-02  0.1681430E+00
  0.1293090E+02 -0.1061210E+02  0.0000000E+00  0.1676469E+00 -0.1542724E+01 -0.4705704E-02  0.1675808E+00
  0.1390880E+02 -0.9293580E+01  0.0000000E+00  0.1672453E+00 -0.1527965E+01 -0.7161180E-02  0.1670919E+00
  0.1475280E+02 -0.7885520E+01  0.0000000E+00  0.1669748E+00 -0.1515214E+01 -0.9276000E-02  0.1667169E+00
  0.1545470E+02 -0.6401530E+01  0.0000000E+00  0.1658248E+00 -0.1503786E+01 -0.1110364E-01  0.1654526E+00
  0.1600770E+02 -0.4855880E+01  0.0000000E+00  0.1633301E+00 -0.1493338E+01 -0.1263861E-01  0.1628404E+00
  0.1640660E+02 -0.3263470E+01  0.0000000E+00  0.1607639E+00 -0.1484846E+01 -0.1380072E-01  0.1601705E+00
  0.1664750E+02 -0.1639620E+01  0.0000000E+00  0.1583365E+00 -0.1478413E+01 -0.1460688E-01  0.1576613E+00
  0.1672800E+02  0.0000000E+00 -0.2568960E-01  0.1559758E+00 -0.1473992E+01 -0.1507552E-01  0.1552455E+00
  0.1664750E+02  0.1639630E+01 -0.2568960E-01  0.1541833E+00 -0.1471312E+01 -0.1531351E-01  0.1534209E+00
  0.1640660E+02  0.3263470E+01 -0.2568960E-01  0.1529733E+00 -0.1469755E+01 -0.1543039E-01  0.1521931E+00
  0.1600770E+02  0.4855880E+01 -0.2568960E-01  0.1519739E+00 -0.1469405E+01 -0.1538249E-01  0.1511935E+00
  0.1545470E+02  0.6401530E+01 -0.2568960E-01  0.1507383E+00 -0.1470384E+01 -0.1511056E-01  0.1499791E+00
  0.1475280E+02  0.7885530E+01 -0.2568960E-01  0.1477104E+00 -0.1473693E+01 -0.1432058E-01  0.1470146E+00
  0.1390880E+02  0.9293580E+01 -0.2568960E-01  0.1431205E+00 -0.1479899E+01 -0.1299140E-01  0.1425296E+00
  0.1293090E+02  0.1061210E+02 -0.2568960E-01  0.1385187E+00 -0.1487652E+01 -0.1150376E-01  0.1380402E+00
  0.1182850E+02  0.1182850E+02 -0.2568960E-01  0.1338539E+00 -0.1496854E+01 -0.9888411E-02  0.1334882E+00
  0.1061210E+02  0.1293090E+02 -0.2568960E-01  0.1281324E+00 -0.1508723E+01 -0.7948434E-02  0.1278856E+00
  0.9293580E+01  0.1390880E+02 -0.2568960E-01  0.1203924E+00 -0.1525676E+01 -0.5430338E-02  0.1202699E+00
  0.7885520E+01  0.1475280E+02 -0.2568960E-01  0.1116379E+00 -0.1547162E+01 -0.2638243E-02  0.1116068E+00
  0.6401530E+01  0.1545470E+02 -0.2568960E-01  0.9831201E-01 -0.1584613E+01  0.1358339E-02  0.9830262E-01
  0.4855880E+01  0.1600770E+02 -0.2568960E-01  0.7896774E-01 -0.1658993E+01  0.6955681E-02  0.7866081E-01
  0.3263470E+01  0.1640660E+02 -0.2568960E-01  0.4911441E-01 -0.1900971E+01  0.1592329E-01  0.4646154E-01
  0.1639630E+01  0.1664750E+02 -0.2568960E-01  0.2873555E-01 -0.3127724E+01  0.2873279E-01  0.3985043E-03
 -0.7312040E-06  0.1672800E+02 -0.2568960E-01  0.5567159E-01  0.2361370E+01  0.3956896E-01 -0.3916151E-01
 -0.1639630E+01  0.1664750E+02 -0.2568960E-01  0.8278181E-01  0.2171641E+01  0.4679982E-01 -0.6828327E-01
 -0.3263470E+01  0.1640660E+02 -0.2568960E-01  0.1014381E+00  0.2090668E+01  0.5039134E-01 -0.8803641E-01
 -0.4855880E+01  0.1600770E+02 -0.2568960E-01  0.1097150E+00  0.2053524E+01  0.5092939E-01 -0.9717808E-01
 -0.6401530E+01  0.1545470E+02 -0.2568960E-01  0.1135725E+00  0.2032684E+01  0.5061226E-01 -0.1016715E+00
 -0.7885530E+01  0.1475280E+02 -0.2568960E-01  0.1152671E+00  0.2019656E+01  0.5001884E-01 -0.1038490E+00
 -0.9293580E+01  0.1390880E+02 -0.2568960E-01  0.1149330E+00  0.2011997E+01  0.4907925E-01 -0.1039270E+00
 -0.1061210E+02  0.1293090E+02 -0.2568960E-01  0.1146936E+00  0.2005183E+01  0.4826924E-01 -0.1040418E+00
 -0.1182850E+02  0.1182850E+02 -0.2568960E-01  0.1141952E+00  0.1999338E+01  0.4745327E-01 -0.1038689E+00
 -0.1293090E+02  0.1061210E+02 -0.2568960E-01  0.1132979E+00  0.1994648E+01  0.4659655E-01 -0.1032723E+00
 -0.1390880E+02  0.9293580E+01 -0.2568960E-01  0.1124831E+00  0.1989756E+01  0.4575926E-01 -0.1027547E+00
 -0.1475280E+02  0.7885520E+01 -0.2568960E-01  0.1117813E+00  0.1984390E+01  0.4492522E-01 -0.1023561E+00
 -0.1545470E+02  0.6401530E+01 -0.2568960E-01  0.1101963E+00  0.1980324E+01  0.4387752E-01 -0.1010841E+00
 -0.1600770E+02  0.4855880E+01 -0.2568960E-01  0.1072891E+00  0.1978814E+01  0.4257128E-01 -0.9848160E-01
 -0.1640660E+02  0.3263470E+01 -0.2568960E-01  0.1043320E+00  0.1977296E+01  0.4125250E-01 -0.9583005E-01
 -0.1664750E+02  0.1639630E+01 -0.2568960E-01  0.1015292E+00  0.1975097E+01  0.3993913E-01 -0.9334372E-01
 -0.1672800E+02 -0.1462410E-05 -0.2568960E-01  0.9891210E-01  0.1971991E+01  0.3862700E-01 -0.9105799E-01
 -0.1664750E+02 -0.1639630E+01 -0.2568960E-01  0.9671520E-01  0.1966110E+01  0.3724478E-01 -0.8925612E-01
 -0.1640660E+02 -0.3263470E+01 -0.2568960E-01  0.9499817E-01  0.1955719E+01  0.3567062E-01 -0.8804692E-01
 -0.1600770E+02 -0.4855890E+01 -0.2568960E-01  0.9344599E-01  0.1942486E+01  0.3393864E-01 -0.8706504E-01
 -0.1545470E+02 -0.6401530E+01 -0.2568960E-01  0.9167044E-01  0.1928473E+01  0.3209376E-01 -0.8586885E-01
 -0.1475280E+02 -0.7885530E+01 -0.2568960E-01  0.8828211E-01  0.1920861E+01  0.3027707E-01 -0.8292786E-01
 -0.1390880E+02 -0.9293580E+01 -0.2568960E-01  0.8351440E-01  0.1919985E+01  0.2857328E-01 -0.7847434E-01
 -0.1293090E+02 -0.1061210E+02 -0.2568960E-01  0.7871760E-01  0.1918028E+01  0.2678725E-01 -0.7401962E-01
 -0.1182850E+02 -0.1182850E+02 -0.2568960E-01  0.7383384E-01  0.1914899E+01  0.2490797E-01 -0.6950560E-01
 -0.1061210E+02 -0.1293090E+02 -0.2568960E-01  0.6798016E-01  0.1916920E+01  0.2306256E-01 -0.6394857E-01
 -0.9293580E+01 -0.1390880E+02 -0.2568960E-01  0.6033636E-01  0.1934463E+01  0.2146186E-01 -0.5639029E-01
 -0.7885520E+01 -0.1475280E+02 -0.2568960E-01  0.5178612E-01  0.1965930E+01  0.1993411E-01 -0.4779575E-01
 -0.6401520E+01 -0.1545470E+02 -0.2568960E-01  0.3948044E-01  0.2074285E+01  0.1904869E-01 -0.3458110E-01
 -0.4855880E+01 -0.1600770E+02 -0.2568960E-01  0.2432296E-01  0.2473910E+01  0.1909982E-01 -0.1505999E-01
 -0.3263470E+01 -0.1640660E+02 -0.2568960E-01  0.2721461E-01 -0.2468606E+01  0.2128083E-01  0.1696352E-01
 -0.1639630E+01 -0.1664750E+02 -0.2568960E-01  0.6788189E-01 -0.1958570E+01  0.2566806E-01  0.6284188E-01
  0.1994790E-06 -0.1672800E+02 -0.2568960E-01  0.1061386E+00 -0.1839032E+01  0.2812999E-01  0.1023430E+00
  0.1639640E+01 -0.1664750E+02 -0.2568960E-01  0.1343732E+00 -0.1775606E+01  0.2732895E-01  0.1315647E+00
  0.3263470E+01 -0.1640660E+02 -0.2568960E-01  0.1533381E+00 -0.1724048E+01  0.2340740E-01  0.1515410E+00
  0.4855890E+01 -0.1600770E+02 -0.2568960E-01  0.1619114E+00 -0.1683301E+01  0.1817735E-01  0.1608879E+00
  0.6401530E+01 -0.1545470E+02 -0.2568960E-01  0.1660610E+00 -0.1651130E+01  0.1332602E-01  0.1655254E+00
  0.7885520E+01 -0.1475280E+02 -0.2568960E-01  0.1680494E+00 -0.1624039E+01  0.8943151E-02  0.1678113E+00
  0.9293580E+01 -0.1390880E+02 -0.2568960E-01  0.1680423E+00 -0.1599832E+01  0.4878576E-02  0.1679715E+00
  0.1061210E+02 -0.1293090E+02 -0.2568960E-01  0.1681565E+00 -0.1578384E+01  0.1275892E-02  0.1681516E+00
  0.1182850E+02 -0.1182850E+02 -0.2568960E-01  0.1680355E+00 -0.1559523E+01 -0.1894286E-02  0.1680248E+00
  0.1293090E+02 -0.1061210E+02 -0.2568960E-01  0.1675280E+00 -0.1542735E+01 -0.4700382E-02  0.1674621E+00
  0.1390880E+02 -0.9293580E+01 -0.2568960E-01  0.1671233E+00 -0.1527973E+01 -0.7154647E-02  0.1669701E+00
  0.1475280E+02 -0.7885520E+01 -0.2568960E-01  0.1668461E+00 -0.1515216E+01 -0.9268577E-02  0.1665884E+00
  0.1545470E+02 -0.6401530E+01 -0.2568960E-01  0.1656947E+00 -0.1503782E+01 -0.1109566E-01  0.1653228E+00
  0.1600770E+02 -0.4855880E+01 -0.2568960E-01  0.1632074E+00 -0.1493341E+01 -0.1262867E-01  0.1627181E+00
  0.1640660E+02 -0.3263470E+01 -0.2568960E-01  0.1606486E+00 -0.1484849E+01 -0.1379028E-01  0.1600556E+00
  0.1664750E+02 -0.1639620E+01 -0.2568960E-01  0.1582265E+00 -0.1478420E+01 -0.1459560E-01  0.1575519E+00
  0.1672800E+02  0.0000000E+00 -0.1027320E+00  0.1556700E+00 -0.1473997E+01 -0.1504526E-01  0.1549412E+00
  0.1664750E+02  0.1639630E+01 -0.1027320E+00  0.1538794E+00 -0.1471313E+01 -0.1528323E-01  0.1531186E+00
  0.1640660E+02  0.3263470E+01 -0.1027320E+00  0.1526579E+00 -0.1469763E+01 -0.1539724E-01  0.1518794E+00
  0.1600770E+02  0.4855880E+01 -0.1027320E+00  0.1516414E+00 -0.1469420E+01 -0.1534655E-01  0.1508628E+00
  0.1545470E+02  0.6401530E+01 -0.1027320E+00  0.1503861E+00 -0.1470414E+01 -0.1507077E-01  0.1496291E+00
  0.1475280E+02  0.7885530E+01 -0.1027320E+00  0.1473722E+00 -0.1473717E+01 -0.1428428E-01  0.1466783E+00
  0.1390880E+02  0.9293580E+01 -0.1027320E+00  0.1428207E+00 -0.1479907E+01 -0.1296301E-01  0.1422312E+00
  0.1293090E+02  0.1061210E+02 -0.1027320E+00  0.1382412E+00 -0.1487642E+01 -0.1148209E-01  0.1377635E+00
  0.1182850E+02  0.1182850E+02 -0.1027320E+00  0.1335792E+00 -0.1496854E+01 -0.9868190E-02  0.1332142E+00
  0.1061210E+02  0.1293090E+02 -0.1027320E+00  0.1278622E+00 -0.1508734E+01 -0.7930341E-02  0.1276160E+00
  0.9293580E+01  0.1390880E+02 -0.1027320E+00  0.1201612E+00 -0.1525647E+01 -0.5423356E-02  0.1200387E+00
  0.7885520E+01  0.1475280E+02 -0.1027320E+00  0.1114003E+00 -0.1547182E+01 -0.2630367E-02  0.1113693E+00
  0.6401530E+01  0.1545470E+02 -0.1027320E+00  0.9812162E-01 -0.1584566E+01  0.1351086E-02  0.9811231E-01
  0.4855880E+01  0.1600770E+02 -0.1027320E+00  0.7881670E-01 -0.1658936E+01  0.6937917E-02  0.7851075E-01
  0.3263470E+01  0.1640660E+02 -0.1027320E+00  0.4898092E-01 -0.1901425E+01  0.1590104E-01  0.4632804E-01
  0.1639630E+01  0.1664750E+02 -0.1027320E+00  0.2869583E-01 -0.3130301E+01  0.2869400E-01  0.3240199E-03
 -0.7312040E-06  0.1672800E+02 -0.1027320E+00  0.5560490E-01  0.2360909E+01  0.3950351E-01 -0.3913282E-01
 -0.1639630E+01  0.1664750E+02 -0.1027320E+00  0.8264496E-01  0.2171538E+01  0.4671543E-01 -0.6817520E-01
 -0.3263470E+01  0.1640660E+02 -0.1027320E+00  0.1012552E+00  0.2090609E+01  0.5029522E-01 -0.8788061E-01
 -0.4855880E+01  0.1600770E+02 -0.1027320E+00  0.1095247E+00  0.2053442E+01  0.5083307E-01 -0.9701376E-01
 -0.6401530E+01  0.1545470E+02 -0.1027320E+00  0.1133611E+00  0.2032644E+01  0.5051403E-01 -0.1014843E+00
 -0.7885530E+01  0.1475280E+02 -0.1027320E+00  0.1150317E+00  0.2019644E+01  0.4991542E-01 -0.1036376E+00
 -0.9293580E+01  0.1390880E+02 -0.1027320E+00  0.1147154E+00  0.2011955E+01  0.4898199E-01 -0.1037323E+00
 -0.1061210E+02  0.1293090E+02 -0.1027320E+00  0.1144644E+00  0.2005176E+01  0.4817213E-01 -0.1038342E+00
 -0.1182850E+02  0.1182850E+02 -0.1027320E+00  0.1139664E+00  0.1999333E+01  0.4735769E-01 -0.1036610E+00
 -0.1293090E+02  0.1061210E+02 -0.1027320E+00  0.1130702E+00  0.1994645E+01  0.4650261E-01 -0.1030649E+00
 -0.1390880E+02  0.9293580E+01 -0.1027320E+00  0.1122461E+00  0.1989773E+01  0.4566464E-01 -0.1025375E+00
 -0.1475280E+02  0.7885520E+01 -0.1027320E+00  0.1115253E+00  0.1984446E+01  0.4482806E-01 -0.1021192E+00
 -0.1545470E+02  0.6401530E+01 -0.1027320E+00  0.1099368E+00  0.1980397E+01  0.4378155E-01 -0.1008429E+00
 -0.1600770E+02  0.4855880E+01 -0.1027320E+00  0.1070540E+00  0.1978843E+01  0.4248085E-01 -0.9826462E-01
 -0.1640660E+02  0.3263470E+01 -0.1027320E+00  0.1041197E+00  0.1977273E+01  0.4116635E-01 -0.9563601E-01
 -0.1664750E+02  0.1639630E+01 -0.1027320E+00  0.1013347E+00  0.1975023E+01  0.3985574E-01 -0.9316783E-01
 -0.1672800E+02 -0.1462410E-05 -0.1027320E+00  0.9872981E-01  0.1971884E+01  0.3854608E-01 -0.9089431E-01
 -0.1664750E+02 -0.1639630E+01 -0.1027320E+00  0.9653517E-01  0.1965996E+01  0.3716533E-01 -0.8909420E-01
 -0.1640660E+02 -0.3263470E+01 -0.1027320E+00  0.9480927E-01  0.1955656E+01  0.3559414E-01 -0.8787408E-01
 -0.1600770E+02 -0.4855890E+01 -0.1027320E+00  0.9324235E-01  0.1942526E+01  0.3386820E-01 -0.8687393E-01
 -0.1545470E+02 -0.6401530E+01 -0.1027320E+00  0.9145068E-01  0.1928608E+01  0.3202831E-01 -0.8565871E-01
 -0.1475280E+02 -0.7885530E+01 -0.1027320E+00  0.8807705E-01  0.1920974E+01  0.3021612E-01 -0.8273181E-01
 -0.1390880E+02 -0.9293580E+01 -0.1027320E+00  0.8334491E-01  0.1919949E+01  0.2851243E-01 -0.7831612E-01
 -0.1293090E+02 -0.1061210E+02 -0.1027320E+00  0.7856940E-01  0.1917920E+01  0.2672887E-01 -0.7388315E-01
 -0.1182850E+02 -0.1182850E+02 -0.1027320E+00  0.7369029E-01  0.1914834E+01  0.2485503E-01 -0.6937208E-01
 -0.1061210E+02 -0.1293090E+02 -0.1027320E+00  0.6784179E-01  0.1916914E+01  0.2301524E-01 -0.6381855E-01
 -0.9293580E+01 -0.1390880E+02 -0.1027320E+00  0.6023392E-01  0.1934264E+01  0.2141421E-01 -0.5629882E-01
 -0.7885520E+01 -0.1475280E+02 -0.1027320E+00  0.5167989E-01  0.1965938E+01  0.1989359E-01 -0.4769755E-01
 -0.6401520E+01 -0.1545470E+02 -0.1027320E+00  0.3941613E-01  0.2073987E+01  0.1900738E-01 -0.3453044E-01
 -0.4855880E+01 -0.1600770E+02 -0.1027320E+00  0.2428551E-01  0.2473255E+01  0.1906056E-01 -0.1504930E-01
 -0.3263470E+01 -0.1640660E+02 -0.1027320E+00  0.2718427E-01 -0.2467952E+01  0.2124602E-01  0.1695851E-01
 -0.1639630E+01 -0.1664750E+02 -0.1027320E+00  0.6780886E-01 -0.1958447E+01  0.2563271E-01  0.6277743E-01
  0.1994790E-06 -0.1672800E+02 -0.1027320E+00  0.1059656E+00 -0.1839065E+01  0.2808752E-01  0.1021754E+00
  0.1639640E+01 -0.1664750E+02 -0.1027320E+00  0.1341221E+00 -0.1775676E+01  0.2728706E-01  0.1313170E+00
  0.3263470E+01 -0.1640660E+02 -0.1027320E+00  0.1530406E+00 -0.1724096E+01  0.2336929E-01  0.1512459E+00
  0.4855890E+01 -0.1600770E+02 -0.1027320E+00  0.1616060E+00 -0.1683328E+01  0.1814748E-01  0.1605838E+00
  0.6401530E+01 -0.1545470E+02 -0.1027320E+00  0.1657337E+00 -0.1651159E+01  0.1330453E-01  0.1651988E+00
  0.7885520E+01 -0.1475280E+02 -0.1027320E+00  0.1676980E+00 -0.1624052E+01  0.8926701E-02  0.1674602E+00
  0.9293580E+01 -0.1390880E+02 -0.1027320E+00  0.1677075E+00 -0.1599856E+01  0.4872875E-02  0.1676367E+00
  0.1061210E+02 -0.1293090E+02 -0.1027320E+00  0.1678092E+00 -0.1578409E+01  0.1277401E-02  0.1678044E+00
  0.1182850E+02 -0.1182850E+02 -0.1027320E+00  0.1676878E+00 -0.1559553E+01 -0.1885283E-02  0.1676773E+00
  0.1293090E+02 -0.1061210E+02 -0.1027320E+00  0.1671804E+00 -0.1542757E+01 -0.4687046E-02  0.1671146E+00
  0.1390880E+02 -0.9293580E+01 -0.1027320E+00  0.1667653E+00 -0.1527986E+01 -0.7137057E-02  0.1666125E+00
