 VARIABLES="X" "Y" "Z" "abs(eta) (m)" "angle(phi) (rad)" "PRE1" "PRE2"
ZONE N=   3200 ,E =    3136 ,F=FEPOINT,ET=QUADRILATERAL
  0.1672800E+02  0.0000000E+00  0.0000000E+00  0.4367791E+00 -0.1146329E+01 -0.1798811E+00  0.3980186E+00
  0.1664750E+02  0.1639630E+01  0.0000000E+00  0.4362257E+00 -0.1143981E+01 -0.1805862E+00  0.3970913E+00
  0.1640660E+02  0.3263470E+01  0.0000000E+00  0.4351421E+00 -0.1144605E+01 -0.1798904E+00  0.3962172E+00
  0.1600770E+02  0.4855880E+01  0.0000000E+00  0.4316982E+00 -0.1147050E+01 -0.1775051E+00  0.3935165E+00
  0.1545470E+02  0.6401530E+01  0.0000000E+00  0.4254425E+00 -0.1151222E+01 -0.1733133E+00  0.3885406E+00
  0.1475280E+02  0.7885530E+01  0.0000000E+00  0.4165578E+00 -0.1157286E+01 -0.1673840E+00  0.3814485E+00
  0.1390880E+02  0.9293580E+01  0.0000000E+00  0.4070594E+00 -0.1166043E+01 -0.1602969E+00  0.3741687E+00
  0.1293090E+02  0.1061210E+02  0.0000000E+00  0.3977875E+00 -0.1177750E+01 -0.1523544E+00  0.3674548E+00
  0.1182850E+02  0.1182850E+02  0.0000000E+00  0.3871039E+00 -0.1191832E+01 -0.1432123E+00  0.3596383E+00
  0.1061210E+02  0.1293090E+02  0.0000000E+00  0.3733565E+00 -0.1207645E+01 -0.1326242E+00  0.3490070E+00
  0.9293580E+01  0.1390880E+02  0.0000000E+00  0.3576432E+00 -0.1226068E+01 -0.1208624E+00  0.3366021E+00
  0.7885520E+01  0.1475280E+02  0.0000000E+00  0.3370335E+00 -0.1247120E+01 -0.1071950E+00  0.3195321E+00
  0.6401530E+01  0.1545470E+02  0.0000000E+00  0.3060653E+00 -0.1271817E+01 -0.9014988E-01  0.2924876E+00
  0.4855880E+01  0.1600770E+02  0.0000000E+00  0.2638694E+00 -0.1302396E+01 -0.6997546E-01  0.2544219E+00
  0.3263470E+01  0.1640660E+02  0.0000000E+00  0.1937322E+00 -0.1354488E+01 -0.4157987E-01  0.1892176E+00
  0.1639630E+01  0.1664750E+02  0.0000000E+00  0.9383050E-01 -0.1535777E+01 -0.3285165E-02  0.9377297E-01
 -0.7312040E-06  0.1672800E+02  0.0000000E+00  0.3620069E-01 -0.3109998E+01  0.3618263E-01  0.1143574E-02
 -0.1639630E+01  0.1664750E+02  0.0000000E+00  0.1110410E+00  0.2305509E+01  0.7443903E-01 -0.8239501E-01
 -0.3263470E+01  0.1640660E+02  0.0000000E+00  0.1892508E+00  0.2185283E+01  0.1091105E+00 -0.1546310E+00
 -0.4855880E+01  0.1600770E+02  0.0000000E+00  0.2398239E+00  0.2157212E+01  0.1327135E+00 -0.1997565E+00
 -0.6401530E+01  0.1545470E+02  0.0000000E+00  0.2689037E+00  0.2154206E+01  0.1481317E+00 -0.2244242E+00
 -0.7885530E+01  0.1475280E+02  0.0000000E+00  0.2907324E+00  0.2156067E+01  0.1606078E+00 -0.2423437E+00
 -0.9293580E+01  0.1390880E+02  0.0000000E+00  0.3039296E+00  0.2163918E+01  0.1698820E+00 -0.2520184E+00
 -0.1061210E+02  0.1293090E+02  0.0000000E+00  0.3134676E+00  0.2172992E+01  0.1775649E+00 -0.2583266E+00
 -0.1182850E+02  0.1182850E+02  0.0000000E+00  0.3215418E+00  0.2180897E+01  0.1842275E+00 -0.2635325E+00
 -0.1293090E+02  0.1061210E+02  0.0000000E+00  0.3276134E+00  0.2187586E+01  0.1894979E+00 -0.2672473E+00
 -0.1390880E+02  0.9293580E+01  0.0000000E+00  0.3325509E+00  0.2193047E+01  0.1938326E+00 -0.2702204E+00
 -0.1475280E+02  0.7885520E+01  0.0000000E+00  0.3374915E+00  0.2196292E+01  0.1976009E+00 -0.2735953E+00
 -0.1545470E+02  0.6401530E+01  0.0000000E+00  0.3419436E+00  0.2197369E+01  0.2005062E+00 -0.2769886E+00
 -0.1600770E+02  0.4855880E+01  0.0000000E+00  0.3441710E+00  0.2197819E+01  0.2019377E+00 -0.2787021E+00
 -0.1640660E+02  0.3263470E+01  0.0000000E+00  0.3438573E+00  0.2198085E+01  0.2018277E+00 -0.2783944E+00
 -0.1664750E+02  0.1639630E+01  0.0000000E+00  0.3413530E+00  0.2197856E+01  0.2002945E+00 -0.2764127E+00
 -0.1672800E+02 -0.1462410E-05  0.0000000E+00  0.3384098E+00  0.2194424E+01  0.1976258E+00 -0.2747094E+00
 -0.1664750E+02 -0.1639630E+01  0.0000000E+00  0.3356698E+00  0.2187046E+01  0.1940101E+00 -0.2739239E+00
 -0.1640660E+02 -0.3263470E+01  0.0000000E+00  0.3324234E+00  0.2176981E+01  0.1893937E+00 -0.2731947E+00
 -0.1600770E+02 -0.4855890E+01  0.0000000E+00  0.3270364E+00  0.2166789E+01  0.1835755E+00 -0.2706525E+00
 -0.1545470E+02 -0.6401530E+01  0.0000000E+00  0.3191852E+00  0.2157247E+01  0.1766396E+00 -0.2658527E+00
 -0.1475280E+02 -0.7885530E+01  0.0000000E+00  0.3090664E+00  0.2148219E+01  0.1687090E+00 -0.2589581E+00
 -0.1390880E+02 -0.9293580E+01  0.0000000E+00  0.2983631E+00  0.2136494E+01  0.1599242E+00 -0.2518825E+00
 -0.1293090E+02 -0.1061210E+02  0.0000000E+00  0.2877327E+00  0.2120399E+01  0.1502966E+00 -0.2453590E+00
 -0.1182850E+02 -0.1182850E+02  0.0000000E+00  0.2757882E+00  0.2102320E+01  0.1397826E+00 -0.2377392E+00
 -0.1061210E+02 -0.1293090E+02  0.0000000E+00  0.2609731E+00  0.2084266E+01  0.1281906E+00 -0.2273194E+00
 -0.9293580E+01 -0.1390880E+02  0.0000000E+00  0.2443088E+00  0.2064458E+01  0.1157666E+00 -0.2151393E+00
 -0.7885520E+01 -0.1475280E+02  0.0000000E+00  0.2232276E+00  0.2047413E+01  0.1024113E+00 -0.1983494E+00
 -0.6401520E+01 -0.1545470E+02  0.0000000E+00  0.1928144E+00  0.2043881E+01  0.8785280E-01 -0.1716370E+00
 -0.4855880E+01 -0.1600770E+02  0.0000000E+00  0.1521801E+00  0.2064042E+01  0.7205529E-01 -0.1340403E+00
 -0.3263470E+01 -0.1640660E+02  0.0000000E+00  0.8826962E-01  0.2235025E+01  0.5441399E-01 -0.6950283E-01
 -0.1639630E+01 -0.1664750E+02  0.0000000E+00  0.4317573E-01 -0.2516716E+01  0.3501702E-01  0.2525770E-01
  0.1994790E-06 -0.1672800E+02  0.0000000E+00  0.1187625E+00 -0.1700858E+01  0.1540292E-01  0.1177595E+00
  0.1639640E+01 -0.1664750E+02  0.0000000E+00  0.2018963E+00 -0.1546907E+01 -0.4822796E-02  0.2018387E+00
  0.3263470E+01 -0.1640660E+02  0.0000000E+00  0.2763906E+00 -0.1475740E+01 -0.2623315E-01  0.2751428E+00
  0.4855890E+01 -0.1600770E+02  0.0000000E+00  0.3246315E+00 -0.1425939E+01 -0.4686081E-01  0.3212315E+00
  0.6401530E+01 -0.1545470E+02  0.0000000E+00  0.3527425E+00 -0.1383745E+01 -0.6559674E-01  0.3465895E+00
  0.7885520E+01 -0.1475280E+02  0.0000000E+00  0.3742767E+00 -0.1347744E+01 -0.8279286E-01  0.3650047E+00
  0.9293580E+01 -0.1390880E+02  0.0000000E+00  0.3877525E+00 -0.1314234E+01 -0.9839489E-01  0.3750606E+00
  0.1061210E+02 -0.1293090E+02  0.0000000E+00  0.3979027E+00 -0.1284093E+01 -0.1125237E+00  0.3816608E+00
  0.1182850E+02 -0.1182850E+02  0.0000000E+00  0.4068891E+00 -0.1257531E+01 -0.1253896E+00  0.3870868E+00
  0.1293090E+02 -0.1061210E+02  0.0000000E+00  0.4142209E+00 -0.1233868E+01 -0.1369370E+00  0.3909312E+00
  0.1390880E+02 -0.9293580E+01  0.0000000E+00  0.4205513E+00 -0.1213366E+01 -0.1471377E+00  0.3939720E+00
  0.1475280E+02 -0.7885520E+01  0.0000000E+00  0.4269095E+00 -0.1196608E+01 -0.1560427E+00  0.3973694E+00
  0.1545470E+02 -0.6401530E+01  0.0000000E+00  0.4328685E+00 -0.1183068E+01 -0.1636615E+00  0.4007369E+00
  0.1600770E+02 -0.4855880E+01  0.0000000E+00  0.4367836E+00 -0.1171259E+01 -0.1699056E+00  0.4023829E+00
  0.1640660E+02 -0.3263470E+01  0.0000000E+00  0.4382893E+00 -0.1160856E+01 -0.1746824E+00  0.4019746E+00
  0.1664750E+02 -0.1639620E+01  0.0000000E+00  0.4376641E+00 -0.1152102E+01 -0.1779401E+00  0.3998590E+00
  0.1672800E+02  0.0000000E+00 -0.2568960E-01  0.4362684E+00 -0.1146315E+01 -0.1796763E+00  0.3975506E+00
  0.1664750E+02  0.1639630E+01 -0.2568960E-01  0.4357111E+00 -0.1143975E+01 -0.1803756E+00  0.3966218E+00
  0.1640660E+02  0.3263470E+01 -0.2568960E-01  0.4346239E+00 -0.1144596E+01 -0.1796798E+00  0.3957438E+00
  0.1600770E+02  0.4855880E+01 -0.2568960E-01  0.4311880E+00 -0.1147044E+01 -0.1772975E+00  0.3930506E+00
  0.1545470E+02  0.6401530E+01 -0.2568960E-01  0.4249539E+00 -0.1151223E+01 -0.1731139E+00  0.3880945E+00
  0.1475280E+02  0.7885530E+01 -0.2568960E-01  0.4161006E+00 -0.1157296E+01 -0.1671965E+00  0.3810315E+00
  0.1390880E+02  0.9293580E+01 -0.2568960E-01  0.4066277E+00 -0.1166059E+01 -0.1601207E+00  0.3737746E+00
  0.1293090E+02  0.1061210E+02 -0.2568960E-01  0.3973664E+00 -0.1177759E+01 -0.1521899E+00  0.3670671E+00
  0.1182850E+02  0.1182850E+02 -0.2568960E-01  0.3866874E+00 -0.1191838E+01 -0.1430560E+00  0.3592522E+00
  0.1061210E+02  0.1293090E+02 -0.2568960E-01  0.3729661E+00 -0.1207647E+01 -0.1324849E+00  0.3486423E+00
  0.9293580E+01  0.1390880E+02 -0.2568960E-01  0.3572628E+00 -0.1226084E+01 -0.1207285E+00  0.3362460E+00
  0.7885520E+01  0.1475280E+02 -0.2568960E-01  0.3366658E+00 -0.1247132E+01 -0.1070742E+00  0.3191849E+00
  0.6401530E+01  0.1545470E+02 -0.2568960E-01  0.3057499E+00 -0.1271822E+01 -0.9005560E-01  0.2921866E+00
  0.4855880E+01  0.1600770E+02 -0.2568960E-01  0.2635908E+00 -0.1302406E+01 -0.6989891E-01  0.2541540E+00
  0.3263470E+01  0.1640660E+02 -0.2568960E-01  0.1935276E+00 -0.1354493E+01 -0.4153503E-01  0.1890179E+00
  0.1639630E+01  0.1664750E+02 -0.2568960E-01  0.9370319E-01 -0.1535846E+01 -0.3274279E-02  0.9364596E-01
 -0.7312040E-06  0.1672800E+02 -0.2568960E-01  0.3616205E-01 -0.3110492E+01  0.3614456E-01  0.1124467E-02
 -0.1639630E+01  0.1664750E+02 -0.2568960E-01  0.1109200E+00  0.2305499E+01  0.7435706E-01 -0.8230603E-01
 -0.3263470E+01  0.1640660E+02 -0.2568960E-01  0.1890661E+00  0.2185241E+01  0.1089975E+00 -0.1544848E+00
 -0.4855880E+01  0.1600770E+02 -0.2568960E-01  0.2395826E+00  0.2157200E+01  0.1325776E+00 -0.1995571E+00
 -0.6401530E+01  0.1545470E+02 -0.2568960E-01  0.2686376E+00  0.2154175E+01  0.1479781E+00 -0.2242067E+00
 -0.7885530E+01  0.1475280E+02 -0.2568960E-01  0.2904201E+00  0.2156065E+01  0.1604348E+00 -0.2420837E+00
 -0.9293580E+01  0.1390880E+02 -0.2568960E-01  0.3036124E+00  0.2163907E+01  0.1697021E+00 -0.2517572E+00
 -0.1061210E+02  0.1293090E+02 -0.2568960E-01  0.3131439E+00  0.2172967E+01  0.1773750E+00 -0.2580643E+00
 -0.1182850E+02  0.1182850E+02 -0.2568960E-01  0.3212026E+00  0.2180873E+01  0.1840267E+00 -0.2632590E+00
 -0.1293090E+02  0.1061210E+02 -0.2568960E-01  0.3272716E+00  0.2187561E+01  0.1892936E+00 -0.2669731E+00
 -0.1390880E+02  0.9293580E+01 -0.2568960E-01  0.3322024E+00  0.2193026E+01  0.1936237E+00 -0.2699412E+00
 -0.1475280E+02  0.7885520E+01 -0.2568960E-01  0.3371249E+00  0.2196280E+01  0.1973831E+00 -0.2733005E+00
 -0.1545470E+02  0.6401530E+01 -0.2568960E-01  0.3415514E+00  0.2197376E+01  0.2002780E+00 -0.2766696E+00
 -0.1600770E+02  0.4855880E+01 -0.2568960E-01  0.3437639E+00  0.2197844E+01  0.2017057E+00 -0.2783674E+00
 -0.1640660E+02  0.3263470E+01 -0.2568960E-01  0.3434460E+00  0.2198112E+01  0.2015938E+00 -0.2780559E+00
 -0.1664750E+02  0.1639630E+01 -0.2568960E-01  0.3409493E+00  0.2197882E+01  0.2000649E+00 -0.2760805E+00
 -0.1672800E+02 -0.1462410E-05 -0.2568960E-01  0.3380136E+00  0.2194451E+01  0.1974019E+00 -0.2743823E+00
 -0.1664750E+02 -0.1639630E+01 -0.2568960E-01  0.3352741E+00  0.2187082E+01  0.1937912E+00 -0.2735940E+00
 -0.1640660E+02 -0.3263470E+01 -0.2568960E-01  0.3320271E+00  0.2177025E+01  0.1891799E+00 -0.2728607E+00
 -0.1600770E+02 -0.4855890E+01 -0.2568960E-01  0.3266497E+00  0.2166825E+01  0.1833681E+00 -0.2703260E+00
 -0.1545470E+02 -0.6401530E+01 -0.2568960E-01  0.3188211E+00  0.2157268E+01  0.1764437E+00 -0.2655457E+00
 -0.1475280E+02 -0.7885530E+01 -0.2568960E-01  0.3087313E+00  0.2148201E+01  0.1685213E+00 -0.2586805E+00
 -0.1390880E+02 -0.9293580E+01 -0.2568960E-01  0.2980530E+00  0.2136455E+01  0.1597482E+00 -0.2516270E+00
 -0.1293090E+02 -0.1061210E+02 -0.2568960E-01  0.2874350E+00  0.2120366E+01  0.1501331E+00 -0.2451100E+00
 -0.1182850E+02 -0.1182850E+02 -0.2568960E-01  0.2754978E+00  0.2102294E+01  0.1396292E+00 -0.2374926E+00
 -0.1061210E+02 -0.1293090E+02 -0.2568960E-01  0.2607084E+00  0.2084232E+01  0.1280530E+00 -0.2270932E+00
 -0.9293580E+01 -0.1390880E+02 -0.2568960E-01  0.2440558E+00  0.2064423E+01  0.1156391E+00 -0.2149205E+00
 -0.7885520E+01 -0.1475280E+02 -0.2568960E-01  0.2229903E+00  0.2047408E+01  0.1023015E+00 -0.1981390E+00
 -0.6401520E+01 -0.1545470E+02 -0.2568960E-01  0.1926264E+00  0.2043839E+01  0.8775991E-01 -0.1714734E+00
 -0.4855880E+01 -0.1600770E+02 -0.2568960E-01  0.1520297E+00  0.2064018E+01  0.7198095E-01 -0.1339096E+00
 -0.3263470E+01 -0.1640660E+02 -0.2568960E-01  0.8818496E-01  0.2234957E+01  0.5435710E-01 -0.6943986E-01
 -0.1639630E+01 -0.1664750E+02 -0.2568960E-01  0.4313998E-01 -0.2516379E+01  0.3497953E-01  0.2524857E-01
  0.1994790E-06 -0.1672800E+02 -0.2568960E-01  0.1186445E+00 -0.1700884E+01  0.1539074E-01  0.1176420E+00
  0.1639640E+01 -0.1664750E+02 -0.2568960E-01  0.2016709E+00 -0.1546928E+01 -0.4813071E-02  0.2016134E+00
  0.3263470E+01 -0.1640660E+02 -0.2568960E-01  0.2761052E+00 -0.1475759E+01 -0.2620086E-01  0.2748592E+00
  0.4855890E+01 -0.1600770E+02 -0.2568960E-01  0.3242897E+00 -0.1425957E+01 -0.4680580E-01  0.3208941E+00
  0.6401530E+01 -0.1545470E+02 -0.2568960E-01  0.3523782E+00 -0.1383765E+01 -0.6552231E-01  0.3462329E+00
  0.7885520E+01 -0.1475280E+02 -0.2568960E-01  0.3738657E+00 -0.1347755E+01 -0.8269767E-01  0.3646048E+00
  0.9293580E+01 -0.1390880E+02 -0.2568960E-01  0.3873375E+00 -0.1314244E+01 -0.9828599E-01  0.3746601E+00
  0.1061210E+02 -0.1293090E+02 -0.2568960E-01  0.3974818E+00 -0.1284108E+01 -0.1123987E+00  0.3812588E+00
  0.1182850E+02 -0.1182850E+02 -0.2568960E-01  0.4064535E+00 -0.1257538E+01 -0.1252529E+00  0.3866732E+00
  0.1293090E+02 -0.1061210E+02 -0.2568960E-01  0.4137790E+00 -0.1233882E+01 -0.1367855E+00  0.3905161E+00
  0.1390880E+02 -0.9293580E+01 -0.2568960E-01  0.4200999E+00 -0.1213389E+01 -0.1469707E+00  0.3935525E+00
  0.1475280E+02 -0.7885520E+01 -0.2568960E-01  0.4264403E+00 -0.1196618E+01 -0.1558673E+00  0.3969342E+00
  0.1545470E+02 -0.6401530E+01 -0.2568960E-01  0.4323724E+00 -0.1183070E+01 -0.1634732E+00  0.4002779E+00
  0.1600770E+02 -0.4855880E+01 -0.2568960E-01  0.4362698E+00 -0.1171250E+01 -0.1697090E+00  0.4019082E+00
  0.1640660E+02 -0.3263470E+01 -0.2568960E-01  0.4377714E+00 -0.1160836E+01 -0.1744837E+00  0.4014962E+00
  0.1664750E+02 -0.1639620E+01 -0.2568960E-01  0.4371510E+00 -0.1152087E+01 -0.1777374E+00  0.3993875E+00
  0.1672800E+02  0.0000000E+00 -0.1027320E+00  0.4347292E+00 -0.1146291E+01 -0.1790518E+00  0.3961439E+00
  0.1664750E+02  0.1639630E+01 -0.1027320E+00  0.4341626E+00 -0.1143950E+01 -0.1797442E+00  0.3952078E+00
  0.1640660E+02  0.3263470E+01 -0.1027320E+00  0.4330639E+00 -0.1144568E+01 -0.1790456E+00  0.3943184E+00
  0.1600770E+02  0.4855880E+01 -0.1027320E+00  0.4296526E+00 -0.1147022E+01 -0.1766748E+00  0.3916470E+00
  0.1545470E+02  0.6401530E+01 -0.1027320E+00  0.4234809E+00 -0.1151223E+01 -0.1725139E+00  0.3867493E+00
  0.1475280E+02  0.7885530E+01 -0.1027320E+00  0.4147229E+00 -0.1157317E+01 -0.1666348E+00  0.3797735E+00
  0.1390880E+02  0.9293580E+01 -0.1027320E+00  0.4053241E+00 -0.1166095E+01 -0.1595940E+00  0.3725820E+00
  0.1293090E+02  0.1061210E+02 -0.1027320E+00  0.3960906E+00 -0.1177794E+01 -0.1516882E+00  0.3658940E+00
  0.1182850E+02  0.1182850E+02 -0.1027320E+00  0.3854287E+00 -0.1191859E+01 -0.1425829E+00  0.3580858E+00
  0.1061210E+02  0.1293090E+02 -0.1027320E+00  0.3717826E+00 -0.1207679E+01 -0.1320534E+00  0.3475403E+00
  0.9293580E+01  0.1390880E+02 -0.1027320E+00  0.3561139E+00 -0.1226111E+01 -0.1203311E+00  0.3351679E+00
  0.7885520E+01  0.1475280E+02 -0.1027320E+00  0.3355573E+00 -0.1247157E+01 -0.1067137E+00  0.3181365E+00
  0.6401530E+01  0.1545470E+02 -0.1027320E+00  0.3047997E+00 -0.1271832E+01 -0.8977290E-01  0.2912794E+00
  0.4855880E+01  0.1600770E+02 -0.1027320E+00  0.2627471E+00 -0.1302426E+01 -0.6967028E-01  0.2533419E+00
  0.3263470E+01  0.1640660E+02 -0.1027320E+00  0.1929334E+00 -0.1354474E+01 -0.4141101E-01  0.1884367E+00
  0.1639630E+01  0.1664750E+02 -0.1027320E+00  0.9332350E-01 -0.1536072E+01 -0.3239979E-02  0.9326724E-01
 -0.7312040E-06  0.1672800E+02 -0.1027320E+00  0.3605641E-01 -0.3111819E+01  0.3604043E-01  0.1073367E-02
 -0.1639630E+01  0.1664750E+02 -0.1027320E+00  0.1105514E+00  0.2305483E+01  0.7410868E-01 -0.8203363E-01
 -0.3263470E+01  0.1640660E+02 -0.1027320E+00  0.1885277E+00  0.2185144E+01  0.1086722E+00 -0.1540553E+00
 -0.4855880E+01  0.1600770E+02 -0.1027320E+00  0.2388466E+00  0.2157153E+01  0.1321609E+00 -0.1989502E+00
 -0.6401530E+01  0.1545470E+02 -0.1027320E+00  0.2678364E+00  0.2154098E+01  0.1475197E+00 -0.2235493E+00
 -0.7885530E+01  0.1475280E+02 -0.1027320E+00  0.2894758E+00  0.2156051E+01  0.1599097E+00 -0.2412988E+00
 -0.9293580E+01  0.1390880E+02 -0.1027320E+00  0.3026531E+00  0.2163869E+01  0.1691564E+00 -0.2509682E+00
 -0.1061210E+02  0.1293090E+02 -0.1027320E+00  0.3121657E+00  0.2172910E+01  0.1768062E+00 -0.2572684E+00
 -0.1182850E+02  0.1182850E+02 -0.1027320E+00  0.3201779E+00  0.2180833E+01  0.1834292E+00 -0.2624264E+00
 -0.1293090E+02  0.1061210E+02 -0.1027320E+00  0.3262390E+00  0.2187517E+01  0.1886845E+00 -0.2661391E+00
 -0.1390880E+02  0.9293580E+01 -0.1027320E+00  0.3311506E+00  0.2192988E+01  0.1930004E+00 -0.2690939E+00
 -0.1475280E+02  0.7885520E+01 -0.1027320E+00  0.3360185E+00  0.2196274E+01  0.1967336E+00 -0.2724048E+00
 -0.1545470E+02  0.6401530E+01 -0.1027320E+00  0.3403721E+00  0.2197420E+01  0.1995987E+00 -0.2757055E+00
 -0.1600770E+02  0.4855880E+01 -0.1027320E+00  0.3425382E+00  0.2197928E+01  0.2010100E+00 -0.2773579E+00
 -0.1640660E+02  0.3263470E+01 -0.1027320E+00  0.3422111E+00  0.2198221E+01  0.2008991E+00 -0.2770343E+00
 -0.1664750E+02  0.1639630E+01 -0.1027320E+00  0.3397342E+00  0.2197976E+01  0.1993776E+00 -0.2750779E+00
 -0.1672800E+02 -0.1462410E-05 -0.1027320E+00  0.3368182E+00  0.2194547E+01  0.1967299E+00 -0.2733931E+00
 -0.1664750E+02 -0.1639630E+01 -0.1027320E+00  0.3340790E+00  0.2187196E+01  0.1931315E+00 -0.2725967E+00
 -0.1640660E+02 -0.3263470E+01 -0.1027320E+00  0.3308328E+00  0.2177166E+01  0.1885375E+00 -0.2718528E+00
 -0.1600770E+02 -0.4855890E+01 -0.1027320E+00  0.3254847E+00  0.2166951E+01  0.1827482E+00 -0.2693388E+00
 -0.1545470E+02 -0.6401530E+01 -0.1027320E+00  0.3177203E+00  0.2157338E+01  0.1758531E+00 -0.2646164E+00
 -0.1475280E+02 -0.7885530E+01 -0.1027320E+00  0.3077209E+00  0.2148179E+01  0.1679641E+00 -0.2578376E+00
 -0.1390880E+02 -0.9293580E+01 -0.1027320E+00  0.2971157E+00  0.2136374E+01  0.1592254E+00 -0.2508486E+00
 -0.1293090E+02 -0.1061210E+02 -0.1027320E+00  0.2865304E+00  0.2120284E+01  0.1496405E+00 -0.2443509E+00
 -0.1182850E+02 -0.1182850E+02 -0.1027320E+00  0.2746159E+00  0.2102244E+01  0.1391703E+00 -0.2367393E+00
 -0.1061210E+02 -0.1293090E+02 -0.1027320E+00  0.2599022E+00  0.2084135E+01  0.1276349E+00 -0.2264034E+00
 -0.9293580E+01 -0.1390880E+02 -0.1027320E+00  0.2432918E+00  0.2064362E+01  0.1152641E+00 -0.2142547E+00
 -0.7885520E+01 -0.1475280E+02 -0.1027320E+00  0.2222697E+00  0.2047386E+01  0.1019665E+00 -0.1975010E+00
 -0.6401520E+01 -0.1545470E+02 -0.1027320E+00  0.1920552E+00  0.2043708E+01  0.8747730E-01 -0.1709764E+00
 -0.4855880E+01 -0.1600770E+02 -0.1027320E+00  0.1515661E+00  0.2063940E+01  0.7175094E-01 -0.1335068E+00
 -0.3263470E+01 -0.1640660E+02 -0.1027320E+00  0.8794457E-01  0.2234673E+01  0.5418924E-01 -0.6926597E-01
 -0.1639630E+01 -0.1664750E+02 -0.1027320E+00  0.4303790E-01 -0.2515459E+01  0.3487356E-01  0.2522092E-01
  0.1994790E-06 -0.1672800E+02 -0.1027320E+00  0.1182869E+00 -0.1700946E+01  0.1535155E-01  0.1172865E+00
  0.1639640E+01 -0.1664750E+02 -0.1027320E+00  0.2009904E+00 -0.1546999E+01 -0.4782579E-02  0.2009335E+00
  0.3263470E+01 -0.1640660E+02 -0.1027320E+00  0.2752596E+00 -0.1475826E+01 -0.2610227E-01  0.2740192E+00
  0.4855890E+01 -0.1600770E+02 -0.1027320E+00  0.3232569E+00 -0.1426006E+01 -0.4664107E-01  0.3198744E+00
  0.6401530E+01 -0.1545470E+02 -0.1027320E+00  0.3512829E+00 -0.1383825E+01 -0.6529769E-01  0.3451606E+00
  0.7885520E+01 -0.1475280E+02 -0.1027320E+00  0.3726324E+00 -0.1347782E+01 -0.8241511E-01  0.3634043E+00
  0.9293580E+01 -0.1390880E+02 -0.1027320E+00  0.3860850E+00 -0.1314291E+01 -0.9795061E-01  0.3734532E+00
  0.1061210E+02 -0.1293090E+02 -0.1027320E+00  0.3962106E+00 -0.1284154E+01 -0.1120217E+00  0.3800447E+00
  0.1182850E+02 -0.1182850E+02 -0.1027320E+00  0.4051329E+00 -0.1257582E+01 -0.1248286E+00  0.3854225E+00
  0.1293090E+02 -0.1061210E+02 -0.1027320E+00  0.4124441E+00 -0.1233936E+01 -0.1363231E+00  0.3892635E+00
  0.1390880E+02 -0.9293580E+01 -0.1027320E+00  0.4187412E+00 -0.1213432E+01 -0.1464784E+00  0.3922860E+00
