 VARIABLES="X" "Y" "Z" "abs(eta) (m)" "angle(phi) (rad)" "PRE1" "PRE2"
ZONE N=   3200 ,E =    3136 ,F=FEPOINT,ET=QUADRILATERAL
  0.1672800E+02  0.0000000E+00  0.0000000E+00  0.8786731E-01 -0.1455647E+01 -0.1009553E-01  0.8728542E-01
  0.1664750E+02  0.1639630E+01  0.0000000E+00  0.8496943E-01 -0.1461264E+01 -0.9288339E-02  0.8446024E-01
  0.1640660E+02  0.3263470E+01  0.0000000E+00  0.8178982E-01 -0.1471515E+01 -0.8106906E-02  0.8138706E-01
  0.1600770E+02  0.4855880E+01  0.0000000E+00  0.7824636E-01 -0.1487404E+01 -0.6517578E-02  0.7797444E-01
  0.1545470E+02  0.6401530E+01  0.0000000E+00  0.7473566E-01 -0.1507174E+01 -0.4751625E-02  0.7458445E-01
  0.1475280E+02  0.7885530E+01  0.0000000E+00  0.7135593E-01 -0.1529712E+01 -0.2930796E-02  0.7129572E-01
  0.1390880E+02  0.9293580E+01  0.0000000E+00  0.6801493E-01 -0.1556027E+01 -0.1004521E-02  0.6800751E-01
  0.1293090E+02  0.1061210E+02  0.0000000E+00  0.6424255E-01 -0.1590184E+01  0.1245412E-02  0.6423048E-01
  0.1182850E+02  0.1182850E+02  0.0000000E+00  0.5911904E-01 -0.1643701E+01  0.4306213E-02  0.5896200E-01
  0.1061210E+02  0.1293090E+02  0.0000000E+00  0.5402258E-01 -0.1710237E+01  0.7508557E-02  0.5349823E-01
  0.9293580E+01  0.1390880E+02  0.0000000E+00  0.4853921E-01 -0.1802068E+01  0.1112592E-01  0.4724690E-01
  0.7885520E+01  0.1475280E+02  0.0000000E+00  0.4194827E-01 -0.1956574E+01  0.1578430E-01  0.3886532E-01
  0.6401530E+01  0.1545470E+02  0.0000000E+00  0.3559519E-01 -0.2220776E+01  0.2154116E-01  0.2833719E-01
  0.4855880E+01  0.1600770E+02  0.0000000E+00  0.3236767E-01 -0.2709180E+01  0.2938846E-01  0.1356408E-01
  0.3263470E+01  0.1640660E+02  0.0000000E+00  0.4264016E-01  0.2912073E+01  0.4152196E-01 -0.9701050E-02
  0.1639630E+01  0.1664750E+02  0.0000000E+00  0.6864227E-01  0.2538795E+01  0.5654425E-01 -0.3891668E-01
 -0.7312040E-06  0.1672800E+02  0.0000000E+00  0.8722171E-01  0.2420148E+01  0.6549061E-01 -0.5760735E-01
 -0.1639630E+01  0.1664750E+02  0.0000000E+00  0.9035783E-01  0.2387798E+01  0.6587961E-01 -0.6184186E-01
 -0.3263470E+01  0.1640660E+02  0.0000000E+00  0.8088684E-01  0.2396487E+01  0.5945315E-01 -0.5484527E-01
 -0.4855880E+01  0.1600770E+02  0.0000000E+00  0.7016525E-01  0.2420228E+01  0.5268743E-01 -0.4633785E-01
 -0.6401530E+01  0.1545470E+02  0.0000000E+00  0.6228754E-01  0.2445604E+01  0.4780071E-01 -0.3993532E-01
 -0.7885530E+01  0.1475280E+02  0.0000000E+00  0.5583968E-01  0.2474198E+01  0.4385853E-01 -0.3456153E-01
 -0.9293580E+01  0.1390880E+02  0.0000000E+00  0.5103633E-01  0.2498956E+01  0.4085552E-01 -0.3058648E-01
 -0.1061210E+02  0.1293090E+02  0.0000000E+00  0.4677176E-01  0.2528067E+01  0.3824168E-01 -0.2692901E-01
 -0.1182850E+02  0.1182850E+02  0.0000000E+00  0.4285072E-01  0.2561207E+01  0.3583396E-01 -0.2349705E-01
 -0.1293090E+02  0.1061210E+02  0.0000000E+00  0.3907058E-01  0.2601204E+01  0.3350336E-01 -0.2010062E-01
 -0.1390880E+02  0.9293580E+01  0.0000000E+00  0.3548258E-01  0.2653593E+01  0.3134078E-01 -0.1663638E-01
 -0.1475280E+02  0.7885520E+01  0.0000000E+00  0.3247780E-01  0.2703332E+01  0.2940837E-01 -0.1378244E-01
 -0.1545470E+02  0.6401530E+01  0.0000000E+00  0.2979144E-01  0.2750868E+01  0.2754616E-01 -0.1134634E-01
 -0.1600770E+02  0.4855880E+01  0.0000000E+00  0.2711965E-01  0.2807583E+01  0.2562089E-01 -0.8890739E-02
 -0.1640660E+02  0.3263470E+01  0.0000000E+00  0.2458040E-01  0.2877159E+01  0.2372600E-01 -0.6424394E-02
 -0.1664750E+02  0.1639630E+01  0.0000000E+00  0.2233525E-01  0.2963733E+01  0.2198291E-01 -0.3951622E-02
 -0.1672800E+02 -0.1462410E-05  0.0000000E+00  0.2040850E-01  0.3075264E+01  0.2036362E-01 -0.1352679E-02
 -0.1664750E+02 -0.1639630E+01  0.0000000E+00  0.1893589E-01 -0.3064816E+01  0.1888011E-01  0.1452413E-02
 -0.1640660E+02 -0.3263470E+01  0.0000000E+00  0.1812583E-01 -0.2890915E+01  0.1755930E-01  0.4496304E-02
 -0.1600770E+02 -0.4855890E+01  0.0000000E+00  0.1824137E-01 -0.2695640E+01  0.1645736E-01  0.7867829E-02
 -0.1545470E+02 -0.6401530E+01  0.0000000E+00  0.1905804E-01 -0.2512033E+01  0.1540435E-01  0.1122117E-01
 -0.1475280E+02 -0.7885530E+01  0.0000000E+00  0.2036479E-01 -0.2350039E+01  0.1431117E-01  0.1448845E-01
 -0.1390880E+02 -0.9293580E+01  0.0000000E+00  0.2218341E-01 -0.2212781E+01  0.1328313E-01  0.1776688E-01
 -0.1293090E+02 -0.1061210E+02  0.0000000E+00  0.2490808E-01 -0.2097521E+01  0.1252141E-01  0.2153200E-01
 -0.1182850E+02 -0.1182850E+02  0.0000000E+00  0.2947080E-01 -0.2002918E+01  0.1234232E-01  0.2676182E-01
 -0.1061210E+02 -0.1293090E+02  0.0000000E+00  0.3444016E-01 -0.1935574E+01  0.1228623E-01  0.3217411E-01
 -0.9293580E+01 -0.1390880E+02  0.0000000E+00  0.4036631E-01 -0.1888052E+01  0.1259267E-01  0.3835184E-01
 -0.7885520E+01 -0.1475280E+02  0.0000000E+00  0.4860875E-01 -0.1857462E+01  0.1374438E-01  0.4662513E-01
 -0.6401520E+01 -0.1545470E+02  0.0000000E+00  0.5918089E-01 -0.1843378E+01  0.1593263E-01  0.5699587E-01
 -0.4855880E+01 -0.1600770E+02  0.0000000E+00  0.7424836E-01 -0.1841503E+01  0.1985492E-01  0.7154439E-01
 -0.3263470E+01 -0.1640660E+02  0.0000000E+00  0.9832616E-01 -0.1851727E+01  0.2726092E-01  0.9447157E-01
 -0.1639630E+01 -0.1664750E+02  0.0000000E+00  0.1286792E+00 -0.1860453E+01  0.3675382E-01  0.1233187E+00
  0.1994790E-06 -0.1672800E+02  0.0000000E+00  0.1475915E+00 -0.1849916E+01  0.4066284E-01  0.1418795E+00
  0.1639640E+01 -0.1664750E+02  0.0000000E+00  0.1508379E+00 -0.1816975E+01  0.3675910E-01  0.1462903E+00
  0.3263470E+01 -0.1640660E+02  0.0000000E+00  0.1422473E+00 -0.1760093E+01  0.2676642E-01  0.1397063E+00
  0.4855890E+01 -0.1600770E+02  0.0000000E+00  0.1327243E+00 -0.1702763E+01  0.1746441E-01  0.1315702E+00
  0.6401530E+01 -0.1545470E+02  0.0000000E+00  0.1258850E+00 -0.1656971E+01  0.1083469E-01  0.1254179E+00
  0.7885520E+01 -0.1475280E+02  0.0000000E+00  0.1203554E+00 -0.1618043E+01  0.5684301E-02  0.1202211E+00
  0.9293580E+01 -0.1390880E+02  0.0000000E+00  0.1163797E+00 -0.1585939E+01  0.1762284E-02  0.1163664E+00
  0.1061210E+02 -0.1293090E+02  0.0000000E+00  0.1127959E+00 -0.1558970E+01 -0.1333925E-02  0.1127880E+00
  0.1182850E+02 -0.1182850E+02  0.0000000E+00  0.1094773E+00 -0.1535134E+01 -0.3903392E-02  0.1094077E+00
  0.1293090E+02 -0.1061210E+02  0.0000000E+00  0.1062186E+00 -0.1513231E+01 -0.6111179E-02  0.1060426E+00
  0.1390880E+02 -0.9293580E+01  0.0000000E+00  0.1028694E+00 -0.1495623E+01 -0.7725758E-02  0.1025789E+00
  0.1475280E+02 -0.7885520E+01  0.0000000E+00  0.1001060E+00 -0.1482373E+01 -0.8840192E-02  0.9971490E-01
  0.1545470E+02 -0.6401530E+01  0.0000000E+00  0.9775236E-01 -0.1471942E+01 -0.9647479E-02  0.9727513E-01
  0.1600770E+02 -0.4855880E+01  0.0000000E+00  0.9538116E-01 -0.1462995E+01 -0.1026227E-01  0.9482749E-01
  0.1640660E+02 -0.3263470E+01  0.0000000E+00  0.9297752E-01 -0.1456510E+01 -0.1060294E-01  0.9237098E-01
  0.1664750E+02 -0.1639620E+01  0.0000000E+00  0.9051088E-01 -0.1454146E+01 -0.1053416E-01  0.8989578E-01
  0.1672800E+02  0.0000000E+00 -0.2568960E-01  0.8778711E-01 -0.1455678E+01 -0.1008363E-01  0.8720607E-01
  0.1664750E+02  0.1639630E+01 -0.2568960E-01  0.8489250E-01 -0.1461295E+01 -0.9277255E-02  0.8438405E-01
  0.1640660E+02  0.3263470E+01 -0.2568960E-01  0.8171701E-01 -0.1471537E+01 -0.8097860E-02  0.8131478E-01
  0.1600770E+02  0.4855880E+01 -0.2568960E-01  0.7817907E-01 -0.1487409E+01 -0.6511596E-02  0.7790742E-01
  0.1545470E+02  0.6401530E+01 -0.2568960E-01  0.7467245E-01 -0.1507174E+01 -0.4747617E-02  0.7452137E-01
  0.1475280E+02  0.7885530E+01 -0.2568960E-01  0.7129433E-01 -0.1529718E+01 -0.2927826E-02  0.7123419E-01
  0.1390880E+02  0.9293580E+01 -0.2568960E-01  0.6795325E-01 -0.1556054E+01 -0.1001722E-02  0.6794587E-01
  0.1293090E+02  0.1061210E+02 -0.2568960E-01  0.6418178E-01 -0.1590231E+01  0.1247290E-02  0.6416966E-01
  0.1182850E+02  0.1182850E+02 -0.2568960E-01  0.5906824E-01 -0.1643711E+01  0.4303148E-02  0.5891129E-01
  0.1061210E+02  0.1293090E+02 -0.2568960E-01  0.5397577E-01 -0.1710257E+01  0.7503127E-02  0.5345172E-01
  0.9293580E+01  0.1390880E+02 -0.2568960E-01  0.4849462E-01 -0.1802150E+01  0.1111960E-01  0.4720257E-01
  0.7885520E+01  0.1475280E+02 -0.2568960E-01  0.4191360E-01 -0.1956591E+01  0.1577191E-01  0.3883293E-01
  0.6401530E+01  0.1545470E+02 -0.2568960E-01  0.3556613E-01 -0.2220788E+01  0.2152391E-01  0.2831379E-01
  0.4855880E+01  0.1600770E+02 -0.2568960E-01  0.3234172E-01 -0.2709293E+01  0.2936643E-01  0.1354989E-01
  0.3263470E+01  0.1640660E+02 -0.2568960E-01  0.4260508E-01  0.2912115E+01  0.4148820E-01 -0.9691341E-02
  0.1639630E+01  0.1664750E+02 -0.2568960E-01  0.6858347E-01  0.2538834E+01  0.5649732E-01 -0.3888117E-01
 -0.7312040E-06  0.1672800E+02 -0.2568960E-01  0.8714987E-01  0.2420165E+01  0.6543767E-01 -0.5755877E-01
 -0.1639630E+01  0.1664750E+02 -0.2568960E-01  0.9028575E-01  0.2387799E+01  0.6582713E-01 -0.6179243E-01
 -0.3263470E+01  0.1640660E+02 -0.2568960E-01  0.8082041E-01  0.2396500E+01  0.5940505E-01 -0.5479944E-01
 -0.4855880E+01  0.1600770E+02 -0.2568960E-01  0.7010715E-01  0.2420249E+01  0.5264481E-01 -0.4629834E-01
 -0.6401530E+01  0.1545470E+02 -0.2568960E-01  0.6223349E-01  0.2445634E+01  0.4776042E-01 -0.3989924E-01
 -0.7885530E+01  0.1475280E+02 -0.2568960E-01  0.5579518E-01  0.2474198E+01  0.4382359E-01 -0.3453397E-01
 -0.9293580E+01  0.1390880E+02 -0.2568960E-01  0.5099311E-01  0.2498981E+01  0.4082171E-01 -0.3055955E-01
 -0.1061210E+02  0.1293090E+02 -0.2568960E-01  0.4673081E-01  0.2528097E+01  0.3820901E-01 -0.2690428E-01
 -0.1182850E+02  0.1182850E+02 -0.2568960E-01  0.4281233E-01  0.2561245E+01  0.3580276E-01 -0.2347464E-01
 -0.1293090E+02  0.1061210E+02 -0.2568960E-01  0.3903641E-01  0.2601232E+01  0.3347463E-01 -0.2008210E-01
 -0.1390880E+02  0.9293580E+01 -0.2568960E-01  0.3545331E-01  0.2653560E+01  0.3131439E-01 -0.1662366E-01
 -0.1475280E+02  0.7885520E+01 -0.2568960E-01  0.3245122E-01  0.2703270E+01  0.2938344E-01 -0.1377298E-01
 -0.1545470E+02  0.6401530E+01 -0.2568960E-01  0.2976654E-01  0.2750830E+01  0.2752270E-01 -0.1133789E-01
 -0.1600770E+02  0.4855880E+01 -0.2568960E-01  0.2709720E-01  0.2807562E+01  0.2559950E-01 -0.8883904E-02
 -0.1640660E+02  0.3263470E+01 -0.2568960E-01  0.2456050E-01  0.2877152E+01  0.2370675E-01 -0.6419370E-02
 -0.1664750E+02  0.1639630E+01 -0.2568960E-01  0.2231720E-01  0.2963743E+01  0.2196518E-01 -0.3948209E-02
 -0.1672800E+02 -0.1462410E-05 -0.2568960E-01  0.2039238E-01  0.3075278E+01  0.2034756E-01 -0.1351321E-02
 -0.1664750E+02 -0.1639630E+01 -0.2568960E-01  0.1892074E-01 -0.3064852E+01  0.1886505E-01  0.1450559E-02
 -0.1640660E+02 -0.3263470E+01 -0.2568960E-01  0.1811066E-01 -0.2891023E+01  0.1754509E-01  0.4490641E-02
 -0.1600770E+02 -0.4855890E+01 -0.2568960E-01  0.1822396E-01 -0.2695842E+01  0.1644324E-01  0.7856998E-02
 -0.1545470E+02 -0.6401530E+01 -0.2568960E-01  0.1903834E-01 -0.2512233E+01  0.1539068E-01  0.1120648E-01
 -0.1475280E+02 -0.7885530E+01 -0.2568960E-01  0.2034466E-01 -0.2350178E+01  0.1429903E-01  0.1447214E-01
 -0.1390880E+02 -0.9293580E+01 -0.2568960E-01  0.2216452E-01 -0.2212850E+01  0.1327303E-01  0.1775084E-01
 -0.1293090E+02 -0.1061210E+02 -0.2568960E-01  0.2488893E-01 -0.2097566E+01  0.1251274E-01  0.2151488E-01
 -0.1182850E+02 -0.1182850E+02 -0.2568960E-01  0.2944193E-01 -0.2002996E+01  0.1233232E-01  0.2673465E-01
 -0.1061210E+02 -0.1293090E+02 -0.2568960E-01  0.3440752E-01 -0.1935647E+01  0.1227694E-01  0.3214271E-01
 -0.9293580E+01 -0.1390880E+02 -0.2568960E-01  0.4033207E-01 -0.1888124E+01  0.1258475E-01  0.3831840E-01
 -0.7885520E+01 -0.1475280E+02 -0.2568960E-01  0.4856241E-01 -0.1857533E+01  0.1373461E-01  0.4657970E-01
 -0.6401520E+01 -0.1545470E+02 -0.2568960E-01  0.5912553E-01 -0.1843444E+01  0.1592144E-01  0.5694152E-01
 -0.4855880E+01 -0.1600770E+02 -0.2568960E-01  0.7418387E-01 -0.1841562E+01  0.1984191E-01  0.7148109E-01
 -0.3263470E+01 -0.1640660E+02 -0.2568960E-01  0.9823725E-01 -0.1851776E+01  0.2724090E-01  0.9438480E-01
 -0.1639630E+01 -0.1664750E+02 -0.2568960E-01  0.1285633E+00 -0.1860495E+01  0.3672584E-01  0.1232061E+00
  0.1994790E-06 -0.1672800E+02 -0.2568960E-01  0.1474627E+00 -0.1849952E+01  0.4063245E-01  0.1417542E+00
  0.1639640E+01 -0.1664750E+02 -0.2568960E-01  0.1507090E+00 -0.1817008E+01  0.3673258E-01  0.1461640E+00
  0.3263470E+01 -0.1640660E+02 -0.2568960E-01  0.1421227E+00 -0.1760125E+01  0.2674750E-01  0.1395831E+00
  0.4855890E+01 -0.1600770E+02 -0.2568960E-01  0.1326068E+00 -0.1702801E+01  0.1745391E-01  0.1314531E+00
  0.6401530E+01 -0.1545470E+02 -0.2568960E-01  0.1257711E+00 -0.1656996E+01  0.1082796E-01  0.1253041E+00
  0.7885520E+01 -0.1475280E+02 -0.2568960E-01  0.1202499E+00 -0.1618078E+01  0.5683534E-02  0.1201155E+00
  0.9293580E+01 -0.1390880E+02 -0.2568960E-01  0.1162748E+00 -0.1585971E+01  0.1764412E-02  0.1162614E+00
  0.1061210E+02 -0.1293090E+02 -0.2568960E-01  0.1126933E+00 -0.1558991E+01 -0.1330388E-02  0.1126854E+00
  0.1182850E+02 -0.1182850E+02 -0.2568960E-01  0.1093768E+00 -0.1535147E+01 -0.3898389E-02  0.1093073E+00
  0.1293090E+02 -0.1061210E+02 -0.2568960E-01  0.1061215E+00 -0.1513256E+01 -0.6102927E-02  0.1059459E+00
  0.1390880E+02 -0.9293580E+01 -0.2568960E-01  0.1027783E+00 -0.1495647E+01 -0.7716494E-02  0.1024882E+00
  0.1475280E+02 -0.7885520E+01 -0.2568960E-01  0.1000180E+00 -0.1482392E+01 -0.8830545E-02  0.9962739E-01
  0.1545470E+02 -0.6401530E+01 -0.2568960E-01  0.9766535E-01 -0.1471955E+01 -0.9637654E-02  0.9718866E-01
  0.1600770E+02 -0.4855880E+01 -0.2568960E-01  0.9529565E-01 -0.1463014E+01 -0.1025129E-01  0.9474266E-01
  0.1640660E+02 -0.3263470E+01 -0.2568960E-01  0.9289354E-01 -0.1456534E+01 -0.1059113E-01  0.9228780E-01
  0.1664750E+02 -0.1639620E+01 -0.2568960E-01  0.9042856E-01 -0.1454178E+01 -0.1052178E-01  0.8981434E-01
  0.1672800E+02  0.0000000E+00 -0.1027320E+00  0.8755121E-01 -0.1455749E+01 -0.1005034E-01  0.8697244E-01
  0.1664750E+02  0.1639630E+01 -0.1027320E+00  0.8466580E-01 -0.1461355E+01 -0.9247475E-02  0.8415926E-01
  0.1640660E+02  0.3263470E+01 -0.1027320E+00  0.8150245E-01 -0.1471579E+01 -0.8073213E-02  0.8110161E-01
  0.1600770E+02  0.4855880E+01 -0.1027320E+00  0.7798078E-01 -0.1487411E+01 -0.6494877E-02  0.7770984E-01
  0.1545470E+02  0.6401530E+01 -0.1027320E+00  0.7448570E-01 -0.1507146E+01 -0.4737848E-02  0.7433486E-01
  0.1475280E+02  0.7885530E+01 -0.1027320E+00  0.7111230E-01 -0.1529709E+01 -0.2921006E-02  0.7105229E-01
  0.1390880E+02  0.9293580E+01 -0.1027320E+00  0.6776982E-01 -0.1556114E+01 -0.9949787E-03  0.6776252E-01
  0.1293090E+02  0.1061210E+02 -0.1027320E+00  0.6400099E-01 -0.1590356E+01  0.1251739E-02  0.6398875E-01
  0.1182850E+02  0.1182850E+02 -0.1027320E+00  0.5891707E-01 -0.1643710E+01  0.4292039E-02  0.5876053E-01
  0.1061210E+02  0.1293090E+02 -0.1027320E+00  0.5383594E-01 -0.1710302E+01  0.7486065E-02  0.5331292E-01
  0.9293580E+01  0.1390880E+02 -0.1027320E+00  0.4836037E-01 -0.1802378E+01  0.1109954E-01  0.4706937E-01
  0.7885520E+01  0.1475280E+02 -0.1027320E+00  0.4180889E-01 -0.1956644E+01  0.1573454E-01  0.3873509E-01
  0.6401530E+01  0.1545470E+02 -0.1027320E+00  0.3547806E-01 -0.2220823E+01  0.2147159E-01  0.2824295E-01
  0.4855880E+01  0.1600770E+02 -0.1027320E+00  0.3226341E-01 -0.2709671E+01  0.2930044E-01  0.1350600E-01
  0.3263470E+01  0.1640660E+02 -0.1027320E+00  0.4249537E-01  0.2912309E+01  0.4138324E-01 -0.9658353E-02
  0.1639630E+01  0.1664750E+02 -0.1027320E+00  0.6841210E-01  0.2538906E+01  0.5635896E-01 -0.3877992E-01
 -0.7312040E-06  0.1672800E+02 -0.1027320E+00  0.8693872E-01  0.2420180E+01  0.6527996E-01 -0.5741836E-01
 -0.1639630E+01  0.1664750E+02 -0.1027320E+00  0.9007347E-01  0.2387779E+01  0.6567115E-01 -0.6164845E-01
 -0.3263470E+01  0.1640660E+02 -0.1027320E+00  0.8062076E-01  0.2396516E+01  0.5925915E-01 -0.5466315E-01
 -0.4855880E+01  0.1600770E+02 -0.1027320E+00  0.6993265E-01  0.2420289E+01  0.5251560E-01 -0.4618103E-01
 -0.6401530E+01  0.1545470E+02 -0.1027320E+00  0.6207254E-01  0.2445690E+01  0.4763914E-01 -0.3979338E-01
 -0.7885530E+01  0.1475280E+02 -0.1027320E+00  0.5566220E-01  0.2474149E+01  0.4371747E-01 -0.3445379E-01
 -0.9293580E+01  0.1390880E+02 -0.1027320E+00  0.5086496E-01  0.2499002E+01  0.4071973E-01 -0.3048194E-01
 -0.1061210E+02  0.1293090E+02 -0.1027320E+00  0.4661033E-01  0.2528113E+01  0.3811092E-01 -0.2683432E-01
 -0.1182850E+02  0.1182850E+02 -0.1027320E+00  0.4269959E-01  0.2561261E+01  0.3570884E-01 -0.2341225E-01
 -0.1293090E+02  0.1061210E+02 -0.1027320E+00  0.3893569E-01  0.2601221E+01  0.3338804E-01 -0.2003064E-01
 -0.1390880E+02  0.9293580E+01 -0.1027320E+00  0.3536799E-01  0.2653344E+01  0.3123544E-01 -0.1659042E-01
 -0.1475280E+02  0.7885520E+01 -0.1027320E+00  0.3237373E-01  0.2702960E+01  0.2930900E-01 -0.1374920E-01
 -0.1545470E+02  0.6401530E+01 -0.1027320E+00  0.2969285E-01  0.2750560E+01  0.2745152E-01 -0.1131722E-01
 -0.1600770E+02  0.4855880E+01 -0.1027320E+00  0.2702999E-01  0.2807329E+01  0.2553393E-01 -0.8867830E-02
 -0.1640660E+02  0.3263470E+01 -0.1027320E+00  0.2450066E-01  0.2876957E+01  0.2364774E-01 -0.6408329E-02
 -0.1664750E+02  0.1639630E+01 -0.1027320E+00  0.2226306E-01  0.2963596E+01  0.2191132E-01 -0.3941849E-02
 -0.1672800E+02 -0.1462410E-05 -0.1027320E+00  0.2034314E-01  0.3075127E+01  0.2029822E-01 -0.1351120E-02
 -0.1664750E+02 -0.1639630E+01 -0.1027320E+00  0.1887410E-01 -0.3065118E+01  0.1881894E-01  0.1441984E-02
 -0.1640660E+02 -0.3263470E+01 -0.1027320E+00  0.1806302E-01 -0.2891499E+01  0.1750107E-01  0.4470501E-02
 -0.1600770E+02 -0.4855890E+01 -0.1027320E+00  0.1816901E-01 -0.2696556E+01  0.1639926E-01  0.7821593E-02
 -0.1545470E+02 -0.6401530E+01 -0.1027320E+00  0.1897665E-01 -0.2512899E+01  0.1534825E-01  0.1115996E-01
 -0.1475280E+02 -0.7885530E+01 -0.1027320E+00  0.2028223E-01 -0.2350636E+01  0.1426177E-01  0.1442119E-01
 -0.1390880E+02 -0.9293580E+01 -0.1027320E+00  0.2210626E-01 -0.2213068E+01  0.1324200E-01  0.1770130E-01
 -0.1293090E+02 -0.1061210E+02 -0.1027320E+00  0.2483048E-01 -0.2097681E+01  0.1248583E-01  0.2146292E-01
 -0.1182850E+02 -0.1182850E+02 -0.1027320E+00  0.2935437E-01 -0.2003190E+01  0.1230082E-01  0.2665274E-01
 -0.1061210E+02 -0.1293090E+02 -0.1027320E+00  0.3430947E-01 -0.1935838E+01  0.1224807E-01  0.3204878E-01
 -0.9293580E+01 -0.1390880E+02 -0.1027320E+00  0.4022985E-01 -0.1888328E+01  0.1256068E-01  0.3821871E-01
 -0.7885520E+01 -0.1475280E+02 -0.1027320E+00  0.4842499E-01 -0.1857749E+01  0.1370574E-01  0.4644494E-01
 -0.6401520E+01 -0.1545470E+02 -0.1027320E+00  0.5896050E-01 -0.1843597E+01  0.1588571E-01  0.5678014E-01
 -0.4855880E+01 -0.1600770E+02 -0.1027320E+00  0.7399222E-01 -0.1841727E+01  0.1980241E-01  0.7129315E-01
 -0.3263470E+01 -0.1640660E+02 -0.1027320E+00  0.9796602E-01 -0.1851904E+01  0.2717770E-01  0.9412073E-01
 -0.1639630E+01 -0.1664750E+02 -0.1027320E+00  0.1282224E+00 -0.1860620E+01  0.3664380E-01  0.1228748E+00
  0.1994790E-06 -0.1672800E+02 -0.1027320E+00  0.1470817E+00 -0.1850058E+01  0.4054246E-01  0.1413837E+00
  0.1639640E+01 -0.1664750E+02 -0.1027320E+00  0.1503267E+00 -0.1817106E+01  0.3665372E-01  0.1457897E+00
  0.3263470E+01 -0.1640660E+02 -0.1027320E+00  0.1417507E+00 -0.1760210E+01  0.2668930E-01  0.1392155E+00
  0.4855890E+01 -0.1600770E+02 -0.1027320E+00  0.1322561E+00 -0.1702902E+01  0.1742101E-01  0.1311037E+00
  0.6401530E+01 -0.1545470E+02 -0.1027320E+00  0.1254321E+00 -0.1657063E+01  0.1080714E-01  0.1249657E+00
  0.7885520E+01 -0.1475280E+02 -0.1027320E+00  0.1199369E+00 -0.1618168E+01  0.5679505E-02  0.1198023E+00
  0.9293580E+01 -0.1390880E+02 -0.1027320E+00  0.1159640E+00 -0.1586055E+01  0.1769378E-02  0.1159505E+00
  0.1061210E+02 -0.1293090E+02 -0.1027320E+00  0.1123898E+00 -0.1559040E+01 -0.1321216E-02  0.1123821E+00
  0.1182850E+02 -0.1182850E+02 -0.1027320E+00  0.1090806E+00 -0.1535180E+01 -0.3884276E-02  0.1090114E+00
  0.1293090E+02 -0.1061210E+02 -0.1027320E+00  0.1058359E+00 -0.1513310E+01 -0.6080754E-02  0.1056611E+00
  0.1390880E+02 -0.9293580E+01 -0.1027320E+00  0.1025104E+00 -0.1495709E+01 -0.7690019E-02  0.1022216E+00
