 VARIABLES="X" "Y" "Z" "abs(eta) (m)" "angle(phi) (rad)" "PRE1" "PRE2"
ZONE N=   3200 ,E =    3136 ,F=FEPOINT,ET=QUADRILATERAL
  0.1672800E+02  0.0000000E+00  0.0000000E+00  0.8340725E+00 -0.5822893E+00 -0.6966223E+00  0.4586876E+00
  0.1664750E+02  0.1639630E+01  0.0000000E+00  0.8331710E+00 -0.5831258E+00 -0.6954858E+00  0.4587739E+00
  0.1640660E+02  0.3263470E+01  0.0000000E+00  0.8287070E+00 -0.5876373E+00 -0.6896938E+00  0.4594321E+00
  0.1600770E+02  0.4855880E+01  0.0000000E+00  0.8206852E+00 -0.5956393E+00 -0.6793550E+00  0.4604357E+00
  0.1545470E+02  0.6401530E+01  0.0000000E+00  0.8090534E+00 -0.6069452E+00 -0.6645518E+00  0.4614525E+00
  0.1475280E+02  0.7885530E+01  0.0000000E+00  0.7958638E+00 -0.6234091E+00 -0.6461562E+00  0.4646303E+00
  0.1390880E+02  0.9293580E+01  0.0000000E+00  0.7807390E+00 -0.6449397E+00 -0.6239167E+00  0.4693414E+00
  0.1293090E+02  0.1061210E+02  0.0000000E+00  0.7638021E+00 -0.6713294E+00 -0.5980535E+00  0.4751059E+00
  0.1182850E+02  0.1182850E+02  0.0000000E+00  0.7425726E+00 -0.7011412E+00 -0.5674045E+00  0.4790263E+00
  0.1061210E+02  0.1293090E+02  0.0000000E+00  0.7138321E+00 -0.7331685E+00 -0.5304185E+00  0.4777160E+00
  0.9293580E+01  0.1390880E+02  0.0000000E+00  0.6814150E+00 -0.7701194E+00 -0.4891385E+00  0.4744154E+00
  0.7885520E+01  0.1475280E+02  0.0000000E+00  0.6364809E+00 -0.8086926E+00 -0.4394549E+00  0.4604208E+00
  0.6401530E+01  0.1545470E+02  0.0000000E+00  0.5828530E+00 -0.8521987E+00 -0.3837095E+00  0.4387308E+00
  0.4855880E+01  0.1600770E+02  0.0000000E+00  0.5085058E+00 -0.8988690E+00 -0.3165426E+00  0.3979685E+00
  0.3263470E+01  0.1640660E+02  0.0000000E+00  0.3915111E+00 -0.9493636E+00 -0.2279380E+00  0.3183162E+00
  0.1639630E+01  0.1664750E+02  0.0000000E+00  0.2263953E+00 -0.1036844E+01 -0.1152214E+00  0.1948817E+00
 -0.7312040E-06  0.1672800E+02  0.0000000E+00  0.7012192E-01 -0.1627641E+01  0.3983912E-02  0.7000866E-01
 -0.1639630E+01  0.1664750E+02  0.0000000E+00  0.1355593E+00  0.2771608E+01  0.1263864E+00 -0.4901846E-01
 -0.3263470E+01  0.1640660E+02  0.0000000E+00  0.2922382E+00  0.2572877E+01  0.2462379E+00 -0.1573851E+00
 -0.4855880E+01  0.1600770E+02  0.0000000E+00  0.4048250E+00  0.2553581E+01  0.3368327E+00 -0.2245596E+00
 -0.6401530E+01  0.1545470E+02  0.0000000E+00  0.4771375E+00  0.2572938E+01  0.4020485E+00 -0.2569382E+00
 -0.7885530E+01  0.1475280E+02  0.0000000E+00  0.5294747E+00  0.2600140E+01  0.4537390E+00 -0.2728815E+00
 -0.9293580E+01  0.1390880E+02  0.0000000E+00  0.5730736E+00  0.2626146E+01  0.4986157E+00 -0.2824816E+00
 -0.1061210E+02  0.1293090E+02  0.0000000E+00  0.6047233E+00  0.2655639E+01  0.5347145E+00 -0.2824372E+00
 -0.1182850E+02  0.1182850E+02  0.0000000E+00  0.6327979E+00  0.2681923E+01  0.5671129E+00 -0.2807422E+00
 -0.1293090E+02  0.1061210E+02  0.0000000E+00  0.6537049E+00  0.2708621E+01  0.5933830E+00 -0.2742750E+00
 -0.1390880E+02  0.9293580E+01  0.0000000E+00  0.6697980E+00  0.2732019E+01  0.6143994E+00 -0.2667258E+00
 -0.1475280E+02  0.7885520E+01  0.0000000E+00  0.6837617E+00  0.2750760E+01  0.6322007E+00 -0.2604846E+00
 -0.1545470E+02  0.6401530E+01  0.0000000E+00  0.6956235E+00  0.2764832E+01  0.6468335E+00 -0.2559268E+00
 -0.1600770E+02  0.4855880E+01  0.0000000E+00  0.7057282E+00  0.2773997E+01  0.6585814E+00 -0.2536195E+00
 -0.1640660E+02  0.3263470E+01  0.0000000E+00  0.7121552E+00  0.2780481E+01  0.6662245E+00 -0.2516146E+00
 -0.1664750E+02  0.1639630E+01  0.0000000E+00  0.7149447E+00  0.2784228E+01  0.6697759E+00 -0.2500921E+00
 -0.1672800E+02 -0.1462410E-05  0.0000000E+00  0.7140777E+00  0.2785121E+01  0.6691863E+00 -0.2491918E+00
 -0.1664750E+02 -0.1639630E+01  0.0000000E+00  0.7100640E+00  0.2781972E+01  0.6646414E+00 -0.2498853E+00
 -0.1640660E+02 -0.3263470E+01  0.0000000E+00  0.7024010E+00  0.2775905E+01  0.6559569E+00 -0.2511730E+00
 -0.1600770E+02 -0.4855890E+01  0.0000000E+00  0.6911857E+00  0.2767111E+01  0.6432848E+00 -0.2528287E+00
 -0.1545470E+02 -0.6401530E+01  0.0000000E+00  0.6764492E+00  0.2755784E+01  0.6267263E+00 -0.2545539E+00
 -0.1475280E+02 -0.7885530E+01  0.0000000E+00  0.6599545E+00  0.2739146E+01  0.6072277E+00 -0.2584850E+00
 -0.1390880E+02 -0.9293580E+01  0.0000000E+00  0.6414121E+00  0.2717371E+01  0.5845571E+00 -0.2640124E+00
 -0.1293090E+02 -0.1061210E+02  0.0000000E+00  0.6207018E+00  0.2690505E+01  0.5586150E+00 -0.2705919E+00
 -0.1182850E+02 -0.1182850E+02  0.0000000E+00  0.5952560E+00  0.2660736E+01  0.5277532E+00 -0.2753292E+00
 -0.1061210E+02 -0.1293090E+02  0.0000000E+00  0.5631599E+00  0.2631609E+01  0.4914991E+00 -0.2749140E+00
 -0.9293580E+01 -0.1390880E+02  0.0000000E+00  0.5275553E+00  0.2598589E+01  0.4516720E+00 -0.2725932E+00
 -0.7885520E+01 -0.1475280E+02  0.0000000E+00  0.4805876E+00  0.2570543E+01  0.4043346E+00 -0.2597651E+00
 -0.6401520E+01 -0.1545470E+02  0.0000000E+00  0.4247403E+00  0.2542584E+01  0.3507909E+00 -0.2394788E+00
 -0.4855880E+01 -0.1600770E+02  0.0000000E+00  0.3493398E+00  0.2530014E+01  0.2860193E+00 -0.2005773E+00
 -0.3263470E+01 -0.1640660E+02  0.0000000E+00  0.2359993E+00  0.2591044E+01  0.2011274E+00 -0.1234642E+00
 -0.1639630E+01 -0.1664750E+02  0.0000000E+00  0.9435410E-01  0.3112834E+01  0.9431509E-01 -0.2713101E-02
  0.1994790E-06 -0.1672800E+02  0.0000000E+00  0.1222494E+00 -0.1469629E+01 -0.1234660E-01  0.1216244E+00
  0.1639640E+01 -0.1664750E+02  0.0000000E+00  0.2686802E+00 -0.1127017E+01 -0.1153595E+00  0.2426545E+00
  0.3263470E+01 -0.1640660E+02  0.0000000E+00  0.4144689E+00 -0.1028790E+01 -0.2138060E+00  0.3550654E+00
  0.4855890E+01 -0.1600770E+02  0.0000000E+00  0.5182336E+00 -0.9644413E+00 -0.2953289E+00  0.4258484E+00
  0.6401530E+01 -0.1545470E+02  0.0000000E+00  0.5852056E+00 -0.9068594E+00 -0.3606167E+00  0.4608917E+00
  0.7885520E+01 -0.1475280E+02  0.0000000E+00  0.6347218E+00 -0.8547100E+00 -0.4166550E+00  0.4788218E+00
  0.9293580E+01 -0.1390880E+02  0.0000000E+00  0.6769227E+00 -0.8093504E+00 -0.4670556E+00  0.4899831E+00
  0.1061210E+02 -0.1293090E+02  0.0000000E+00  0.7081472E+00 -0.7663811E+00 -0.5101671E+00  0.4911232E+00
  0.1182850E+02 -0.1182850E+02  0.0000000E+00  0.7360557E+00 -0.7290756E+00 -0.5489433E+00  0.4903460E+00
  0.1293090E+02 -0.1061210E+02  0.0000000E+00  0.7572817E+00 -0.6943316E+00 -0.5819570E+00  0.4845633E+00
  0.1390880E+02 -0.9293580E+01  0.0000000E+00  0.7748949E+00 -0.6637782E+00 -0.6103616E+00  0.4774106E+00
  0.1475280E+02 -0.7885520E+01  0.0000000E+00  0.7908106E+00 -0.6385568E+00 -0.6349868E+00  0.4713525E+00
  0.1545470E+02 -0.6401530E+01  0.0000000E+00  0.8048310E+00 -0.6187183E+00 -0.6556334E+00  0.4667952E+00
  0.1600770E+02 -0.4855880E+01  0.0000000E+00  0.8172484E+00 -0.6042691E+00 -0.6725281E+00  0.4643285E+00
  0.1640660E+02 -0.3263470E+01  0.0000000E+00  0.8263248E+00 -0.5933506E+00 -0.6850826E+00  0.4620330E+00
  0.1664750E+02 -0.1639620E+01  0.0000000E+00  0.8319714E+00 -0.5859923E+00 -0.6931684E+00  0.4601021E+00
  0.1672800E+02  0.0000000E+00 -0.2568960E-01  0.8327417E+00 -0.5823057E+00 -0.6955032E+00  0.4579672E+00
  0.1664750E+02  0.1639630E+01 -0.2568960E-01  0.8318431E+00 -0.5831421E+00 -0.6943699E+00  0.4580539E+00
  0.1640660E+02  0.3263470E+01 -0.2568960E-01  0.8273893E+00 -0.5876570E+00 -0.6885881E+00  0.4587151E+00
  0.1600770E+02  0.4855880E+01 -0.2568960E-01  0.8193905E+00 -0.5956714E+00 -0.6782686E+00  0.4597310E+00
  0.1545470E+02  0.6401530E+01 -0.2568960E-01  0.8077925E+00 -0.6069816E+00 -0.6634993E+00  0.4607574E+00
  0.1475280E+02  0.7885530E+01 -0.2568960E-01  0.7946265E+00 -0.6234451E+00 -0.6451349E+00  0.4639312E+00
  0.1390880E+02  0.9293580E+01 -0.2568960E-01  0.7795206E+00 -0.6449679E+00 -0.6229298E+00  0.4686265E+00
  0.1293090E+02  0.1061210E+02 -0.2568960E-01  0.7625867E+00 -0.6713435E+00 -0.5970952E+00  0.4743583E+00
  0.1182850E+02  0.1182850E+02 -0.2568960E-01  0.7413834E+00 -0.7011555E+00 -0.5664891E+00  0.4782672E+00
  0.1061210E+02  0.1293090E+02 -0.2568960E-01  0.7126997E+00 -0.7331914E+00 -0.5295661E+00  0.4769703E+00
  0.9293580E+01  0.1390880E+02 -0.2568960E-01  0.6803167E+00 -0.7701293E+00 -0.4883454E+00  0.4736556E+00
  0.7885520E+01  0.1475280E+02 -0.2568960E-01  0.6354935E+00 -0.8087134E+00 -0.4387636E+00  0.4597156E+00
  0.6401530E+01  0.1545470E+02 -0.2568960E-01  0.5819277E+00 -0.8522149E+00 -0.3830932E+00  0.4380405E+00
  0.4855880E+01  0.1600770E+02 -0.2568960E-01  0.5077085E+00 -0.8988884E+00 -0.3160385E+00  0.3973507E+00
  0.3263470E+01  0.1640660E+02 -0.2568960E-01  0.3909251E+00 -0.9493775E+00 -0.2275924E+00  0.3178429E+00
  0.1639630E+01  0.1664750E+02 -0.2568960E-01  0.2260590E+00 -0.1036867E+01 -0.1150459E+00  0.1945948E+00
 -0.7312040E-06  0.1672800E+02 -0.2568960E-01  0.7000281E-01 -0.1627705E+01  0.3981622E-02  0.6988949E-01
 -0.1639630E+01  0.1664750E+02 -0.2568960E-01  0.1353748E+00  0.2771444E+01  0.1262064E+00 -0.4897234E-01
 -0.3263470E+01  0.1640660E+02 -0.2568960E-01  0.2918198E+00  0.2572794E+01  0.2458724E+00 -0.1571802E+00
 -0.4855880E+01  0.1600770E+02 -0.2568960E-01  0.4042042E+00  0.2553554E+01  0.3363101E+00 -0.2242244E+00
 -0.6401530E+01  0.1545470E+02 -0.2568960E-01  0.4763927E+00  0.2572917E+01  0.4014157E+00 -0.2565452E+00
 -0.7885530E+01  0.1475280E+02 -0.2568960E-01  0.5286658E+00  0.2600103E+01  0.4530358E+00 -0.2724814E+00
 -0.9293580E+01  0.1390880E+02 -0.2568960E-01  0.5721588E+00  0.2626144E+01  0.4978191E+00 -0.2820315E+00
 -0.1061210E+02  0.1293090E+02 -0.2568960E-01  0.6037783E+00  0.2655618E+01  0.5338730E+00 -0.2820068E+00
 -0.1182850E+02  0.1182850E+02 -0.2568960E-01  0.6317918E+00  0.2681911E+01  0.5662081E+00 -0.2803022E+00
 -0.1293090E+02  0.1061210E+02 -0.2568960E-01  0.6526709E+00  0.2708597E+01  0.5924379E+00 -0.2738551E+00
 -0.1390880E+02  0.9293580E+01 -0.2568960E-01  0.6687605E+00  0.2731977E+01  0.6134368E+00 -0.2663382E+00
 -0.1475280E+02  0.7885520E+01 -0.2568960E-01  0.6827075E+00  0.2750712E+01  0.6312136E+00 -0.2601132E+00
 -0.1545470E+02  0.6401530E+01 -0.2568960E-01  0.6945456E+00  0.2764783E+01  0.6458185E+00 -0.2555622E+00
 -0.1600770E+02  0.4855880E+01 -0.2568960E-01  0.7046242E+00  0.2773960E+01  0.6575419E+00 -0.2532470E+00
 -0.1640660E+02  0.3263470E+01 -0.2568960E-01  0.7110310E+00  0.2780457E+01  0.6651667E+00 -0.2512338E+00
 -0.1664750E+02  0.1639630E+01 -0.2568960E-01  0.7138086E+00  0.2784205E+01  0.6687058E+00 -0.2497105E+00
 -0.1672800E+02 -0.1462410E-05 -0.2568960E-01  0.7129450E+00  0.2785101E+01  0.6681199E+00 -0.2488098E+00
 -0.1664750E+02 -0.1639630E+01 -0.2568960E-01  0.7089360E+00  0.2781943E+01  0.6635784E+00 -0.2495075E+00
 -0.1640660E+02 -0.3263470E+01 -0.2568960E-01  0.7012920E+00  0.2775873E+01  0.6549133E+00 -0.2507969E+00
 -0.1600770E+02 -0.4855890E+01 -0.2568960E-01  0.6901026E+00  0.2767071E+01  0.6422666E+00 -0.2524583E+00
 -0.1545470E+02 -0.6401530E+01 -0.2568960E-01  0.6753994E+00  0.2755726E+01  0.6257391E+00 -0.2541945E+00
 -0.1475280E+02 -0.7885530E+01 -0.2568960E-01  0.6589352E+00  0.2739088E+01  0.6062750E+00 -0.2581207E+00
 -0.1390880E+02 -0.9293580E+01 -0.2568960E-01  0.6404145E+00  0.2717324E+01  0.5836353E+00 -0.2636296E+00
 -0.1293090E+02 -0.1061210E+02 -0.2568960E-01  0.6197172E+00  0.2690482E+01  0.5577227E+00 -0.2701755E+00
 -0.1182850E+02 -0.1182850E+02 -0.2568960E-01  0.5943124E+00  0.2660722E+01  0.5269128E+00 -0.2749002E+00
 -0.1061210E+02 -0.1293090E+02 -0.2568960E-01  0.5622784E+00  0.2631578E+01  0.4907216E+00 -0.2744985E+00
 -0.9293580E+01 -0.1390880E+02 -0.2568960E-01  0.5267131E+00  0.2598581E+01  0.4509487E+00 -0.2721617E+00
 -0.7885520E+01 -0.1475280E+02 -0.2568960E-01  0.4798526E+00  0.2570503E+01  0.4037059E+00 -0.2593840E+00
 -0.6401520E+01 -0.1545470E+02 -0.2568960E-01  0.4240774E+00  0.2542561E+01  0.3502379E+00 -0.2391131E+00
 -0.4855880E+01 -0.1600770E+02 -0.2568960E-01  0.3488066E+00  0.2529973E+01  0.2855746E+00 -0.2002828E+00
 -0.3263470E+01 -0.1640660E+02 -0.2568960E-01  0.2356609E+00  0.2590938E+01  0.2008260E+00 -0.1233084E+00
 -0.1639630E+01 -0.1664750E+02 -0.2568960E-01  0.9422068E-01  0.3112533E+01  0.9418090E-01 -0.2737642E-02
  0.1994790E-06 -0.1672800E+02 -0.2568960E-01  0.1220517E+00 -0.1469687E+01 -0.1231953E-01  0.1214284E+00
  0.1639640E+01 -0.1664750E+02 -0.2568960E-01  0.2682770E+00 -0.1127042E+01 -0.1151803E+00  0.2422933E+00
  0.3263470E+01 -0.1640660E+02 -0.2568960E-01  0.4138461E+00 -0.1028819E+01 -0.2134745E+00  0.3545381E+00
  0.4855890E+01 -0.1600770E+02 -0.2568960E-01  0.5174211E+00 -0.9644610E+00 -0.2948575E+00  0.4251866E+00
  0.6401530E+01 -0.1545470E+02 -0.2568960E-01  0.5842806E+00 -0.9068734E+00 -0.3600402E+00  0.4601682E+00
  0.7885520E+01 -0.1475280E+02 -0.2568960E-01  0.6337302E+00 -0.8547407E+00 -0.4159894E+00  0.4780865E+00
  0.9293580E+01 -0.1390880E+02 -0.2568960E-01  0.6758337E+00 -0.8093591E+00 -0.4662999E+00  0.4891989E+00
  0.1061210E+02 -0.1293090E+02 -0.2568960E-01  0.7070234E+00 -0.7664018E+00 -0.5093474E+00  0.4903544E+00
  0.1182850E+02 -0.1182850E+02 -0.2568960E-01  0.7348765E+00 -0.7290883E+00 -0.5480577E+00  0.4895673E+00
  0.1293090E+02 -0.1061210E+02 -0.2568960E-01  0.7560754E+00 -0.6943487E+00 -0.5810218E+00  0.4838014E+00
  0.1390880E+02 -0.9293580E+01 -0.2568960E-01  0.7736826E+00 -0.6638070E+00 -0.6093929E+00  0.4766812E+00
  0.1475280E+02 -0.7885520E+01 -0.2568960E-01  0.7895792E+00 -0.6385967E+00 -0.6339792E+00  0.4706438E+00
  0.1545470E+02 -0.6401530E+01 -0.2568960E-01  0.8035740E+00 -0.6187567E+00 -0.6545915E+00  0.4660912E+00
  0.1600770E+02 -0.4855880E+01 -0.2568960E-01  0.8159608E+00 -0.6042946E+00 -0.6714566E+00  0.4636140E+00
  0.1640660E+02 -0.3263470E+01 -0.2568960E-01  0.8250105E+00 -0.5933720E+00 -0.6839831E+00  0.4613127E+00
  0.1664750E+02 -0.1639620E+01 -0.2568960E-01  0.8306444E+00 -0.5860099E+00 -0.6920547E+00  0.4593804E+00
  0.1672800E+02  0.0000000E+00 -0.1027320E+00  0.8288058E+00 -0.5823828E+00 -0.6921809E+00  0.4558561E+00
  0.1664750E+02  0.1639630E+01 -0.1027320E+00  0.8279141E+00 -0.5832208E+00 -0.6910543E+00  0.4559449E+00
  0.1640660E+02  0.3263470E+01 -0.1027320E+00  0.8235031E+00 -0.5877445E+00 -0.6853138E+00  0.4566205E+00
  0.1600770E+02  0.4855880E+01 -0.1027320E+00  0.8155708E+00 -0.5957733E+00 -0.6750601E+00  0.4576567E+00
  0.1545470E+02  0.6401530E+01 -0.1027320E+00  0.8040677E+00 -0.6071116E+00 -0.6603802E+00  0.4587187E+00
  0.1475280E+02  0.7885530E+01 -0.1027320E+00  0.7909686E+00 -0.6235723E+00 -0.6421064E+00  0.4618773E+00
  0.1390880E+02  0.9293580E+01 -0.1027320E+00  0.7759066E+00 -0.6450687E+00 -0.6199947E+00  0.4665164E+00
  0.1293090E+02  0.1061210E+02 -0.1027320E+00  0.7589830E+00 -0.6714022E+00 -0.5942458E+00  0.4721515E+00
  0.1182850E+02  0.1182850E+02 -0.1027320E+00  0.7378556E+00 -0.7012034E+00 -0.5637707E+00  0.4760184E+00
  0.1061210E+02  0.1293090E+02 -0.1027320E+00  0.7093432E+00 -0.7332584E+00 -0.5270402E+00  0.4747592E+00
  0.9293580E+01  0.1390880E+02 -0.1027320E+00  0.6770552E+00 -0.7701606E+00 -0.4859895E+00  0.4714000E+00
  0.7885520E+01  0.1475280E+02 -0.1027320E+00  0.6325483E+00 -0.8087855E+00 -0.4366972E+00  0.4576166E+00
  0.6401530E+01  0.1545470E+02 -0.1027320E+00  0.5791832E+00 -0.8522590E+00 -0.3812672E+00  0.4359914E+00
  0.4855880E+01  0.1600770E+02 -0.1027320E+00  0.5053328E+00 -0.8989462E+00 -0.3145369E+00  0.3955096E+00
  0.3263470E+01  0.1640660E+02 -0.1027320E+00  0.3892007E+00 -0.9494441E+00 -0.2265674E+00  0.3164560E+00
  0.1639630E+01  0.1664750E+02 -0.1027320E+00  0.2250403E+00 -0.1036914E+01 -0.1145183E+00  0.1937233E+00
 -0.7312040E-06  0.1672800E+02 -0.1027320E+00  0.6964927E-01 -0.1627905E+01  0.3975417E-02  0.6953572E-01
 -0.1639630E+01  0.1664750E+02 -0.1027320E+00  0.1348194E+00  0.2771009E+01  0.1256673E+00 -0.4882613E-01
 -0.3263470E+01  0.1640660E+02 -0.1027320E+00  0.2905937E+00  0.2572508E+01  0.2447945E+00 -0.1565897E+00
 -0.4855880E+01  0.1600770E+02 -0.1027320E+00  0.4023518E+00  0.2553471E+01  0.3347503E+00 -0.2232245E+00
 -0.6401530E+01  0.1545470E+02 -0.1027320E+00  0.4741722E+00  0.2572843E+01  0.3995256E+00 -0.2553794E+00
 -0.7885530E+01  0.1475280E+02 -0.1027320E+00  0.5262488E+00  0.2599982E+01  0.4509318E+00 -0.2712899E+00
 -0.9293580E+01  0.1390880E+02 -0.1027320E+00  0.5694379E+00  0.2626113E+01  0.4954432E+00 -0.2807055E+00
 -0.1061210E+02  0.1293090E+02 -0.1027320E+00  0.6009630E+00  0.2655531E+01  0.5313591E+00 -0.2807383E+00
 -0.1182850E+02  0.1182850E+02 -0.1027320E+00  0.6288054E+00  0.2681849E+01  0.5635142E+00 -0.2790125E+00
 -0.1293090E+02  0.1061210E+02 -0.1027320E+00  0.6496012E+00  0.2708508E+01  0.5896271E+00 -0.2726198E+00
 -0.1390880E+02  0.9293580E+01 -0.1027320E+00  0.6656734E+00  0.2731816E+01  0.6105621E+00 -0.2652075E+00
 -0.1475280E+02  0.7885520E+01 -0.1027320E+00  0.6795840E+00  0.2750523E+01  0.6282766E+00 -0.2590422E+00
 -0.1545470E+02  0.6401530E+01 -0.1027320E+00  0.6913607E+00  0.2764597E+01  0.6428098E+00 -0.2545095E+00
 -0.1600770E+02  0.4855880E+01 -0.1027320E+00  0.7013530E+00  0.2773805E+01  0.6544502E+00 -0.2521725E+00
 -0.1640660E+02  0.3263470E+01 -0.1027320E+00  0.7077011E+00  0.2780329E+01  0.6620197E+00 -0.2501413E+00
 -0.1664750E+02  0.1639630E+01 -0.1027320E+00  0.7104495E+00  0.2784098E+01  0.6655323E+00 -0.2486067E+00
 -0.1672800E+02 -0.1462410E-05 -0.1027320E+00  0.7095898E+00  0.2784992E+01  0.6649488E+00 -0.2477111E+00
 -0.1664750E+02 -0.1639630E+01 -0.1027320E+00  0.7056020E+00  0.2781834E+01  0.6604307E+00 -0.2484057E+00
 -0.1640660E+02 -0.3263470E+01 -0.1027320E+00  0.6980054E+00  0.2775745E+01  0.6518120E+00 -0.2497052E+00
 -0.1600770E+02 -0.4855890E+01 -0.1027320E+00  0.6868944E+00  0.2766909E+01  0.6392400E+00 -0.2513885E+00
 -0.1545470E+02 -0.6401530E+01 -0.1027320E+00  0.6722962E+00  0.2755524E+01  0.6228128E+00 -0.2531529E+00
 -0.1475280E+02 -0.7885530E+01 -0.1027320E+00  0.6559123E+00  0.2738881E+01  0.6034404E+00 -0.2570616E+00
 -0.1390880E+02 -0.9293580E+01 -0.1027320E+00  0.6374544E+00  0.2717150E+01  0.5808920E+00 -0.2625119E+00
 -0.1293090E+02 -0.1061210E+02 -0.1027320E+00  0.6168018E+00  0.2690387E+01  0.5550735E+00 -0.2689570E+00
 -0.1182850E+02 -0.1182850E+02 -0.1027320E+00  0.5915027E+00  0.2660656E+01  0.5244038E+00 -0.2736351E+00
 -0.1061210E+02 -0.1293090E+02 -0.1027320E+00  0.5596592E+00  0.2631482E+01  0.4884092E+00 -0.2732670E+00
 -0.9293580E+01 -0.1390880E+02 -0.1027320E+00  0.5242083E+00  0.2598549E+01  0.4487957E+00 -0.2708815E+00
 -0.7885520E+01 -0.1475280E+02 -0.1027320E+00  0.4776602E+00  0.2570357E+01  0.4018238E+00 -0.2582575E+00
 -0.6401520E+01 -0.1545470E+02 -0.1027320E+00  0.4221050E+00  0.2542484E+01  0.3485907E+00 -0.2380277E+00
 -0.4855880E+01 -0.1600770E+02 -0.1027320E+00  0.3472122E+00  0.2529872E+01  0.2842491E+00 -0.1993960E+00
 -0.3263470E+01 -0.1640660E+02 -0.1027320E+00  0.2346758E+00  0.2590551E+01  0.1999390E+00 -0.1228705E+00
 -0.1639630E+01 -0.1664750E+02 -0.1027320E+00  0.9382299E-01  0.3111717E+01  0.9378112E-01 -0.2802609E-02
  0.1994790E-06 -0.1672800E+02 -0.1027320E+00  0.1214672E+00 -0.1469782E+01 -0.1224904E-01  0.1208480E+00
  0.1639640E+01 -0.1664750E+02 -0.1027320E+00  0.2670579E+00 -0.1127129E+01 -0.1146358E+00  0.2412023E+00
  0.3263470E+01 -0.1640660E+02 -0.1027320E+00  0.4120119E+00 -0.1028920E+01 -0.2124928E+00  0.3529881E+00
  0.4855890E+01 -0.1600770E+02 -0.1027320E+00  0.5149939E+00 -0.9645277E+00 -0.2934462E+00  0.4232116E+00
  0.6401530E+01 -0.1545470E+02 -0.1027320E+00  0.5815219E+00 -0.9069270E+00 -0.3583158E+00  0.4580148E+00
  0.7885520E+01 -0.1475280E+02 -0.1027320E+00  0.6307864E+00 -0.8548223E+00 -0.4140182E+00  0.4758995E+00
  0.9293580E+01 -0.1390880E+02 -0.1027320E+00  0.6725920E+00 -0.8093941E+00 -0.4640462E+00  0.4868687E+00
  0.1061210E+02 -0.1293090E+02 -0.1027320E+00  0.7036861E+00 -0.7664719E+00 -0.5069089E+00  0.4880753E+00
  0.1182850E+02 -0.1182850E+02 -0.1027320E+00  0.7313786E+00 -0.7291366E+00 -0.5454255E+00  0.4872635E+00
  0.1293090E+02 -0.1061210E+02 -0.1027320E+00  0.7525050E+00 -0.6944097E+00 -0.5782486E+00  0.4815519E+00
  0.1390880E+02 -0.9293580E+01 -0.1027320E+00  0.7700841E+00 -0.6639214E+00 -0.6065043E+00  0.4745335E+00
